#Acq. time (s)=	45
#Accumulations=	2
#Range (cm-¹)=	200...3150
#Windows=	2
#Auto scanning=	Off
#Autofocus=	Off
#Macrospot=	Off
#AutoExposure=	Off
#Spike filter=	Multiple accum.
#Delay time (s)=	0
#Binning=	1
#Readout mode=	Signal
#DeNoise=	Off
#ICS correction=	On
#Dark correction=	Off
#Inst. Process=	Off
#Detector Gain=	Best Dynamic Range
#Detector ADC=	20 kHz       
#Detector temperature (°C)=	-69.85
#Instrument=	LabRAM HR Evol
#Detector=	Synapse
#Objective=	x100
#Grating=	600 gr/mm
#ND Filter=	100%
#Laser (nm)=	532 
#Hole=	100.021
#Range=	Auto
#Laser Pol.=	No
#Raman. Pol.=	No
#Laser Pol. (°)=	-0.0007625
#Raman Pol. (°)=	89.9995
#Collection=	Microscope
#StageXY=	Marzhauser
#StageZ=	Marzhauser
#X (µm)=	-5919
#Y (µm)=	2858.6
#Z (µm)=	-224.15
#Full time(mm:ss)=	3:18
#Project=	
#Sample=	
#Site=	
#Title=	Thy_20_09_42_2x_45s_532 nm_x100_100%_600 gr_mm
#Remark=	
#Date=	29.06.2022 13:37
#Acquired=	29.06.2022 13:37:33
#Base:Fit=	10.08.2022 09:52:02
#Base:Fit=	10.08.2022 09:52:12
#Base:Sub=	10.08.2022 09:54:21
#Filter:Polynom=	16.08.2022 10:24:04
#AxisType[0]=Intens
#AxisUnit[0]=Cnt
#AxisType[1]=Spectr
#AxisUnit[1]=1/cm
200.523	-3.18708
202.339	-1.63782
204.154	-0.287022
205.967	1.09895
207.781	2.09695
209.596	3.10569
211.409	4.17653
213.222	4.6958
215.034	5.23766
216.848	6.41334
218.659	7.51398
220.47	8.49301
222.281	7.96181
224.091	8.79163
225.903	9.95914
227.713	10.9445
229.522	12.6041
231.331	13.9072
233.14	14.2022
234.948	14.8836
236.756	15.3006
238.566	14.8588
240.373	13.9128
242.18	14.3569
243.986	14.0247
245.792	13.7926
247.598	14.0226
249.403	13.3885
251.208	13.0736
253.013	12.9594
254.818	13.3469
256.624	12.8437
258.427	12.4392
260.231	12.2941
262.034	12.2133
263.836	11.5918
265.638	11.5082
267.44	12.6904
269.242	11.3015
271.043	10.6084
272.844	10.5006
274.645	9.89702
276.445	8.53999
278.245	8.7626
280.044	8.62052
281.843	8.59984
283.642	9.46908
285.44	9.57748
287.238	9.44887
289.036	8.63513
290.833	7.85955
292.63	7.79072
294.425	7.96623
296.221	8.44231
298.017	8.50699
299.813	8.9296
301.608	10.2505
303.403	10.9549
305.198	12.0717
306.992	13.1341
308.786	13.7163
310.579	14.3111
312.371	14.9282
314.163	16.7371
315.956	17.8222
317.748	18.725
319.54	19.9724
321.331	19.7373
323.122	19.7371
324.911	20.1642
326.701	19.9623
328.491	19.3744
330.281	19.7298
332.071	21.2333
333.857	21.2804
335.646	21.8002
337.434	22.3633
339.222	21.4937
341.008	21.8813
342.795	21.3924
344.582	22.3831
346.369	21.6357
348.153	21.9668
349.939	22.1733
351.724	22.4178
353.51	23.2491
355.292	22.8958
357.077	22.2314
358.861	20.7549
360.643	21.1041
362.426	21.0244
364.21	19.8901
365.99	19.7279
367.773	19.0146
369.555	18.442
371.335	17.9712
373.116	17.5475
374.897	17.5734
376.676	16.9222
378.456	16.8012
380.236	16.2172
382.014	16.3434
383.793	16.9584
385.57	16.7021
387.349	16.7924
389.127	16.875
390.903	17.3732
392.681	15.9917
394.456	14.8992
396.233	14.9461
398.007	14.6576
399.784	13.8698
401.56	13.3321
403.333	12.9928
405.108	12.7983
406.881	12.494
408.656	12.6604
410.428	12.7346
412.202	12.4743
413.973	12.155
415.746	11.4995
417.517	11.5647
419.29	11.3619
421.06	11.6293
422.831	11.0412
424.601	10.8213
426.37	10.8481
428.141	11.015
429.909	11.4093
431.679	11.7534
433.447	12.1191
435.216	12.1725
436.983	12.3976
438.75	12.8952
440.519	12.8149
442.285	13.5638
444.052	12.9366
445.818	14.0134
447.583	15.0152
449.349	15.776
451.114	16.5303
452.878	17.1209
454.643	18.1133
456.407	18.6758
458.169	19.5506
459.934	21.8239
461.696	22.5626
463.458	22.7449
465.222	23.8098
466.983	24.4744
468.744	24.6401
470.507	24.6307
472.267	24.7154
474.027	24.7045
475.787	25.3876
477.548	25.3945
479.307	25.9544
481.065	25.5747
482.823	25.808
484.583	27.003
486.341	27.2823
488.098	27.7194
489.855	29.3711
491.612	29.7597
493.37	30.633
495.126	30.5102
496.881	30.8857
498.636	29.7494
500.391	29.118
502.148	29.0112
503.902	28.4647
505.656	28.4257
507.409	27.6828
509.162	27.6519
510.915	27.055
512.668	26.9241
514.42	27.1413
516.174	26.2343
517.925	25.9774
519.676	25.5888
521.427	23.9113
523.178	24.0126
524.928	23.7637
526.678	23.4442
528.427	22.6298
530.176	22.0269
531.925	21.4
533.673	20.6765
535.422	20.2464
537.169	20.5389
538.917	20.4085
540.664	18.6097
542.411	18.2999
544.157	18.4604
545.903	18.2523
547.649	17.7857
549.395	16.2102
551.14	15.0688
552.884	15.1165
554.629	13.6063
556.373	12.4859
558.117	12.0908
559.86	11.9736
561.603	12.8631
563.346	12.5345
565.089	11.7292
566.831	11.1759
568.573	10.81
570.314	9.78102
572.053	9.93461
573.794	8.70775
575.534	9.02596
577.274	8.71867
579.014	7.88085
580.754	7.97362
582.493	7.92277
584.23	8.13663
585.968	7.68873
587.706	8.03156
589.444	6.63537
591.181	6.07728
592.919	5.26229
594.653	4.80519
596.39	4.702
598.126	4.32473
599.862	5.28743
601.595	5.26624
603.33	4.71058
605.065	6.08192
606.8	5.8494
608.532	5.11204
610.266	6.06865
611.999	6.08718
613.732	6.27793
615.463	6.77764
617.196	7.27236
618.928	7.61897
620.66	7.83871
622.389	8.98148
624.12	9.17905
625.851	8.83442
627.58	9.09072
629.31	10.4353
631.04	11.3022
632.767	10.7089
634.497	10.6272
636.223	10.4819
637.952	11.162
639.68	11.5311
641.406	11.5283
643.134	11.2568
644.861	11.1748
646.586	10.6664
648.312	11.6611
650.037	10.8238
651.762	10.51
653.486	10.4126
655.211	11.1064
656.936	11.3039
658.659	11.7907
660.383	13.8547
662.105	15.3351
663.829	14.3883
665.55	14.7125
667.273	15.0471
668.994	16.3028
670.716	14.9558
672.436	14.8289
674.158	14.9292
675.877	14.567
677.598	16.0803
679.317	16.6102
681.035	18.4526
682.755	19.3318
684.473	20.2014
686.192	22.0641
687.909	22.542
689.628	23.7317
691.344	24.9374
693.06	24.8531
694.778	25.6588
696.493	28.1212
698.211	29.0137
699.925	29.1836
701.64	29.6199
703.356	29.8256
705.07	30.2927
706.783	31.5028
708.498	31.5667
710.211	31.6992
711.924	32.18
713.638	31.9782
715.35	32.0271
717.061	32.292
718.774	32.3365
720.485	32.7563
722.196	32.76
723.906	33.1068
725.618	33.4369
727.328	34.097
729.037	34.5005
730.746	35.5926
732.456	36.3166
734.165	37.1433
735.873	37.7803
737.58	38.1921
739.289	38.9976
740.997	39.0281
742.703	38.7981
744.41	39.8045
746.116	41.1905
747.823	40.0829
749.529	40.6773
751.234	42.3175
752.938	43.5989
754.643	44.4796
756.347	44.6782
758.051	47.3494
759.756	48.592
761.459	48.6841
763.162	49.9463
764.865	50.375
766.567	51.5607
768.269	52.2054
769.97	53.5765
771.671	54.1131
773.372	55.5879
775.073	56.6732
776.773	57.3963
778.473	57.8408
780.174	58.1027
781.874	58.2517
783.573	57.7496
785.271	58.213
786.97	59.3349
788.668	60.1541
790.365	60.7065
792.063	61.4746
793.76	60.9833
795.456	61.7331
797.153	62.2485
798.847	63.3944
800.543	65.0495
802.238	66.3268
803.933	67.1728
805.628	68.1558
807.322	68.201
809.017	67.9532
810.71	69.6355
812.404	69.5002
814.097	70.2098
815.79	71.4284
817.483	71.5297
819.173	70.9732
820.865	71.3546
822.556	70.527
824.248	70.5265
825.939	69.7294
827.629	70.7881
829.318	71.253
831.008	71.0176
832.697	70.9903
834.387	71.6673
836.076	71.0879
837.765	70.972
839.451	70.7585
841.139	70.6403
842.827	69.1513
844.514	67.6653
846.2	66.6958
847.886	65.8965
849.573	65.361
851.259	64.5122
852.943	64.6221
854.629	63.7564
856.314	63.1348
857.997	62.6789
859.682	60.3677
861.366	58.8284
863.05	57.1177
864.732	56.015
866.415	55.4118
868.098	54.317
869.779	53.3503
871.461	52.4402
873.141	51.7054
874.823	51.385
876.505	50.4642
878.184	49.9971
879.865	49.7733
881.545	49.626
883.223	48.9059
884.903	48.0537
886.581	46.8547
888.26	45.9067
889.937	44.4187
891.616	42.7292
893.294	41.9134
894.97	41.2265
896.648	40.2037
898.323	39.8821
900	38.7641
901.675	37.1544
903.351	36.5104
905.026	36.471
906.701	36.3639
908.375	35.9413
910.05	35.8971
911.723	36.1509
913.398	36.0209
915.07	35.7768
916.742	35.6276
918.415	35.5542
920.087	35.1822
921.76	35.241
923.43	35.4624
925.103	35.6999
926.773	35.0301
928.443	35.0563
930.114	36.1308
931.783	36.1733
933.454	37.2374
935.123	37.826
936.791	37.3252
938.461	35.7475
940.128	34.7836
941.796	33.7789
943.464	32.8107
945.131	32.327
946.797	31.5663
948.465	30.8186
950.131	30.5387
951.797	30.4309
953.462	30.1647
955.128	30.0331
956.793	30.5173
958.457	29.9037
960.121	28.1312
961.786	28.0672
963.45	27.3721
965.113	28.0942
966.775	27.2917
968.44	27.9591
970.102	26.9064
971.763	27.8518
973.425	27.1234
975.086	27.0669
976.748	26.7707
978.409	26.3946
980.069	27.5488
981.729	27.8297
983.388	28.5585
985.048	29.3468
986.708	29.5384
988.367	30.117
990.025	30.8275
991.683	31.1085
993.341	32.286
994.998	32.6035
996.655	32.5767
998.312	32.8271
999.969	33.2358
1001.62	34.2714
1003.28	34.4143
1004.94	34.0959
1006.59	34.5351
1008.25	34.334
1009.9	33.7598
1011.56	34.8579
1013.21	35.6944
1014.86	34.7883
1016.52	34.1394
1018.17	33.034
1019.82	31.0031
1021.48	31.3391
1023.13	30.5606
1024.78	29.9483
1026.43	29.0199
1028.08	28.2148
1029.73	27.224
1031.38	25.6376
1033.03	24.8227
1034.68	22.8905
1036.33	21.7573
1037.98	21.4363
1039.63	20.8372
1041.28	19.8634
1042.93	18.721
1044.57	18.8477
1046.22	18.641
1047.87	18.4221
1049.52	16.7545
1051.16	16.7347
1052.81	15.3495
1054.45	15.0923
1056.1	13.4614
1057.75	13.3337
1059.39	12.8576
1061.04	13.0155
1062.68	13.1826
1064.32	13.7333
1065.97	14.4726
1067.61	14.059
1069.25	14.0244
1070.9	14.857
1072.54	14.8725
1074.18	15.0218
1075.82	14.7938
1077.47	15.2853
1079.11	15.0544
1080.75	15.2463
1082.39	16.1446
1084.03	16.2641
1085.67	16.1433
1087.31	16.24
1088.95	16.8695
1090.59	17.2085
1092.22	17.9721
1093.86	18.9721
1095.5	18.5052
1097.14	18.9837
1098.78	19.2717
1100.41	19.7931
1102.05	20.0001
1103.69	21.0077
1105.32	20.4706
1106.96	19.7626
1108.59	19.5553
1110.23	19.5531
1111.86	19.3427
1113.5	18.6592
1115.13	18.4458
1116.77	18.0039
1118.4	17.8031
1120.03	16.3775
1121.67	14.8232
1123.3	13.6316
1124.93	12.1448
1126.56	12.6324
1128.19	11.6793
1129.83	11.0701
1131.46	10.1215
1133.09	10.3931
1134.72	9.65305
1136.35	9.5931
1137.98	9.9244
1139.61	9.46771
1141.24	8.7086
1142.86	9.05067
1144.49	9.14819
1146.12	9.72671
1147.75	8.38364
1149.38	7.62597
1151	7.58386
1152.63	8.79249
1154.26	8.50693
1155.88	7.75454
1157.51	7.64704
1159.14	7.66057
1160.76	6.45757
1162.39	6.23468
1164.01	6.70393
1165.63	6.17976
1167.26	7.08235
1168.88	7.67202
1170.51	8.35716
1172.13	9.39515
1173.75	10.293
1175.38	10.9701
1177	11.4759
1178.62	12.8848
1180.24	14.0552
1181.86	14.8891
1183.48	15.2651
1185.1	16.1683
1186.72	16.6138
1188.34	17.1603
1189.96	19.2857
1191.58	20.6441
1193.2	20.1669
1194.82	20.816
1196.44	21.8185
1198.06	22.6609
1199.68	23.5424
1201.29	25.4256
1202.91	27.5898
1204.53	29.4148
1206.14	30.9535
1207.76	33.0093
1209.38	33.8158
1210.99	35.1802
1212.61	36.9868
1214.22	38.5612
1215.84	40.0566
1217.45	41.9169
1219.07	43.5232
1220.68	44.3468
1222.29	46.1013
1223.91	48.7648
1225.52	50.5407
1227.13	52.1558
1228.74	53.0876
1230.36	55.2246
1231.97	56.9385
1233.58	58.1439
1235.19	58.2943
1236.8	58.8835
1238.41	59.9967
1240.02	60.6758
1241.63	62.1048
1243.24	63.6462
1244.85	64.2282
1246.46	66.2624
1248.07	67.2819
1249.67	68.4423
1251.28	69.4665
1252.89	70.2588
1254.5	71.0076
1256.1	71.0894
1257.71	70.9031
1259.32	71.3421
1260.92	70.7332
1262.53	71.3913
1264.13	72.4562
1265.74	73.5871
1267.34	73.7892
1268.95	74.3643
1270.55	74.0752
1272.15	74.581
1273.76	75.056
1275.36	75.7003
1276.97	76.6514
1278.57	77.9659
1280.17	79.0206
1281.77	79.659
1283.37	79.6947
1284.97	80.371
1286.58	81.2344
1288.18	82.2212
1289.78	82.8967
1291.38	84.2349
1292.98	84.8175
1294.58	85.2735
1296.18	87.0993
1297.78	88.0877
1299.37	88.9808
1300.97	89.9106
1302.57	91.3455
1304.17	93.2328
1305.77	93.6459
1307.36	94.3942
1308.96	94.4408
1310.55	95.4993
1312.15	96.0724
1313.75	96.4224
1315.34	96.7925
1316.94	97.1299
1318.53	97.6166
1320.13	98.9296
1321.72	99.6939
1323.32	99.648
1324.91	99.4963
1326.5	100.156
1328.1	98.7942
1329.69	98.8839
1331.28	98.178
1332.87	97.3161
1334.47	96.206
1336.06	94.7597
1337.65	94.0975
1339.24	93.7913
1340.83	92.6473
1342.42	92.6338
1344.01	90.9939
1345.6	89.9664
1347.19	88.2618
1348.78	87.378
1350.37	86.1898
1351.96	86.4581
1353.54	85.2793
1355.13	83.6829
1356.72	83.7689
1358.31	82.6177
1359.89	80.4515
1361.48	78.8548
1363.07	77.16
1364.65	76.8693
1366.24	75.0284
1367.82	73.9763
1369.41	72.5002
1370.99	71.0439
1372.58	69.1287
1374.16	68.3582
1375.75	67.4695
1377.33	66.066
1378.91	65.0483
1380.5	64.1091
1382.08	63.5338
1383.66	62.5719
1385.25	62.0071
1386.83	61.8168
1388.41	60.6737
1389.99	59.6998
1391.57	57.4192
1393.15	56.5731
1394.73	55.6689
1396.31	55.5328
1397.89	53.8746
1399.47	53.1136
1401.05	52.4735
1402.63	51.6193
1404.21	50.3594
1405.78	49.7964
1407.36	50.7379
1408.94	51.5762
1410.52	52.7323
1412.1	53.899
1413.67	54.7379
1415.25	56.3726
1416.82	57.5641
1418.4	58.5737
1419.98	59.3982
1421.55	61.6459
1423.13	65.4121
1424.7	68.7552
1426.28	71.3463
1427.85	74.1989
1429.42	77.6226
1431	80.6069
1432.57	82.8033
1434.14	85.4504
1435.71	87.6383
1437.29	89.4217
1438.86	90.5064
1440.43	92.2041
1442	92.6921
1443.57	94.2627
1445.14	94.4392
1446.71	96.0524
1448.28	96.4286
1449.85	97.0615
1451.42	96.7027
1452.99	96.1738
1454.56	95.0374
1456.13	94.015
1457.7	92.6211
1459.26	91.8435
1460.83	90.1118
1462.4	87.5948
1463.97	85.8717
1465.54	82.3884
1467.1	78.8559
1468.67	75.0282
1470.23	71.8903
1471.8	69.5387
1473.36	66.0607
1474.93	62.2494
1476.49	58.7206
1478.06	55.9687
1479.62	53.7295
1481.19	50.1122
1482.75	46.5476
1484.31	44.965
1485.88	43.8205
1487.44	40.9451
1489	39.0095
1490.56	36.67
1492.13	35.1024
1493.69	33.9899
1495.25	32.0723
1496.81	30.4416
1498.37	29.7282
1499.93	30.1466
1501.49	30.7801
1503.05	29.7014
1504.61	29.7701
1506.17	29.6486
1507.73	30.3296
1509.28	29.3351
1510.84	29.5699
1512.4	29.7396
1513.96	29.3233
1515.52	29.4917
1517.07	29.2138
1518.63	29.9393
1520.19	30.5461
1521.74	32.3714
1523.3	33.3719
1524.85	33.8586
1526.41	34.3757
1527.96	35.4457
1529.52	36.5753
1531.07	37.8293
1532.63	38.8909
1534.18	40.5824
1535.73	41.8894
1537.29	44.1199
1538.84	44.9937
1540.39	46.5574
1541.94	48.8422
1543.5	50.0677
1545.05	51.2965
1546.6	53.1026
1548.15	55.8619
1549.7	58.2572
1551.25	60.1784
1552.8	62.6748
1554.35	64.9821
1555.9	67.0462
1557.45	68.7775
1559	69.2255
1560.55	70.3772
1562.1	72.7036
1563.65	74.3152
1565.19	74.7803
1566.74	76.438
1568.29	78.3769
1569.83	79.8366
1571.38	80.6748
1572.93	80.6985
1574.47	81.6153
1576.02	83.0304
1577.56	84.7003
1579.11	86.0881
1580.66	86.0229
1582.2	86.3805
1583.74	86.9421
1585.29	88.0555
1586.83	88.2549
1588.38	89.2606
1589.92	88.7805
1591.46	89.3206
1593.01	89.7981
1594.55	90.5399
1596.09	91.0003
1597.63	90.2184
1599.17	89.781
1600.71	88.7569
1602.25	89.1471
1603.79	89.9678
1605.34	89.6484
1606.88	88.7944
1608.41	87.8113
1609.95	87.0842
1611.49	86.5277
1613.03	86.4926
1614.57	85.9672
1616.11	84.736
1617.65	83.7659
1619.18	83.3317
1620.72	82.7165
1622.26	82.5798
1623.79	83.1131
1625.33	83.7382
1626.87	83.1547
1628.4	82.9146
1629.94	82.6926
1631.48	82.1906
1633.01	82.1426
1634.55	81.9341
1636.08	82.7443
1637.61	84.3428
1639.15	85.3642
1640.68	86.2104
1642.21	86.9753
1643.75	88.6008
1645.28	89.6446
1646.81	89.5852
1648.34	89.3552
1649.88	89.4581
1651.41	89.989
1652.94	89.7166
1654.47	90.6932
1656	90.6254
1657.53	90.2503
1659.06	91.3885
1660.59	91.7909
1662.12	91.7526
1663.65	90.5452
1665.18	90.4472
1666.71	89.6781
1668.24	89.6395
1669.76	88.6795
1671.29	86.9107
1672.82	84.5928
1674.35	82.6808
1675.87	80.8525
1677.4	78.561
1678.93	76.7134
1680.45	73.4195
1681.98	70.0488
1683.5	66.8349
1685.03	63.0843
1686.55	59.4776
1688.08	55.8792
1689.6	52.4513
1691.13	48.3549
1692.65	44.2849
1694.17	41.0933
1695.7	38.1761
1697.22	35.3461
1698.74	32.6912
1700.27	30.3298
1701.79	28.0554
1703.31	25.2052
1704.83	22.3922
1706.35	19.9537
1707.87	18.8754
1709.39	17.6695
1710.91	15.9226
1712.43	14.579
1713.95	13.6679
1715.47	11.904
1716.99	11.0023
1718.51	10.28
1720.03	9.03007
1721.55	7.77781
1723.07	5.97743
1724.58	5.37489
1726.1	5.29006
1727.62	5.27987
1729.13	5.54624
1730.65	6.23706
1732.17	6.06984
1733.68	6.61308
1735.2	7.06964
1736.72	6.7371
1738.23	6.08659
1739.74	6.43183
1741.26	7.14704
1742.77	7.07107
1744.29	7.35502
1745.8	7.45045
1747.32	7.29867
1748.83	7.29182
1750.34	7.42042
1751.85	6.92793
1753.37	6.51101
1754.88	6.31342
1756.39	5.70121
1757.9	5.47406
1759.41	5.15773
1760.92	4.74062
1762.44	4.61226
1763.95	4.86599
1765.46	4.67025
1766.96	4.43623
1768.47	4.4924
1769.98	4.74312
1771.49	4.1931
1773	3.73552
1774.51	3.41411
1776.02	2.59242
1777.53	2.14368
1779.03	1.66402
1780.54	1.25135
1782.05	1.93613
1783.55	1.87458
1785.06	1.53104
1786.57	1.35389
1788.07	1.74399
1789.58	2.13921
1791.08	1.28169
1792.59	1.49056
1794.09	1.28759
1795.6	0.686234
1797.1	0.793516
1798.61	0.649659
1800.11	1.1111
1801.61	1.59555
1803.12	1.99031
1804.62	2.0651
1806.12	2.22747
1807.62	2.37148
1809.12	2.17263
1810.63	1.79157
1812.13	1.79935
1813.63	1.90841
1815.13	2.57862
1816.63	2.60457
1818.13	2.71284
1819.63	2.80097
1821.13	3.01034
1822.63	2.82879
1824.13	2.31044
1825.63	2.64871
1827.13	2.6466
1828.62	2.52908
1830.12	2.81298
1831.62	2.88186
1833.12	3.56957
1834.61	3.46243
1836.11	3.12097
1837.61	3.46429
1839.1	3.87066
1840.6	3.25195
1842.09	3.28643
1843.59	3.57781
1845.09	3.11394
1846.58	2.94447
1848.08	3.04537
1849.57	3.57964
1851.06	3.41798
1852.56	3.73554
1854.05	3.58843
1855.54	3.2599
1857.04	3.06427
1858.53	2.47469
1860.02	2.56614
1861.51	2.24984
1863.01	2.05419
1864.5	2.27006
1865.99	2.2957
1867.48	2.54869
1868.97	2.57205
1870.46	2.67475
1871.95	3.46111
1873.44	3.0713
1874.93	2.90877
1876.42	3.5046
1877.91	2.90943
1879.4	3.17398
1880.89	3.13987
1882.37	2.76342
1882.46	3.05351
1883.95	3.18843
1885.45	3.4503
1886.94	3.60899
1888.43	3.80812
1889.93	4.29468
1891.42	4.59843
1892.91	4.7053
1894.41	5.31044
1895.9	5.76352
1897.39	6.10945
1898.88	7.03419
1900.37	7.4603
1901.86	7.65301
1903.36	8.05044
1904.85	7.84543
1906.34	8.09996
1907.83	7.92583
1909.32	7.67793
1910.81	8.22738
1912.29	8.31263
1913.78	8.3621
1915.27	8.7364
1916.76	8.57016
1918.25	8.14471
1919.74	7.57016
1921.23	7.41523
1922.71	7.15266
1924.2	6.36241
1925.69	5.84583
1927.17	5.29486
1928.66	4.91769
1930.15	5.09251
1931.63	4.77302
1933.12	5.12801
1934.6	5.34504
1936.09	5.5796
1937.57	5.43751
1939.06	5.08891
1940.54	4.20872
1942.02	4.05422
1943.51	4.12758
1944.99	4.74736
1946.47	4.14497
1947.96	4.30649
1949.44	4.53417
1950.92	4.54109
1952.4	4.30239
1953.88	4.30226
1955.37	4.13758
1956.85	4.7599
1958.33	4.73053
1959.81	5.58204
1961.29	5.69851
1962.77	5.92602
1964.25	5.97393
1965.73	5.93156
1967.21	5.99807
1968.69	6.72327
1970.16	7.26555
1971.64	6.83828
1973.12	6.72985
1974.6	6.53039
1976.08	6.33601
1977.55	6.28148
1979.03	6.16602
1980.51	6.60805
1981.98	6.49411
1983.46	6.08789
1984.94	7.02651
1986.41	6.91699
1987.89	6.97583
1989.36	6.56178
1990.84	6.34757
1992.31	6.27733
1993.79	6.42822
1995.26	6.8406
1996.73	6.98134
1998.21	6.33358
1999.68	6.67087
2001.15	6.96145
2002.63	7.5909
2004.1	8.03335
2005.57	7.7081
2007.04	8.15195
2008.51	8.21149
2009.99	8.76845
2011.46	8.66825
2012.93	8.54042
2014.4	8.65631
2015.87	8.83743
2017.34	8.79467
2018.81	8.77007
2020.28	8.01194
2021.75	7.92681
2023.21	8.10766
2024.68	8.58426
2026.15	8.01201
2027.62	8.85144
2029.09	9.09174
2030.56	9.80595
2032.02	10.3596
2033.49	10.7366
2034.96	9.89572
2036.42	10.3343
2037.89	10.2486
2039.36	10.1551
2040.82	11.0159
2042.29	11.6954
2043.75	11.6244
2045.22	11.329
2046.68	11.9561
2048.14	12.6763
2049.61	13.0532
2051.07	13.2543
2052.54	13.7954
2054	13.6327
2055.46	13.368
2056.93	13.5417
2058.39	14.3231
2059.85	14.0208
2061.31	13.8894
2062.77	13.6134
2064.23	13.9568
2065.7	13.8179
2067.16	14.0976
2068.62	14.3176
2070.08	14.3
2071.54	14.2325
2073	15.0937
2074.46	14.9355
2075.92	15.7657
2077.38	16.2151
2078.83	16.5268
2080.29	16.869
2081.75	17.3084
2083.21	17.341
2084.67	16.9831
2086.12	16.9871
2087.58	17.6491
2089.04	17.5078
2090.49	17.6691
2091.95	18.628
2093.41	18.7915
2094.86	18.6882
2096.32	18.8273
2097.77	19.4964
2099.23	19.797
2100.68	20.4532
2102.14	21.0166
2103.59	21.7707
2105.05	21.8984
2106.5	22.3694
2107.95	22.3497
2109.41	23.0477
2110.86	23.3545
2112.31	24.3928
2113.76	25.6192
2115.21	26.1587
2116.67	26.6546
2118.12	27.5498
2119.57	28.244
2121.02	29.0496
2122.47	29.4314
2123.92	30.3094
2125.37	30.7616
2126.82	31.2044
2128.27	32.1526
2129.72	33.2056
2131.17	34.1269
2132.62	34.6356
2134.07	35.7391
2135.51	37.1091
2136.96	37.8148
2138.41	39.0984
2139.86	40.7627
2141.31	42.2845
2142.75	43.2747
2144.2	44.8561
2145.65	46.1112
2147.09	47.2351
2148.54	48.6292
2149.98	50.243
2151.43	51.8679
2152.87	52.8336
2154.32	54.1196
2155.76	55.2776
2157.21	56.3541
2158.65	57.0397
2160.1	59.0554
2161.54	59.4182
2162.98	59.6365
2164.43	59.8294
2165.87	59.4143
2167.31	60.1889
2168.75	61.3919
2170.2	62.0765
2171.64	62.7032
2173.08	62.9497
2174.52	62.992
2175.96	62.8568
2177.4	62.3683
2178.84	62.1139
2180.28	61.1357
2181.72	60.789
2183.16	60.4751
2184.6	60.1729
2186.04	59.3813
2187.48	58.1602
2188.92	57.1052
2190.36	56.0382
2191.79	55.479
2193.23	54.2308
2194.67	53.8333
2196.11	53.2123
2197.54	52.0294
2198.98	51.2466
2200.42	50.3756
2201.85	49.2474
2203.29	48.3835
2204.72	47.7103
2206.16	46.5738
2207.59	45.5507
2209.03	44.6594
2210.46	44.1406
2211.9	43.2335
2213.33	42.4929
2214.77	41.1208
2216.2	40.1813
2217.63	38.996
2219.07	38.8554
2220.5	38.3938
2221.93	38.1497
2223.36	37.036
2224.8	35.5672
2226.23	34.4708
2227.66	33.7041
2229.09	32.7153
2230.52	32.2595
2231.95	31.557
2233.39	29.7294
2234.81	29.0559
2236.25	28.3854
2237.67	28.6246
2239.1	28.8546
2240.53	28.2058
2241.96	27.2013
2243.39	26.2483
2244.82	25.0901
2246.25	24.0695
2247.68	23.3075
2249.1	22.6424
2250.53	21.7242
2251.96	20.9013
2253.38	20.659
2254.81	19.9057
2256.24	19.6171
2257.66	19.2694
2259.09	18.3991
2260.51	18.5928
2261.94	18.7855
2263.36	18.6282
2264.79	17.9928
2266.21	18.83
2267.64	17.9442
2269.06	17.387
2270.49	17.6205
2271.91	17.649
2273.33	17.0094
2274.76	16.8189
2276.18	16.6898
2277.6	15.6284
2279.02	15.418
2280.44	15.2915
2281.87	15.126
2283.29	15.4706
2284.71	15.3665
2286.13	14.3513
2287.55	14.3025
2288.97	14.1714
2290.39	14.1429
2291.81	13.1539
2293.23	12.1476
2294.65	12.1645
2296.07	12.1585
2297.49	12.4388
2298.91	13.0351
2300.33	12.9836
2301.74	13.3472
2303.16	13.4324
2304.58	13.5951
2306	14.0193
2307.41	13.6111
2308.83	13.6742
2310.25	13.4733
2311.66	13.2317
2313.08	13.1448
2314.5	13.4275
2315.91	13.6684
2317.33	13.7557
2318.74	13.2971
2320.16	12.8688
2321.57	12.9324
2322.98	13.2441
2324.4	13.4999
2325.81	13.2876
2327.23	13.9729
2328.64	13.5104
2330.05	12.4121
2331.46	12.4404
2332.88	11.865
2334.29	11.5435
2335.7	11.168
2337.11	10.486
2338.52	9.31732
2339.94	8.77966
2341.35	8.76385
2342.76	7.44525
2344.17	6.66196
2345.58	5.86624
2346.99	4.90824
2348.4	4.54244
2349.81	4.9194
2351.22	5.04449
2352.62	4.75242
2354.03	4.21963
2355.44	3.33447
2356.85	2.46171
2358.26	2.0293
2359.67	1.32367
2361.07	0.687794
2362.48	0.457128
2363.89	0.972643
2365.29	1.85448
2366.7	1.56126
2368.11	1.71533
2369.51	2.02828
2370.92	1.91522
2372.32	2.52819
2373.73	2.03195
2375.13	1.99696
2376.54	2.34358
2377.94	2.31724
2379.35	3.05958
2380.75	3.16514
2382.15	3.192
2383.56	3.87848
2384.96	4.17618
2386.36	4.57811
2387.76	4.80385
2389.17	5.05491
2390.57	5.6317
2391.97	7.0073
2393.37	6.99397
2394.77	6.74868
2396.17	6.80962
2397.58	6.49762
2398.98	5.8908
2400.38	5.62878
2401.78	6.23571
2403.18	5.79033
2404.58	5.03301
2405.97	4.21926
2407.37	3.69787
2408.77	4.27692
2410.17	4.14453
2411.57	4.24787
2412.97	4.32563
2414.37	4.96048
2415.76	4.84013
2417.16	5.1305
2418.56	5.62267
2419.95	5.01052
2421.35	4.74874
2422.75	4.39209
2424.14	4.83592
2425.54	4.90225
2426.93	4.28785
2428.33	4.13468
2429.72	3.96519
2431.12	4.10539
2432.51	5.03675
2433.91	5.11004
2435.3	4.77423
2436.7	4.85325
2438.09	4.7343
2439.48	4.95343
2440.88	4.65683
2442.27	4.7088
2443.66	4.20217
2445.05	4.40824
2446.44	4.40111
2447.84	4.28509
2449.23	4.44826
2450.62	4.27424
2452.01	4.70938
2453.4	5.57886
2454.79	5.31996
2456.18	5.11275
2457.57	5.02969
2458.96	4.831
2460.35	4.48274
2461.74	4.35426
2463.13	3.297
2464.52	3.10845
2465.91	3.04547
2467.29	2.8471
2468.68	2.51944
2470.07	2.16399
2471.46	1.98676
2472.85	2.23486
2474.23	2.52366
2475.62	2.98371
2477.01	3.4565
2478.39	3.52023
2479.78	2.67518
2481.16	2.72037
2482.55	3.06854
2483.93	2.62478
2485.32	2.10258
2486.7	2.1872
2488.09	2.1986
2489.47	2.05605
2490.86	2.71963
2492.24	2.61633
2493.62	2.67437
2495.01	1.82853
2496.39	1.72689
2497.77	1.61793
2499.15	1.53932
2500.54	1.82019
2501.92	1.71573
2503.3	1.24047
2504.68	1.31181
2506.06	1.34262
2507.45	1.05105
2508.83	1.75279
2510.21	1.28997
2511.59	0.543838
2512.97	0.20752
2514.35	0.215324
2515.73	0.184566
2517.11	0.298264
2518.48	0.903108
2519.86	0.826179
2521.24	0.868039
2522.62	1.30784
2524	0.918938
2525.38	0.772852
2526.75	0.759697
2528.13	0.110566
2529.51	0.247088
2530.89	0.195679
2532.26	0.158419
2533.64	0.855778
2535.02	0.743917
2536.39	0.985762
2537.77	1.28773
2539.14	1.59587
2540.52	1.74271
2541.89	2.38609
2543.27	1.81792
2544.64	1.39997
2546.01	1.58709
2547.39	1.61523
2548.76	1.4949
2550.14	1.63141
2551.51	1.98112
2552.88	1.88338
2554.25	1.82363
2555.63	2.16829
2557	1.96558
2558.37	1.88784
2559.74	2.02288
2561.11	1.49486
2562.49	2.03319
2563.86	1.68872
2565.23	1.33412
2566.6	1.23607
2567.97	1.76316
2569.34	1.468
2570.71	1.40544
2572.08	1.46879
2573.45	1.39889
2574.82	1.37697
2576.18	1.51322
2577.55	1.6572
2578.92	1.09842
2580.29	1.28854
2581.66	1.79108
2583.02	1.94143
2584.39	2.21235
2585.76	2.21417
2587.13	2.40325
2588.49	1.75222
2589.86	2.08057
2591.22	2.67591
2592.59	2.20148
2593.96	2.00614
2595.32	1.39024
2596.69	1.22179
2598.05	1.78067
2599.42	1.57279
2600.78	2.10264
2602.14	2.71396
2603.51	2.26011
2604.87	2.47778
2606.23	2.60438
2607.6	2.80064
2608.96	2.91199
2610.32	3.1409
2611.69	2.73672
2613.05	2.59263
2614.41	2.69648
2615.77	2.80281
2617.13	2.28235
2618.49	2.16732
2619.86	1.98511
2621.22	1.82296
2622.58	1.40151
2623.94	1.65354
2625.3	1.6197
2626.66	1.59665
2628.02	2.10953
2629.37	1.9526
2630.73	1.98768
2632.09	1.21767
2633.45	1.60252
2634.81	2.20541
2636.17	2.04616
2637.53	1.67831
2638.88	1.92974
2640.24	2.09996
2641.6	2.80246
2642.96	2.70752
2644.31	2.71577
2645.67	2.49537
2647.02	2.3202
2648.38	2.02082
2649.74	1.63516
2651.09	1.60962
2652.45	2.29344
2653.8	2.04694
2655.16	2.22434
2656.51	2.0026
2657.86	2.67447
2659.22	2.65294
2660.57	2.29998
2661.93	2.45772
2663.28	2.72509
2664.63	3.69921
2665.98	3.96759
2667.34	4.0752
2668.69	4.43726
2670.04	3.6384
2671.39	3.28322
2672.75	2.78896
2674.09	2.94419
2675.45	2.9493
2676.8	2.11642
2678.15	2.27668
2679.5	1.95041
2680.85	2.04404
2682.2	1.80182
2683.55	1.83442
2684.9	1.95145
2686.25	2.57634
2687.6	2.38155
2688.94	2.63289
2690.29	2.58592
2691.64	2.88709
2692.99	2.70025
2694.34	2.71492
2695.68	3.1424
2697.03	2.93769
2698.38	3.14933
2699.73	3.19028
2701.07	3.26423
2702.42	3.49835
2703.76	3.62666
2705.11	3.91294
2706.45	4.368
2707.8	4.52753
2709.15	4.96347
2710.49	5.29109
2711.83	5.46658
2713.18	5.86704
2714.52	6.55719
2715.87	6.88632
2717.21	7.91425
2718.55	8.57307
2719.9	8.99768
2721.24	8.52729
2722.58	8.74378
2723.93	9.02167
2725.27	9.61362
2726.61	9.30246
2727.95	9.1513
2729.29	8.83964
2730.63	8.71664
2731.98	8.6673
2733.32	7.60682
2734.66	7.42207
2736	6.7393
2737.34	6.14207
2738.68	6.24341
2740.02	6.07709
2741.36	6.7559
2742.7	6.38275
2744.03	5.75945
2745.37	5.70032
2746.71	5.28578
2748.05	5.35834
2749.39	5.28049
2750.72	5.51312
2752.06	5.41053
2753.4	5.04676
2754.74	3.82404
2756.07	3.34456
2757.41	2.69067
2758.75	2.87934
2760.08	3.02737
2761.42	2.89333
2762.76	2.41746
2764.09	2.20529
2765.42	1.81189
2766.76	1.94395
2768.09	2.37621
2769.43	2.65802
2770.76	2.50437
2772.1	2.97806
2773.43	3.15672
2774.76	3.01166
2776.1	3.13072
2777.43	2.71193
2778.76	2.34392
2780.1	2.6603
2781.43	2.47509
2782.76	2.25979
2784.09	2.11278
2785.42	1.68322
2786.75	1.44715
2788.09	1.37316
2789.42	1.57463
2790.75	1.31135
2792.08	0.848418
2793.41	0.15429
2794.74	0.462607
2796.07	0.781291
2797.4	1.47527
2798.73	1.41673
2800.06	1.27467
2801.39	2.02858
2802.71	2.27944
2804.04	2.47972
2805.37	2.67087
2806.7	2.7371
2808.03	2.56649
2809.35	2.45187
2810.68	2.69356
2812.01	3.03403
2813.33	3.04534
2814.66	2.69019
2815.99	3.14939
2817.31	3.28462
2818.64	3.31365
2819.96	4.08551
2821.29	4.88323
2822.61	6.05502
2823.94	7.51955
2825.26	9.56488
2826.59	10.664
2827.91	11.7745
2829.23	13.4936
2830.56	15.5256
2831.88	17.035
2833.21	18.7354
2834.53	20.3515
2835.85	21.9835
2837.17	23.9706
2838.5	27.0507
2839.82	29.2688
2841.14	31.468
2842.46	34.4434
2843.78	37.1
2845.1	40.7497
2846.42	44.3942
2847.74	48.0618
2849.06	51.7104
2850.38	55.8368
2851.71	60.0075
2853.03	64.2319
2854.34	68.5243
2855.66	72.8315
2856.98	76.8419
2858.3	81.3593
2859.62	85.5364
2860.94	90.0983
2862.26	93.868
2863.57	98.0349
2864.89	101.566
2866.21	105.52
2867.53	108.716
2868.84	111.978
2870.16	114.709
2871.48	117.817
2872.79	120.096
2874.11	122.776
2875.42	125.283
2876.74	127.818
2878.05	130.276
2879.37	132.582
2880.68	134.639
2882	137.377
2883.31	139.385
2884.63	142.071
2885.94	145.125
2887.26	147.454
2888.57	150.541
2889.88	153.344
2891.19	155.717
2892.51	157.799
2893.82	160.804
2895.13	163.776
2896.44	166.981
2897.76	170.087
2899.07	173.756
2900.38	177.879
2901.69	181.603
2903	186.484
2904.31	191.335
2905.62	195.719
2906.93	201.22
2908.24	206.858
2909.55	212.369
2910.86	218.607
2912.17	224.922
2913.48	231.352
2914.79	237.658
2916.1	243.686
2917.41	249.155
2918.71	254.588
2920.02	259.705
2921.33	263.65
2922.64	267.663
2923.94	271.115
2925.25	273.886
2926.56	276.316
2927.86	277.947
2929.17	278.896
2930.48	280.159
2931.78	280.346
2933.09	279.874
2934.39	279.244
2935.7	277.455
2937	275.717
2938.31	273.426
2939.61	271.047
2940.92	268.054
2942.22	265.304
2943.53	262.005
2944.83	257.07
2946.13	252.8
2947.43	248.862
2948.74	244.202
2950.04	239.387
2951.34	234.495
2952.64	229.483
2953.95	224.918
2955.25	219.18
2956.55	213.889
2957.85	209.152
2959.15	204.454
2960.45	199.496
2961.75	194.796
2963.05	189.604
2964.35	184.974
2965.65	180.163
2966.95	175.42
2968.25	171.682
2969.55	167.236
2970.85	163.491
2972.15	160.05
2973.45	155.878
2974.75	152.221
2976.05	148.545
2977.34	144.939
2978.64	140.946
2979.94	136.493
2981.24	132.199
2982.53	127.851
2983.83	123.451
2985.13	118.97
2986.42	114.216
2987.72	110.099
2989.01	105.106
2990.31	100.271
2991.61	95.5709
2992.9	91.4604
2994.19	87.0091
2995.49	83.5848
2996.78	79.0069
2998.08	74.9258
2999.37	71.0941
3000.67	67.1307
3001.96	63.7389
3003.25	60.4744
3004.55	56.7666
3005.84	53.4429
3007.13	50.6983
3008.42	47.7816
3009.72	44.4881
3011.01	42.6476
3012.3	40.3215
3013.59	38.1455
3014.88	36.3177
3016.17	34.6594
3017.46	32.8686
3018.76	31.1254
3020.05	29.4114
3021.34	28.3135
3022.63	26.8128
3023.92	25.7149
3025.21	25.0284
3026.49	23.8771
3027.78	23.1877
3029.07	22.7302
3030.36	21.9024
3031.65	21.5875
3032.94	21.519
3034.23	21.8308
3035.51	22.4159
3036.8	22.8092
3038.09	23.2074
3039.38	23.4028
3040.66	23.8994
3041.95	24.4594
3043.23	25.6341
3044.52	26.1592
3045.81	26.7599
3047.09	27.1276
3048.38	27.9157
3049.66	28.4324
3050.95	28.7717
3052.23	29.0296
3053.52	29.9113
3054.8	30.529
3056.09	31.3256
3057.37	31.6389
3058.65	31.107
3059.94	31.5863
3061.22	31.3176
3062.5	31.0504
3063.79	30.8987
3065.07	30.361
3066.35	29.7911
3067.63	29.1281
3068.92	28.4103
3070.2	27.7881
3071.48	27.3932
3072.76	26.9798
3074.04	25.76
3075.32	24.8042
3076.6	23.7826
3077.88	22.6924
3079.16	20.9214
3080.44	19.0815
3081.72	17.8546
3083	16.0697
3084.28	14.5986
3085.56	13.4745
3086.84	12.1987
3088.12	11.3033
3089.4	10.0734
3090.67	8.91885
3091.95	8.34474
3093.23	7.35212
3094.51	6.21598
3095.78	5.65797
3097.06	4.75162
3098.34	4.20499
3099.61	3.54249
3100.89	2.95981
3102.17	2.11098
3103.44	1.39543
3104.72	1.43209
3105.99	1.24832
3107.27	1.31378
3108.54	0.706032
3109.82	0.534051
3111.09	0.45748
3112.37	0.397106
3113.64	0.36407
3114.92	0.229061
3116.19	0.718107
3117.46	1.1428
3118.74	0.81572
3120.01	0.949032
3121.28	0.76518
3122.55	0.924112
3123.83	1.74572
3125.1	1.86065
3126.37	2.62677
3127.64	3.15383
3128.91	3.28861
3130.19	3.79943
3131.46	4.59489
3132.73	5.36303
3134	5.9883
3135.27	6.7777
3136.54	7.46078
3137.81	7.6314
3139.08	8.52713
3140.35	9.265
3141.62	10.0137
3142.89	10.7507
3144.16	11.877
3145.42	12.9083
3146.69	14.4337
3147.96	15.1407
3149.23	15.6554
