#Acq. time (s)=	45
#Accumulations=	2
#Range (cm-¹)=	200...3150
#Windows=	2
#Auto scanning=	Off
#Autofocus=	Off
#Macrospot=	Off
#AutoExposure=	Off
#Spike filter=	Multiple accum.
#Delay time (s)=	0
#Binning=	1
#Readout mode=	Signal
#DeNoise=	Off
#ICS correction=	On
#Dark correction=	Off
#Inst. Process=	Off
#Detector Gain=	Best Dynamic Range
#Detector ADC=	20 kHz       
#Detector temperature (°C)=	-69.85
#Instrument=	LabRAM HR Evol
#Detector=	Synapse
#Objective=	x100
#Grating=	600 gr/mm
#ND Filter=	100%
#Laser (nm)=	532 
#Hole=	100.021
#Range=	Auto
#Laser Pol.=	No
#Raman. Pol.=	No
#Laser Pol. (°)=	-0.0007625
#Raman Pol. (°)=	89.9995
#Collection=	Microscope
#StageXY=	Marzhauser
#StageZ=	Marzhauser
#X (µm)=	-2356.5
#Y (µm)=	244
#Z (µm)=	521.7
#Full time(mm:ss)=	3:18
#Project=	
#Sample=	
#Site=	
#Title=	Thy_10_08_46_2x_45s_532 nm_x100_100%_600 gr_mm
#Remark=	
#Date=	06.07.2022 15:10
#Acquired=	06.07.2022 15:10:51
#Base:Fit=	10.08.2022 09:46:25
#Base:Sub=	10.08.2022 09:46:49
#Filter:Polynom=	16.08.2022 10:24:56
#AxisType[0]=Intens
#AxisUnit[0]=Cnt
#AxisType[1]=Spectr
#AxisUnit[1]=1/cm
200.398	0.0414129
202.213	3.73216
204.027	6.99024
205.843	9.08879
207.657	10.3231
209.47	11.7806
211.283	13.069
213.097	13.8478
214.909	14.4957
216.721	14.7939
218.533	15.3355
220.344	15.438
222.157	16.4789
223.967	16.1959
225.777	16.1914
227.587	15.7408
229.396	15.1293
231.205	15.1725
233.016	15.3285
234.824	15.2244
236.632	15.7589
238.439	15.5379
240.247	16.0756
242.053	15.9156
243.86	15.8862
245.666	16.4455
247.474	16.3495
249.279	16.0999
251.085	15.5677
252.889	15.4028
254.694	15.0406
256.498	15.2139
258.301	15.591
260.105	15.9286
261.908	15.6934
263.71	16.126
265.513	15.5834
267.315	15.4987
269.116	15.9331
270.918	16.2573
272.718	15.9857
274.519	16.1852
276.319	17.3001
278.119	17.5484
279.918	17.4227
281.718	18.3516
283.516	19.2126
285.315	18.8567
287.113	18.445
288.911	18.0976
290.708	18.5995
292.505	18.4094
294.302	18.9596
296.098	19.4108
297.894	20.4503
299.69	21.4012
301.485	20.9175
303.278	21.5168
305.073	22.0536
306.867	22.7246
308.661	23.448
310.454	23.5416
312.247	23.9716
314.04	23.0428
315.833	22.7257
317.623	22.4919
319.415	23.2772
321.206	24.3267
322.997	24.9668
324.788	25.0698
326.579	25.2115
328.367	24.632
330.156	25.4581
331.946	24.3568
333.735	24.8131
335.523	25.6862
337.31	24.9765
339.098	24.4643
340.885	23.7574
342.673	23.7161
344.458	23.571
346.244	23.3998
348.03	22.573
349.816	22.4257
351.6	20.7028
353.385	20.0338
355.17	19.0298
356.953	18.7399
358.737	18.4323
360.521	18.5527
362.304	18.1664
364.085	18.2505
365.868	17.7983
367.65	16.4898
369.431	16.1995
371.212	15.5878
372.994	13.7033
374.773	12.0261
376.554	12.3258
378.332	12.1627
380.112	11.849
381.892	10.7918
383.669	11.1006
385.448	11.3165
387.225	11.9195
389.003	12.7221
390.781	12.4093
392.557	13.1716
394.334	12.6023
396.109	12.3785
397.885	12.421
399.66	11.7568
401.436	11.8056
403.211	10.6851
404.984	10.9355
406.759	12.1581
408.532	13.8214
410.306	14.095
412.078	13.8382
413.851	13.6604
415.623	13.548
417.395	13.5508
419.166	14.0901
420.938	14.0048
422.708	14.6739
424.477	14.6636
426.248	13.7486
428.017	14.4
429.788	14.0888
431.556	13.6724
433.326	13.9088
435.093	13.5809
436.86	13.0133
438.629	13.7357
440.395	13.5779
442.163	14.4089
443.929	14.1669
445.694	14.3009
447.461	14.32
449.226	14.7101
450.99	14.447
452.756	14.2884
454.52	13.2645
456.285	12.8161
458.048	12.2111
459.811	10.3871
461.573	10.6501
463.337	11.0893
465.099	11.8094
466.86	11.6353
468.623	11.2472
470.384	11.3673
472.144	12.2261
473.906	13.015
475.666	13.4778
477.425	13.8641
479.184	13.3857
480.944	13.3695
482.703	12.7686
484.461	13.0796
486.218	13.2856
487.975	13.9394
489.734	14.7201
491.491	14.4231
493.247	15.532
495.003	16.3183
496.759	16.7423
498.516	16.2915
500.271	16.2155
502.025	16.6733
503.779	16.8727
505.533	16.8939
507.287	17.4138
509.042	17.5852
510.795	17.966
512.547	17.6146
514.299	18.0377
516.051	17.6772
517.803	17.0102
519.554	16.8651
521.305	16.9974
523.055	16.2713
524.805	16.4122
526.555	17.7926
528.307	17.8216
530.056	16.909
531.805	15.4449
533.553	15.7631
535.301	16.054
537.049	16.1474
538.797	15.2536
540.544	14.7984
542.291	13.6014
544.037	12.9825
545.783	12.6551
547.529	11.9615
549.275	12.7262
551.02	12.0887
552.765	11.2479
554.509	10.6494
556.253	10.0168
557.997	10.2332
559.738	10.0349
561.482	9.86007
563.224	9.53499
564.967	8.57297
566.709	7.2556
568.451	6.96432
570.192	6.07764
571.933	5.33593
573.674	4.87513
575.415	4.6413
577.153	3.72249
578.893	2.28418
580.632	2.18538
582.371	2.65752
584.11	2.66212
585.849	2.85018
587.587	2.765
589.323	3.0985
591.06	2.89943
592.797	3.02145
594.534	2.87206
596.271	2.59537
598.005	3.418
599.741	3.69591
601.476	4.71715
603.211	4.88268
604.944	6.06271
606.679	6.38246
608.413	7.07848
610.147	8.70642
611.878	10.0475
613.611	10.6451
615.344	10.4353
617.077	10.6229
618.807	11.2362
620.539	12.7151
622.27	13.4588
623.999	14.0784
625.73	14.7834
627.461	15.8915
629.189	15.8398
630.919	15.7105
632.648	17.1921
634.376	18.0517
636.105	17.9309
637.833	18.4572
639.559	19.5367
641.287	19.9804
643.013	20.1731
644.74	19.8246
646.467	19.5894
648.192	20.1498
649.918	19.6635
651.642	19.7804
653.368	19.7572
655.091	19.8696
656.816	18.639
658.538	19.381
660.263	20.7014
661.987	20.4922
663.708	21.0825
665.432	22.056
667.153	23.3712
668.875	24.0993
670.596	23.6531
672.318	24.5965
674.037	25.4133
675.759	26.131
677.478	26.6483
679.196	27.4384
680.917	27.0673
682.635	28.686
684.355	30.5328
686.072	31.5832
687.791	32.4311
689.508	32.987
691.224	34.0006
692.942	33.885
694.658	34.4077
696.376	34.7371
698.091	34.9681
699.805	35.289
701.522	35.0377
703.236	34.931
704.95	35.5711
706.665	36.5355
708.379	37.25
710.093	37.8164
711.806	37.8166
713.518	38.001
715.23	38.1128
716.943	38.8762
718.655	40.4538
720.366	40.1735
722.078	40.5403
723.788	41.1099
725.498	41.1938
727.208	41.1898
728.919	42.0187
730.628	42.4892
732.337	43.1709
734.045	43.8523
735.755	44.6737
737.463	45.5936
739.17	45.6045
740.877	47.1011
742.584	49.182
744.292	51.8122
745.998	53.2097
747.704	53.2782
749.409	54.5705
751.114	56.2081
752.819	56.5331
754.526	58.2693
756.23	59.3835
757.934	61.6984
759.637	62.944
761.34	63.9448
763.043	65.0238
764.746	65.8791
766.448	66.0899
768.152	67.4216
769.853	67.9786
771.554	68.6047
773.255	69.308
774.956	69.3426
776.656	69.7109
778.356	69.0896
780.056	69.0477
781.755	69.5496
783.454	70.2523
785.153	70.2782
786.851	70.4146
788.549	71.8281
790.247	72.41
791.944	72.9929
793.641	73.2587
795.338	74.3544
797.034	74.4315
798.73	75.962
800.426	76.1278
802.121	76.3391
803.817	76.324
805.511	76.4201
807.206	76.5703
808.9	76.1462
810.592	76.7605
812.286	76.5022
813.979	76.4867
815.672	77.3322
817.364	78.5842
819.057	78.9594
820.748	79.9262
822.44	80.231
824.129	80.4943
825.82	82.0657
827.511	82.395
829.201	82.1085
830.891	81.9747
832.581	81.2368
834.269	81.5453
835.958	81.5359
837.646	81.4525
839.335	81.9379
841.023	80.7233
842.709	80.1631
844.396	79.2691
846.084	78.6657
847.77	76.9363
849.455	74.8238
851.141	73.1353
852.827	72.3949
854.513	71.0258
856.196	70.7903
857.881	69.5388
859.566	67.4966
861.248	65.7017
862.932	64.8276
864.616	63.4766
866.297	62.3793
867.98	61.7592
869.663	61.2872
871.343	61.1846
873.026	59.7693
874.707	58.618
876.387	58.1932
878.068	57.9088
879.747	56.6189
881.428	55.5302
883.108	55.2972
884.786	53.651
886.465	52.7906
888.143	52.5851
889.822	52.6742
891.498	52.0903
893.177	52.4398
894.855	52.1982
896.53	52.5355
898.208	53.3003
899.883	53.3815
901.56	52.9096
903.234	52.5952
904.91	53.0345
906.584	53.6065
908.26	53.834
909.933	54.2154
911.608	54.2076
913.28	53.8582
914.955	54.3234
916.627	53.3903
918.298	53.3176
919.972	53.7804
921.643	54.4754
923.315	53.9765
924.986	54.0128
926.656	53.8553
928.328	54.1246
929.997	54.227
931.668	53.3001
933.337	53.4352
935.006	54.0214
936.676	54.696
938.344	54.5347
940.012	54.6518
941.681	53.2146
943.348	52.7366
945.014	52.8566
946.683	52.9013
948.349	52.8385
950.015	52.4568
951.682	53.1297
953.347	51.9262
955.012	50.6376
956.676	49.3593
958.343	48.941
960.006	48.1871
961.67	48.62
963.333	47.8116
964.998	48.6592
966.661	49.2604
968.323	50.1416
969.985	50.0941
971.649	51.0309
973.31	50.076
974.971	49.8421
976.632	49.8553
978.293	48.8747
979.953	48.5159
981.615	47.716
983.274	47.5232
984.933	47.3378
986.592	47.5244
988.251	46.15
989.909	45.8246
991.567	44.7619
993.225	43.2354
994.884	43.0185
996.541	41.8327
998.198	40.9576
999.855	39.6542
1001.51	39.485
1003.17	39.2252
1004.82	37.8307
1006.48	36.7364
1008.13	36.0134
1009.79	34.9748
1011.44	34.4423
1013.1	33.7282
1014.75	33.1018
1016.4	32.7997
1018.06	32.0605
1019.71	31.0196
1021.36	29.2943
1023.01	27.4336
1024.66	26.5498
1026.32	26.8707
1027.97	25.4418
1029.62	24.0217
1031.27	23.7959
1032.92	22.1186
1034.57	21.6953
1036.22	20.8375
1037.87	20.3635
1039.52	19.7021
1041.16	19.0481
1042.81	19.0148
1044.46	19.3873
1046.11	18.7842
1047.76	18.9702
1049.4	18.2276
1051.05	17.4544
1052.7	16.7715
1054.34	16.2383
1055.99	14.8105
1057.63	15.0385
1059.28	15.133
1060.92	14.849
1062.57	15.349
1064.21	15.3509
1065.85	14.9794
1067.5	14.7161
1069.14	14.6641
1070.78	13.7996
1072.43	14.65
1074.07	14.1679
1075.71	13.8391
1077.35	14.5871
1078.99	14.1065
1080.63	14.4085
1082.27	14.6842
1083.91	14.4031
1085.55	14.9373
1087.19	15.027
1088.83	15.4128
1090.47	16.1431
1092.11	17.4691
1093.75	18.0622
1095.39	18.7064
1097.03	19.9734
1098.66	20.0427
1100.3	20.3141
1101.94	20.0896
1103.57	20.6573
1105.21	21.2803
1106.84	21.3972
1108.48	21.6495
1110.11	20.5004
1111.75	20.5009
1113.38	21.3225
1115.02	20.4147
1116.65	19.8537
1118.29	18.72
1119.92	18.3428
1121.55	16.546
1123.19	15.8035
1124.82	14.9759
1126.45	14.3801
1128.08	13.6717
1129.71	14.0741
1131.34	13.5453
1132.97	14.0543
1134.6	14.0095
1136.23	12.6623
1137.86	12.843
1139.49	13.1795
1141.12	12.9706
1142.75	12.9034
1144.38	12.6575
1146.01	11.357
1147.64	10.9128
1149.26	11.1137
1150.89	10.9574
1152.52	10.6582
1154.15	9.61118
1155.77	7.96415
1157.4	6.7788
1159.02	7.03527
1160.65	6.92305
1162.27	6.83919
1163.9	6.03263
1165.52	6.62872
1167.15	8.03632
1168.77	8.37802
1170.39	8.69496
1172.02	9.64083
1173.64	9.6128
1175.26	10.0701
1176.89	10.5792
1178.51	11.104
1180.13	11.4068
1181.75	11.2981
1183.37	11.3267
1184.99	12.0006
1186.61	11.9808
1188.23	11.9542
1189.85	13.0201
1191.47	12.8991
1193.09	13.5298
1194.71	15.0255
1196.33	15.0813
1197.94	15.5704
1199.56	16.678
1201.18	17.9125
1202.8	17.4892
1204.41	19.5162
1206.03	20.9331
1207.65	23.5604
1209.26	25.7361
1210.88	28.4514
1212.49	29.2999
1214.11	31.0636
1215.72	32.5664
1217.34	34.4727
1218.95	36.3015
1220.57	37.1416
1222.18	38.9381
1223.79	40.6416
1225.41	40.8487
1227.02	41.5287
1228.63	42.4147
1230.24	43.3469
1231.85	43.5557
1233.47	43.8776
1235.08	43.7428
1236.69	44.5105
1238.3	46.434
1239.91	48.0452
1241.52	48.0881
1243.13	48.1998
1244.74	48.8262
1246.34	49.3701
1247.95	50.2003
1249.56	49.865
1251.17	49.3671
1252.78	49.4023
1254.38	48.8339
1255.99	49.5873
1257.6	49.1668
1259.2	48.9731
1260.81	48.8759
1262.42	48.1291
1264.02	47.3466
1265.63	47.6229
1267.23	47.1386
1268.84	46.977
1270.44	47.4664
1272.04	46.5491
1273.65	47.0359
1275.25	47.1865
1276.85	47.6133
1278.46	48.4255
1280.06	49.4532
1281.66	50.0899
1283.26	50.6942
1284.86	52.6966
1286.46	54.0418
1288.07	54.9465
1289.67	55.7231
1291.27	56.9214
1292.87	56.6869
1294.47	58.1787
1296.06	58.8475
1297.66	59.5562
1299.26	59.2972
1300.86	59.7479
1302.46	61.4796
1304.06	61.5821
1305.65	62.5307
1307.25	63.3692
1308.85	63.9352
1310.44	64.2656
1312.04	63.467
1313.64	63.8135
1315.23	63.6949
1316.83	63.392
1318.42	63.4794
1320.02	63.1274
1321.61	62.6492
1323.2	61.5633
1324.8	61.0416
1326.39	60.6372
1327.99	61.148
1329.58	60.0393
1331.17	59.4627
1332.76	58.5159
1334.36	57.9461
1335.95	57.143
1337.54	56.3602
1339.13	55.5512
1340.72	54.2386
1342.31	52.9523
1343.9	51.0374
1345.49	50.485
1347.08	48.9363
1348.67	48.7416
1350.26	47.9042
1351.85	46.3589
1353.43	46.0668
1355.02	45.8185
1356.61	45.4107
1358.2	44.9364
1359.78	43.8589
1361.37	43.207
1362.96	42.9824
1364.54	42.9794
1366.13	41.7113
1367.71	40.6207
1369.3	40.5704
1370.88	39.363
1372.47	38.4713
1374.05	38.0612
1375.64	37.2854
1377.22	36.589
1378.8	36.5838
1380.39	36.8618
1381.97	36.8389
1383.55	35.9911
1385.13	35.0325
1386.72	34.3176
1388.3	33.8041
1389.88	32.4387
1391.46	31.6251
1393.04	31.9522
1394.62	31.7765
1396.2	31.5005
1397.78	30.8323
1399.36	30.9642
1400.94	29.8742
1402.52	30.1753
1404.1	31.2344
1405.68	32.0979
1407.25	33.0948
1408.83	33.932
1410.41	34.5521
1411.98	35.7417
1413.56	37.4072
1415.14	38.5415
1416.71	40.1297
1418.29	41.1949
1419.87	42.8802
1421.44	44.3918
1423.02	45.8832
1424.59	48.6416
1426.16	50.6323
1427.74	53.6475
1429.31	55.5534
1430.89	57.8738
1432.46	60.1408
1434.03	62.9782
1435.6	65.1168
1437.18	67.7592
1438.75	69.2008
1440.32	70.4785
1441.89	71.8828
1443.46	72.4341
1445.03	73.2667
1446.6	73.74
1448.17	74.2953
1449.74	73.7669
1451.31	74.2391
1452.88	73.5597
1454.45	73.3472
1456.02	71.5297
1457.59	69.9976
1459.16	67.922
1460.72	65.458
1462.29	63.0382
1463.86	60.2228
1465.43	58.2752
1466.99	55.5618
1468.56	52.954
1470.13	50.6461
1471.69	47.882
1473.26	44.652
1474.82	41.1537
1476.38	37.7505
1477.95	35.3927
1479.51	32.5727
1481.08	29.9276
1482.64	27.4819
1484.2	25.2289
1485.77	22.9766
1487.33	21.0366
1488.89	18.8869
1490.46	17.4096
1492.02	15.2948
1493.58	13.5656
1495.14	11.9798
1496.7	11.3486
1498.26	10.9579
1499.82	9.47614
1501.38	9.84386
1502.94	10.4943
1504.5	9.32334
1506.06	9.88328
1507.62	9.81287
1509.18	10.502
1510.73	10.649
1512.29	10.9481
1513.85	10.7121
1515.41	10.5907
1516.96	11.239
1518.52	12.1816
1520.08	13.6527
1521.63	14.1981
1523.19	14.9659
1524.75	15.4179
1526.3	16.2421
1527.85	16.5217
1529.41	17.8919
1530.96	17.7236
1532.52	18.1034
1534.07	18.0835
1535.62	19.5508
1537.18	21.3399
1538.73	22.3534
1540.28	23.3198
1541.84	24.8711
1543.39	25.79
1544.94	26.7173
1546.49	27.4652
1548.04	28.7563
1549.59	29.033
1551.14	30.5937
1552.69	32.2822
1554.25	33.9066
1555.79	35.7707
1557.34	37.1834
1558.89	38.3449
1560.44	39.2088
1561.99	40.8298
1563.54	42.4087
1565.08	43.3141
1566.63	44.1686
1568.18	45.0471
1569.73	46.3771
1571.27	47.3126
1572.82	48.5535
1574.37	50.9848
1575.91	52.5264
1577.46	52.6084
1579	54.2241
1580.55	54.8166
1582.09	55.5787
1583.64	57.4693
1585.18	58.6158
1586.73	59.858
1588.27	60.6359
1589.81	62.0288
1591.35	62.5387
1592.9	62.8791
1594.44	63.8633
1595.98	63.8558
1597.52	62.7064
1599.06	62.5382
1600.61	62.3599
1602.15	61.3482
1603.69	61.2433
1605.23	61.3305
1606.77	61.6198
1608.31	61.5105
1609.85	62.0847
1611.39	62.7379
1612.93	62.7436
1614.46	62.8703
1616	62.8286
1617.54	62.4137
1619.08	62.7877
1620.61	62.1189
1622.15	62.8332
1623.69	64.0908
1625.23	64.8726
1626.76	65.3841
1628.3	65.9694
1629.83	66.7171
1631.37	67.5444
1632.9	68.5386
1634.44	69.1184
1635.97	69.3841
1637.51	70.4228
1639.04	72.5598
1640.57	73.0232
1642.11	73.0677
1643.64	74.272
1645.17	74.5273
1646.71	75.6142
1648.24	76.2751
1649.77	76.675
1651.3	77.5385
1652.83	77.2381
1654.36	77.0981
1655.89	78.1122
1657.42	78.2149
1658.96	78.2825
1660.48	77.5328
1662.01	76.4853
1663.54	75.6984
1665.07	74.093
1666.6	72.2511
1668.13	69.9902
1669.66	68.5023
1671.19	67.3424
1672.71	65.5234
1674.24	63.9734
1675.77	62.4173
1677.29	60.3238
1678.82	58.6985
1680.35	57.6085
1681.87	55.7706
1683.4	53.2491
1684.92	51.5581
1686.45	49.4537
1687.97	46.6494
1689.5	43.9781
1691.02	42.5397
1692.54	40.1649
1694.07	37.5927
1695.59	35.6898
1697.11	33.3952
1698.64	32.1436
1700.16	30.3605
1701.68	27.9972
1703.2	26.2796
1704.72	24.4497
1706.25	23.041
1707.77	21.8686
1709.29	20.5683
1710.81	18.8537
1712.33	16.7844
1713.85	16.3898
1715.37	14.8926
1716.89	13.447
1718.41	12.5198
1719.92	11.5085
1721.44	9.88788
1722.96	9.16839
1724.48	8.41597
1725.99	7.68564
1727.51	7.18192
1729.03	6.26543
1730.55	5.56605
1732.06	4.83699
1733.58	4.13362
1735.09	3.64775
1736.61	3.24441
1738.13	3.21585
1739.64	3.51637
1741.15	3.24093
1742.67	3.07505
1744.18	3.07383
1745.7	2.85083
1747.21	2.60262
1748.72	2.51239
1750.24	2.31511
1751.75	1.90647
1753.26	2.2643
1754.77	2.12686
1756.29	1.8666
1757.8	2.17489
1759.31	2.06109
1760.82	2.66683
1762.33	2.27834
1763.84	2.06577
1765.35	2.43667
1766.86	2.45446
1768.37	1.93921
1769.88	1.87844
1771.39	1.60579
1772.9	1.43116
1774.4	1.27126
1775.91	0.764456
1777.42	0.324649
1778.93	0.410811
1780.44	0.352614
1781.94	0.161748
1783.45	0.205093
1784.96	-0.172246
1786.46	0.257723
1787.97	0.371013
1789.47	0.785309
1790.98	0.220584
1792.48	0.336445
1793.99	-0.339559
1795.49	-1.00507
1797	-1.06946
1798.5	-0.395128
1800.01	-0.500615
1801.51	-0.654306
1803.01	-0.947931
1804.51	-1.22439
1806.02	-1.04199
1807.52	-0.86458
1809.02	-0.695826
1810.52	-0.803787
1812.02	-0.421724
1813.52	-0.39283
1815.02	-0.332776
1816.53	-0.597557
1818.03	-0.589008
1819.52	-0.14211
1821.02	-0.143533
1822.52	-0.0997879
1824.02	-0.0710159
1825.52	-0.119008
1827.02	0.318472
1828.52	0.767442
1830.02	0.7309
1831.51	0.926902
1833.01	0.832122
1834.51	0.869106
1836.01	1.16951
1837.5	1.08534
1839	1.50145
1840.49	1.40848
1841.99	1.50575
1843.49	1.44892
1844.98	1.38709
1846.48	1.4288
1847.97	1.68298
1849.47	1.66017
1850.96	2.39714
1852.45	2.81269
1853.95	3.10842
1855.44	3.1346
1856.93	3.18403
1858.42	2.80522
1859.92	2.92786
1861.41	3.26164
1862.9	3.32092
1864.39	3.03471
1865.88	3.24024
1867.38	3.0429
1868.87	3.24555
1870.36	3.1234
1871.85	3.28816
1873.34	3.55554
1874.83	3.59397
1876.32	3.73256
1877.81	3.86053
1879.29	3.65213
1880.78	4.35283
1882.27	4.19934
1882.53	4.18001
1884.03	4.34158
1885.52	4.02092
1887.01	3.67734
1888.51	3.35885
1890	2.71799
1891.5	2.61123
1892.99	2.95146
1894.48	3.00234
1895.97	2.67833
1897.47	3.08757
1898.96	3.39497
1900.45	4.16564
1901.94	3.97723
1903.43	3.86257
1904.92	4.1048
1906.41	4.04173
1907.9	3.88273
1909.39	3.70638
1910.88	3.64979
1912.37	4.38699
1913.86	4.39879
1915.35	4.59234
1916.84	4.93935
1918.33	5.44131
1919.81	5.66445
1921.3	6.21324
1922.79	6.46129
1924.28	7.09576
1925.76	7.07511
1927.25	7.00018
1928.73	6.98595
1930.22	6.83311
1931.71	6.85077
1933.19	7.21474
1934.68	7.90639
1936.16	8.17178
1937.65	8.08518
1939.13	8.71155
1940.62	8.83739
1942.1	9.26122
1943.58	8.71566
1945.07	8.91624
1946.55	9.31105
1948.03	9.21151
1949.51	8.60761
1951	8.85109
1952.48	8.7937
1953.96	8.50898
1955.44	7.99126
1956.92	8.17028
1958.4	8.14024
1959.88	8.12871
1961.36	8.16284
1962.84	8.75462
1964.32	8.91255
1965.8	9.60731
1967.28	9.92785
1968.76	9.97275
1970.24	10.1276
1971.72	10.2105
1973.2	10.0181
1974.67	9.5809
1976.15	9.08532
1977.63	9.32632
1979.1	9.08314
1980.58	9.03027
1982.06	9.07311
1983.54	8.87296
1985.01	8.82806
1986.49	8.82482
1987.96	8.66402
1989.44	8.64203
1990.91	8.874
1992.39	8.76376
1993.86	8.19728
1995.33	8.58821
1996.81	8.66346
1998.28	8.84691
1999.75	9.47744
2001.23	9.42358
2002.7	9.55593
2004.17	10.0116
2005.65	10.724
2007.12	10.9433
2008.59	11.1719
2010.06	11.2711
2011.53	11.7221
2013	11.4383
2014.47	11.3425
2015.94	10.7353
2017.41	10.8849
2018.88	11.1501
2020.35	11.5477
2021.82	11.3592
2023.29	11.9194
2024.76	12.1677
2026.23	12.4081
2027.69	12.874
2029.16	13.3902
2030.63	13.3419
2032.1	13.7105
2033.56	14.4262
2035.03	14.8056
2036.5	14.8435
2037.96	14.5255
2039.43	15.0607
2040.89	14.915
2042.36	14.5643
2043.83	14.5786
2045.29	14.2711
2046.75	14.4495
2048.22	14.2622
2049.68	14.3562
2051.15	14.3318
2052.61	14.4727
2054.07	14.4335
2055.54	14.2421
2057	14.4728
2058.46	14.7329
2059.92	15.1281
2061.39	14.8417
2062.85	14.6545
2064.31	14.8405
2065.77	14.6642
2067.23	13.944
2068.69	14.4705
2070.15	14.7955
2071.61	14.9069
2073.07	14.8079
2074.53	14.3221
2075.99	14.3938
2077.45	14.7346
2078.91	14.7908
2080.37	14.9269
2081.82	14.9521
2083.28	15.0497
2084.74	15.0891
2086.2	14.5085
2087.65	14.6537
2089.11	14.9981
2090.57	15.6095
2092.02	15.5576
2093.48	15.1501
2094.94	14.8346
2096.39	14.9973
2097.85	14.7992
2099.3	15.5985
2100.76	15.7889
2102.21	15.5303
2103.66	15.9828
2105.12	16.7465
2106.57	16.8927
2108.03	16.7525
2109.48	16.5684
2110.93	17.341
2112.38	17.8677
2113.84	18.0572
2115.29	18.3252
2116.74	19.4035
2118.19	19.6678
2119.64	19.8474
2121.09	20.0091
2122.54	20.4488
2123.99	21.3517
2125.45	22.4741
2126.89	22.9813
2128.34	23.4829
2129.79	24.2955
2131.24	24.142
2132.69	24.4202
2134.14	24.6752
2135.59	25.1732
2137.04	25.8244
2138.48	26.3361
2139.93	27.0101
2141.38	28.0951
2142.83	28.2265
2144.27	28.1642
2145.72	28.3684
2147.17	29.5836
2148.61	30.7851
2150.06	32.026
2151.5	32.3203
2152.95	32.528
2154.39	32.4078
2155.84	32.7319
2157.28	32.9426
2158.73	32.9445
2160.17	33.5723
2161.61	33.8918
2163.06	33.7704
2164.5	33.8054
2165.94	33.7016
2167.38	34.0516
2168.83	34.3138
2170.27	34.524
2171.71	35.0723
2173.15	34.8692
2174.59	34.9561
2176.03	35.0523
2177.47	34.582
2178.91	35.0433
2180.36	34.921
2181.8	34.9017
2183.23	34.7269
2184.67	34.8055
2186.11	34.8127
2187.55	34.4409
2188.99	34.6226
2190.43	34.0664
2191.87	33.7003
2193.3	33.2754
2194.74	32.813
2196.18	32.9981
2197.62	32.5779
2199.05	31.5298
2200.49	31.2059
2201.93	30.8051
2203.36	30.1504
2204.8	29.7242
2206.23	29.026
2207.67	28.2205
2209.1	27.7159
2210.54	26.9799
2211.97	26.049
2213.41	25.3174
2214.84	24.4396
2216.27	24.2877
2217.71	24.0182
2219.14	23.8118
2220.57	23.1407
2222.01	22.3788
2223.44	21.1609
2224.87	21.0632
2226.3	21.28
2227.73	20.6592
2229.16	20.2297
2230.6	19.929
2232.03	20.153
2233.46	19.808
2234.89	19.4188
2236.32	18.927
2237.75	18.4913
2239.18	18.5678
2240.61	18.451
2242.03	18.1924
2243.46	18.1032
2244.89	17.1273
2246.32	17.198
2247.75	17.0332
2249.17	17.2122
2250.6	17.5009
2252.03	16.5535
2253.46	16.5449
2254.88	16.7991
2256.31	16.5645
2257.73	16.2061
2259.16	16.0505
2260.59	15.5232
2262.01	14.8693
2263.44	14.5997
2264.86	13.6511
2266.29	13.6822
2267.71	13.8512
2269.14	13.3214
2270.56	13.4646
2271.98	13.0228
2273.4	12.9528
2274.83	12.8272
2276.25	12.515
2277.67	11.8398
2279.09	11.9845
2280.52	12.2704
2281.94	12.4707
2283.36	12.3586
2284.78	12.2169
2286.2	11.6307
2287.62	11.6866
2289.04	11.3537
2290.46	11.1469
2291.88	11.0556
2293.3	11.0342
2294.72	11.0419
2296.14	11.6449
2297.56	11.6642
2298.98	11.6528
2300.4	12.0936
2301.82	12.8703
2303.23	13.0067
2304.65	12.6365
2306.07	12.7165
2307.49	12.8671
2308.9	13.1718
2310.32	13.4519
2311.73	12.9484
2313.15	12.9598
2314.57	13.6911
2315.98	13.9708
2317.4	14.6902
2318.81	14.5783
2320.23	14.9662
2321.64	14.2727
2323.06	14.381
2324.47	14.5886
2325.88	14.3739
2327.3	13.5903
2328.71	13.8752
2330.12	13.2804
2331.54	12.5325
2332.95	12.3863
2334.36	12.0994
2335.77	11.5593
2337.18	12.0287
2338.6	12.194
2340.01	11.9371
2341.42	11.612
2342.83	10.8085
2344.24	11.5934
2345.65	11.251
2347.06	11.0879
2348.47	10.2724
2349.88	10.5964
2351.29	10.2886
2352.7	9.74785
2354.1	8.53991
2355.51	8.22097
2356.92	7.87634
2358.33	7.29509
2359.74	6.232
2361.14	6.00644
2362.55	5.90446
2363.96	5.67489
2365.36	5.62222
2366.77	5.66869
2368.18	5.59238
2369.58	5.24548
2370.99	5.14993
2372.39	5.39848
2373.8	4.79122
2375.2	5.27439
2376.61	5.40702
2378.01	5.00105
2379.42	5.133
2380.82	4.95422
2382.22	4.90319
2383.63	5.02485
2385.03	5.42118
2386.43	5.15137
2387.84	4.83391
2389.24	4.84943
2390.64	4.90122
2392.04	4.52737
2393.44	5.09583
2394.84	4.82716
2396.25	4.54966
2397.65	4.73877
2399.05	4.76244
2400.45	4.53131
2401.85	5.1756
2403.25	5.71189
2404.65	6.18937
2406.05	7.38991
2407.45	7.7537
2408.84	8.49833
2410.24	8.82194
2411.64	9.83933
2413.04	10.4864
2414.44	11.6643
2415.83	11.7547
2417.23	11.673
2418.63	11.8034
2420.02	12.0481
2421.42	12.3202
2422.82	12.0413
2424.21	11.73
2425.61	12.2276
2427	11.835
2428.4	11.3422
2429.8	11.2672
2431.19	11.6144
2432.58	11.2943
2433.98	10.9877
2435.37	11.0575
2436.77	10.828
2438.16	10.506
2439.55	10.7205
2440.95	10.7799
2442.34	10.1453
2443.73	9.53285
2445.12	9.30363
2446.51	8.39572
2447.91	7.84478
2449.3	7.31684
2450.69	6.65382
2452.08	6.30521
2453.47	6.1696
2454.86	5.94929
2456.25	5.27624
2457.64	4.98517
2459.03	4.91191
2460.42	4.11881
2461.81	3.32161
2463.2	2.83227
2464.59	2.52331
2465.98	2.35556
2467.36	2.18598
2468.75	1.76242
2470.14	1.58112
2471.53	1.4299
2472.92	1.53174
2474.3	2.04862
2475.69	2.07895
2477.08	1.50444
2478.46	2.12543
2479.85	2.09409
2481.23	2.0687
2482.62	1.27994
2484	1.46785
2485.39	1.37177
2486.77	1.3838
2488.16	1.29088
2489.54	0.879812
2490.93	0.916597
2492.31	0.319322
2493.69	0.706101
2495.08	0.752761
2496.46	1.18206
2497.84	1.56885
2499.23	1.6419
2500.61	1.62847
2501.99	1.5674
2503.37	2.0946
2504.75	1.58669
2506.13	1.45816
2507.52	1.95747
2508.9	2.45401
2510.28	2.28462
2511.66	2.56293
2513.04	2.88968
2514.42	2.9865
2515.8	2.85964
2517.18	3.14344
2518.55	3.53362
2519.93	3.7168
2521.31	3.65614
2522.69	3.84356
2524.07	3.70013
2525.45	3.57916
2526.82	3.31488
2528.2	2.86062
2529.58	2.31506
2530.95	2.40098
2532.33	2.43017
2533.71	2.66575
2535.08	2.55549
2536.46	2.24153
2537.84	2.26257
2539.21	2.04723
2540.59	2.40002
2541.96	2.6134
2543.34	2.26752
2544.71	1.70912
2546.08	1.63155
2547.46	1.1815
2548.83	0.681256
2550.2	0.560228
2551.58	0.346056
2552.95	0.176228
2554.32	0.152044
2555.7	-0.165435
2557.07	-0.419944
2558.44	-0.426641
2559.81	-0.159353
2561.18	0.450351
2562.55	0.96136
2563.93	0.822903
2565.3	1.03274
2566.67	0.974579
2568.04	0.929693
2569.41	0.593808
2570.78	0.661737
2572.15	0.599512
2573.51	-0.174012
2574.88	0.64136
2576.25	1.10075
2577.62	1.03156
2578.99	0.8851
2580.36	0.997572
2581.73	1.32563
2583.09	1.56695
2584.46	1.54461
2585.83	1.67924
2587.19	1.3254
2588.56	0.962877
2589.93	1.36002
2591.29	1.51729
2592.66	1.27563
2594.02	1.22624
2595.39	1.00579
2596.75	1.33251
2598.12	1.45997
2599.48	1.57297
2600.85	1.52355
2602.21	2.31787
2603.58	2.46476
2604.94	2.60363
2606.3	2.85217
2607.67	2.96419
2609.03	3.34666
2610.39	3.12499
2611.76	2.88829
2613.12	2.90787
2614.48	3.12294
2615.84	3.2346
2617.2	3.65396
2618.56	3.65833
2619.92	3.81137
2621.28	3.94235
2622.65	4.47959
2624.01	4.20739
2625.37	4.30782
2626.72	4.23441
2628.08	4.40426
2629.44	4.76653
2630.8	4.55295
2632.16	4.27887
2633.52	4.40942
2634.88	4.87208
2636.24	4.53729
2637.59	4.1275
2638.95	4.1653
2640.31	3.87966
2641.67	4.27515
2643.02	4.78064
2644.38	4.42849
2645.74	4.22763
2647.09	4.06826
2648.45	4.32464
2649.8	3.76373
2651.16	3.34946
2652.51	2.73355
2653.87	2.56883
2655.22	2.84067
2656.58	2.97934
2657.93	2.94913
2659.29	2.39203
2660.64	2.38502
2661.99	2.32361
2663.35	2.26635
2664.7	2.67286
2666.05	2.85916
2667.41	2.99547
2668.76	3.3293
2670.11	3.72902
2671.46	3.43395
2672.81	3.41269
2674.16	3.40643
2675.51	3.10141
2676.87	2.78882
2678.22	2.35811
2679.57	2.80733
2680.92	2.77444
2682.27	2.96442
2683.62	2.14975
2684.97	1.97705
2686.31	1.47693
2687.66	1.35633
2689.01	0.899319
2690.36	1.14104
2691.71	1.09518
2693.06	0.992971
2694.4	0.88518
2695.75	1.44149
2697.1	2.23586
2698.45	2.17347
2699.79	2.65458
2701.14	3.42038
2702.49	3.72916
2703.83	3.42198
2705.18	3.60856
2706.52	3.805
2707.87	4.25558
2709.21	4.56551
2710.56	3.92439
2711.9	3.80386
2713.25	4.16429
2714.59	4.23266
2715.94	4.13628
2717.28	4.48878
2718.62	5.03295
2719.97	5.29629
2721.31	6.32183
2722.65	6.53721
2723.99	6.37107
2725.34	6.60035
2726.68	6.61112
2728.02	6.76678
2729.36	6.93904
2730.7	7.37275
2732.04	7.20884
2733.39	7.09164
2734.73	7.15798
2736.07	7.1007
2737.41	6.70437
2738.75	6.65861
2740.08	6.47986
2741.43	6.40508
2742.76	6.25706
2744.1	6.10052
2745.44	5.7765
2746.78	5.28393
2748.12	4.53116
2749.46	4.03622
2750.79	3.38416
2752.13	3.10074
2753.47	2.42209
2754.81	2.43066
2756.14	2.53385
2757.48	2.05767
2758.81	1.65482
2760.15	1.38036
2761.49	1.63997
2762.82	2.28557
2764.16	1.90955
2765.49	1.2028
2766.83	1.71616
2768.16	1.03062
2769.5	0.791246
2770.83	0.816425
2772.16	1.11174
2773.5	1.07707
2774.83	0.965551
2776.17	0.191845
2777.5	-0.0919204
2778.83	0.109285
2780.16	0.136344
2781.5	0.586777
2782.83	0.637155
2784.16	0.615984
2785.49	0.915258
2786.82	1.10183
2788.15	1.29229
2789.49	0.862845
2790.82	0.622078
2792.15	0.772762
2793.48	0.721484
2794.81	0.960575
2796.14	1.01991
2797.46	0.865062
2798.79	0.73587
2800.12	1.10024
2801.45	1.62313
2802.78	1.75286
2804.11	1.7976
2805.44	1.71553
2806.76	1.07009
2808.09	1.01005
2809.42	0.55363
2810.75	0.24995
2812.07	0.0282244
2813.4	0.031291
2814.73	0.135513
2816.05	0.110467
2817.38	0.849709
2818.7	1.59156
2820.03	2.90924
2821.36	4.38196
2822.68	5.2958
2824.01	6.64981
2825.33	9.01085
2826.65	11.15
2827.98	13.0674
2829.3	15.4241
2830.63	17.6128
2831.95	19.7628
2833.27	22.1314
2834.6	23.8428
2835.92	26.9831
2837.24	29.6378
2838.56	32.429
2839.88	35.2548
2841.21	38.8467
2842.53	42.2682
2843.85	46.1797
2845.17	49.9936
2846.49	54.6498
2847.81	59.3225
2849.13	63.2774
2850.45	67.7212
2851.77	73.614
2853.09	78.9075
2854.41	83.3387
2855.73	88.2516
2857.05	92.3027
2858.37	97.1665
2859.69	101.529
2861	105.591
2862.32	109.614
2863.64	113.63
2864.96	117.496
2866.28	121.511
2867.59	124.993
2868.91	127.686
2870.23	130.308
2871.54	132.884
2872.86	135.83
2874.17	138.804
2875.49	141.373
2876.81	143.719
2878.12	145.745
2879.44	148.178
2880.75	150.072
2882.07	153.111
2883.38	155.114
2884.69	156.952
2886.01	158.484
2887.32	160.18
2888.63	162.161
2889.95	164.547
2891.26	166.378
2892.57	168.305
2893.89	170.043
2895.2	172.456
2896.51	175.215
2897.82	177.577
2899.13	180.518
2900.44	183.771
2901.76	187.378
2903.07	191.164
2904.38	194.502
2905.69	199.813
2907	204.389
2908.31	209.31
2909.62	214.695
2910.93	220.485
2912.24	226.65
2913.55	232.392
2914.85	237.983
2916.16	243.728
2917.47	249.537
2918.78	253.611
2920.09	257.63
2921.4	261.994
2922.7	265.117
2924.01	268.624
2925.32	270.506
2926.62	272.257
2927.93	273.665
2929.24	274.007
2930.54	273.889
2931.85	273.957
2933.15	272.884
2934.46	271.695
2935.76	269.851
2937.07	267.442
2938.37	265.22
2939.68	261.668
2940.98	258.4
2942.29	254.395
2943.59	249.851
2944.89	245.366
2946.2	240.42
2947.5	235.265
2948.8	229.094
2950.11	223.59
2951.41	218.047
2952.71	213.205
2954.01	207.802
2955.32	201.968
2956.62	196.348
2957.92	191.27
2959.22	186.291
2960.52	181.769
2961.82	176.96
2963.12	172.174
2964.42	167.255
2965.72	162.808
2967.02	158.99
2968.32	155.323
2969.62	151.414
2970.92	148.97
2972.22	145.156
2973.51	142.242
2974.81	139.016
2976.11	136.122
2977.41	133.182
2978.71	129.915
2980	126.311
2981.3	123.032
2982.6	119.2
2983.9	115.229
2985.19	111.558
2986.49	107.387
2987.78	103.204
2989.08	98.6341
2990.38	94.3231
2991.67	90.0515
2992.97	86.0037
2994.26	82.0435
2995.56	78.206
2996.85	74.4053
2998.14	70.1653
2999.44	66.5791
3000.73	62.7941
3002.03	59.7051
3003.32	56.7737
3004.61	53.7122
3005.91	50.9721
3007.2	47.7819
3008.49	44.5785
3009.78	41.8053
3011.07	38.9325
3012.37	36.0949
3013.66	34.1701
3014.95	31.7993
3016.24	30.0432
3017.53	28.202
3018.82	26.3534
3020.11	24.8697
3021.4	23.9182
3022.69	23.0071
3023.98	22.3689
3025.27	21.5232
3026.56	20.8069
3027.85	20.5319
3029.14	19.9762
3030.43	20.2287
3031.71	20.3813
3033	20.265
3034.29	20.3844
3035.58	20.704
3036.87	21.4195
3038.15	22.1778
3039.44	23.6422
3040.73	24.2648
3042.01	24.5524
3043.3	25.1522
3044.59	25.7745
3045.87	26.8499
3047.16	27.1705
3048.44	27.8216
3049.73	28.7729
3051.01	29.5217
3052.3	29.7217
3053.58	29.9491
3054.87	30.443
3056.15	30.5284
3057.43	30.9718
3058.72	30.9151
3060	30.6673
3061.29	30.3623
3062.57	30.0351
3063.85	29.8216
3065.13	29.3433
3066.42	29.0378
3067.7	28.3782
3068.98	27.777
3070.26	26.129
3071.54	24.8989
3072.82	23.1058
3074.11	21.6269
3075.39	20.1041
3076.67	18.5513
3077.95	17.177
3079.23	15.1858
3080.51	13.853
3081.79	12.6652
3083.07	11.3194
3084.35	9.79641
3085.63	8.71566
3086.9	7.59318
3088.18	6.91836
3089.46	5.59907
3090.74	4.83572
3092.02	3.9209
3093.29	3.21678
3094.57	2.71051
3095.85	2.27948
3097.13	1.95463
3098.4	1.97295
3099.68	1.8983
3100.95	2.30651
3102.23	2.27564
3103.51	2.48734
3104.78	1.88724
3106.06	1.91008
3107.33	2.14286
3108.61	2.06228
3109.88	2.29282
3111.16	1.9202
3112.43	1.921
3113.71	2.30046
3114.98	2.03672
3116.25	2.02489
3117.53	2.42234
3118.8	2.73717
3120.07	3.05979
3121.35	3.11431
3122.62	3.20765
3123.89	3.22671
3125.16	3.22748
3126.44	3.42695
3127.71	3.74394
3128.98	4.02904
3130.25	4.02867
3131.52	3.79134
3132.79	3.72327
3134.06	3.22954
3135.33	3.41261
3136.6	3.42624
3137.87	3.63204
3139.14	3.78796
3140.41	4.18033
3141.68	4.64869
3142.95	5.05549
3144.22	5.67237
3145.49	6.28942
3146.76	7.35294
3148.02	8.41663
3149.29	9.30078
