#Acq. time (s)=	45
#Accumulations=	2
#Range (cm-¹)=	200...3150
#Windows=	2
#Auto scanning=	Off
#Autofocus=	Off
#Macrospot=	Off
#AutoExposure=	Off
#Spike filter=	Multiple accum.
#Delay time (s)=	0
#Binning=	1
#Readout mode=	Signal
#DeNoise=	Off
#ICS correction=	On
#Dark correction=	Off
#Inst. Process=	Off
#Detector Gain=	Best Dynamic Range
#Detector ADC=	20 kHz       
#Detector temperature (°C)=	-69.85
#Instrument=	LabRAM HR Evol
#Detector=	Synapse
#Objective=	x100
#Grating=	600 gr/mm
#ND Filter=	100%
#Laser (nm)=	532 
#Hole=	100.021
#Range=	Auto
#Laser Pol.=	No
#Raman. Pol.=	No
#Laser Pol. (°)=	-0.0007625
#Raman Pol. (°)=	89.9995
#Collection=	Microscope
#StageXY=	Marzhauser
#StageZ=	Marzhauser
#X (µm)=	-5083.6
#Y (µm)=	1488.5
#Z (µm)=	63.8
#Full time(mm:ss)=	3:15
#Project=	
#Sample=	
#Site=	
#Title=	Thy_50_12_48_2x_45s_532 nm_x100_100%_600 gr_mm
#Remark=	
#Date=	07.07.2022 12:49
#Acquired=	07.07.2022 12:49:20
#Base:Fit=	10.08.2022 10:04:30
#Base:Sub=	10.08.2022 10:04:45
#Filter:Polynom=	16.08.2022 10:20:25
#AxisType[0]=Intens
#AxisUnit[0]=Cnt
#AxisType[1]=Spectr
#AxisUnit[1]=1/cm
200.43	-1.39379
202.246	-0.395999
204.061	0.535401
205.875	1.69337
207.688	3.29311
209.501	4.65101
211.316	5.49314
213.129	7.38773
214.941	8.11717
216.753	8.27951
218.566	7.92789
220.377	9.45967
222.188	8.99771
223.999	9.57316
225.809	10.0362
227.618	10.4865
229.43	11.2579
231.239	10.9772
233.047	10.8704
234.855	11.0673
236.663	11.7896
238.471	11.1304
240.278	10.2252
242.087	11.3304
243.894	11.8368
245.7	12.3338
247.506	12.7441
249.311	13.0271
251.116	13.3594
252.921	12.9751
254.725	12.9613
256.529	12.246
258.333	11.8883
260.136	11.9819
261.939	11.8267
263.744	12.5407
265.546	12.2713
267.348	11.9868
269.15	12.5092
270.951	12.1736
272.752	12.6458
274.552	12.4188
276.353	12.1406
278.152	12.8191
279.952	12.544
281.751	12.4993
283.55	13.2057
285.348	12.9062
287.146	12.7251
288.942	13.8748
290.739	14.4228
292.536	14.786
294.333	15.5015
296.129	16.3966
297.925	17.0356
299.721	16.9336
301.516	17.1253
303.311	18.4346
305.106	18.0862
306.9	18.7333
308.694	19.5767
310.486	20.8724
312.279	19.7342
314.072	20.3308
315.864	20.3186
317.656	20.8178
319.448	20.8094
321.24	21.0735
323.029	21.1251
324.819	22.0311
326.61	22.2967
328.4	21.7242
330.19	22.0572
331.977	23.5465
333.766	23.3672
335.555	22.2263
337.343	21.8316
339.131	21.0731
340.917	21.5299
342.704	21.3839
344.491	21.5723
346.277	21.8197
348.062	22.2987
349.848	22.4886
351.633	22.2193
353.416	22.4969
355.201	22.0779
356.986	20.8871
358.77	19.8623
360.552	17.9942
362.335	17.3554
364.118	16.801
365.899	15.8594
367.682	15.1546
369.464	15.6061
371.243	15.4805
373.025	14.7883
374.806	13.461
376.585	13.3238
378.365	13.4317
380.143	13.1211
381.923	12.9157
383.702	12.956
385.479	12.3812
387.258	11.4708
389.034	10.4237
390.812	10.0564
392.59	10.2347
394.365	9.71234
396.142	9.20695
397.916	8.66998
399.693	7.84051
401.467	6.67997
403.242	6.29852
405.015	6.39811
406.79	6.53689
408.565	6.56314
410.337	7.27061
412.111	7.31333
413.882	8.00202
415.656	7.43231
417.426	7.96602
419.197	8.61659
420.969	9.53723
422.739	9.89867
424.51	9.9987
426.279	11.5114
428.05	12.1081
429.819	13.1086
431.589	12.8315
433.356	14.2489
435.124	15.3732
436.893	15.2086
438.66	15.6457
440.428	16.925
442.194	16.8512
443.96	16.3782
445.727	16.6011
447.492	17.6599
449.259	18.6184
451.023	20.2703
452.787	20.7515
454.553	20.3241
456.316	20.9448
458.079	21.5931
459.844	22.2644
461.606	22.9937
463.368	23.9262
465.132	24.3379
466.893	24.7054
468.654	24.7718
470.415	24.6261
472.177	24.8428
473.937	24.4428
475.696	24.4826
477.456	24.5517
479.217	24.7965
480.975	24.6669
482.733	24.6078
484.491	24.1062
486.251	24.3206
488.008	23.4194
489.765	24.2446
491.522	24.2574
493.278	25.4498
495.036	25.8465
496.791	26.364
498.546	26.243
500.301	26.365
502.056	25.1793
503.81	25.2437
505.566	25.5289
507.319	25.2405
509.073	24.8672
510.825	24.7054
512.578	24.2171
514.33	23.3579
516.082	23.2592
517.833	22.747
519.587	22.3878
521.337	22.6009
523.088	22.3037
524.838	21.8445
526.588	21.8407
528.337	21.4506
530.087	19.98
531.835	20.6468
533.584	20.883
535.332	21.1064
537.08	19.9594
538.827	19.7179
540.574	17.8413
542.321	17.1638
544.068	17.2807
545.814	17.8914
547.56	17.2479
549.305	16.0361
551.05	15.6903
552.795	15.5227
554.54	15.2987
556.284	14.6756
558.027	14.3348
559.771	13.8102
561.514	13.1063
563.257	12.495
564.999	11.2312
566.742	10.9189
568.481	10.1931
570.223	10.0119
571.964	9.17657
573.705	10.5429
575.445	9.50587
577.185	9.88447
578.925	9.09226
580.665	8.74412
582.402	8.00659
584.141	7.33594
585.879	5.71792
587.617	5.68394
589.355	5.06698
591.092	5.64264
592.828	5.18992
594.564	5.50438
596.301	5.5361
598.037	5.68715
599.773	5.34661
601.506	5.62025
603.242	6.56439
604.976	6.41987
606.711	6.44709
608.443	7.07741
610.177	7.79103
611.91	6.94065
613.644	7.80816
615.374	9.13952
617.107	8.00621
618.839	8.19902
620.569	8.16338
622.3	7.90136
624.032	7.71395
625.761	8.91811
627.491	8.90184
629.221	10.6112
630.949	10.508
632.679	11.8076
634.408	11.4497
636.135	13.4559
637.863	15.1778
639.592	15.982
641.318	15.6545
643.045	15.8412
644.77	16.5623
646.497	16.0389
648.224	16.6479
649.948	17.1036
651.674	17.2039
653.398	18.955
655.123	20.0612
656.846	20.48
658.57	21.4527
660.293	22.8742
662.017	22.491
663.738	22.1452
665.462	22.2573
667.185	21.7543
668.905	22.1423
670.628	21.8788
672.348	21.8629
674.067	22.7907
675.789	23.2109
677.508	24.3377
679.228	24.7229
680.947	26.1668
682.667	27.3282
684.385	27.3843
686.104	27.184
687.821	27.9196
689.538	28.092
691.256	28.352
692.972	28.1166
694.69	28.8753
696.406	29.5984
698.121	28.9488
699.837	30.5609
701.552	30.5496
703.268	29.304
704.982	30.5281
706.695	31.3966
708.41	31.9205
710.123	32.3023
711.836	32.4298
713.55	32.4903
715.262	32.923
716.973	33.161
718.685	34.582
720.398	34.9962
722.108	37.234
723.818	37.5409
725.53	37.8777
727.24	38.1225
728.949	39.6956
730.658	41.2196
732.369	42.603
734.077	43.7367
735.785	44.6295
737.493	45.4267
739.2	47.121
740.909	48.424
742.616	48.4154
744.322	49.5799
746.028	49.9974
747.734	50.9129
749.441	51.6717
751.146	53.4839
752.851	55.1063
754.555	56.2485
756.26	58.0475
757.963	59.6161
759.667	61.2794
761.372	63.1014
763.075	65.2221
764.777	65.3635
766.479	67.2843
768.181	67.9907
769.883	68.3694
771.584	69.4835
773.285	71.2893
774.986	71.8294
776.686	72.4109
778.386	73.1489
780.085	73.5018
781.785	74.7916
783.484	74.4201
785.182	75.7085
786.881	75.5588
788.579	75.2304
790.276	76.3616
791.974	77.0471
793.671	77.7279
795.367	76.8355
797.064	77.6749
798.76	78.1111
800.456	77.8453
802.151	78.5241
803.846	77.7547
805.541	78.1422
807.236	78.52
808.93	78.0399
810.624	78.5433
812.317	78.1061
814.01	77.2885
815.703	76.7163
817.394	76.4641
819.086	75.6212
820.778	75.2649
822.47	75.7195
824.161	75.9463
825.852	75.4616
827.543	74.4107
829.231	74.7713
830.921	74.1316
832.611	73.8712
834.3	72.0555
835.989	71.792
837.676	71.6464
839.364	69.9937
841.053	69.3205
842.74	67.9209
844.426	66.9769
846.113	66.4535
847.8	65.2361
849.486	64.1743
851.171	63.6687
852.857	61.9232
854.542	60.7992
856.227	59.4199
857.911	58.1509
859.595	56.8432
861.279	55.9215
862.961	55.6175
864.645	55.3818
866.329	55.5863
868.01	54.4456
869.692	53.8935
871.375	53.3347
873.055	52.9137
874.737	53.743
876.418	53.5322
878.097	52.1763
879.778	51.0568
881.457	51.227
883.137	49.6463
884.817	49.9275
886.495	51.5038
888.174	51.117
889.851	52.6565
891.53	52.8074
893.206	52.2059
894.884	51.7278
896.562	51.3845
898.237	51.9284
899.914	52.8457
901.589	53.2935
903.265	53.5841
904.94	53.2377
906.615	53.9769
908.289	52.422
909.964	51.6568
911.637	50.6864
913.31	49.5089
914.984	47.8991
916.656	47.5209
918.33	46.9233
920.001	46.699
921.674	45.3535
923.345	42.9252
925.015	42.4921
926.687	42.2092
928.357	40.9204
930.028	39.6404
931.698	37.2859
933.366	36.4119
935.037	34.8279
936.705	33.5212
938.373	33.0993
940.043	32.7954
941.71	31.3206
943.379	30.2285
945.046	29.0792
946.712	29.1809
948.378	28.9236
950.046	28.8202
951.711	29.1914
953.376	29.0266
955.043	29.2461
956.708	29.1419
958.372	29.2037
960.036	27.5291
961.701	26.6165
963.364	26.6277
965.027	27.3329
966.69	27.9497
968.354	30.3158
970.016	30.6136
971.678	31.3056
973.339	31.3879
975	31.3191
976.661	31.7638
978.324	32.7232
979.984	33.8521
981.644	34.9976
983.303	35.1767
984.962	35.8296
986.621	36.4556
988.282	35.756
989.94	36.1113
991.598	35.3111
993.256	35.8534
994.913	35.1789
996.57	34.6131
998.227	34.7231
999.884	35.0043
1001.54	34.2168
1003.2	32.7311
1004.85	32.0211
1006.51	30.3143
1008.16	30.5005
1009.82	29.6558
1011.47	28.9783
1013.12	29.9831
1014.78	30.5585
1016.43	31.0478
1018.08	31.1936
1019.74	30.8724
1021.39	31.967
1023.04	32.7192
1024.69	32.6869
1026.34	34.0364
1028	34.3087
1029.65	35.8649
1031.3	36.1456
1032.95	36.6155
1034.6	35.9776
1036.25	35.4373
1037.9	35.1675
1039.55	35.5273
1041.19	34.8939
1042.84	35.4128
1044.49	35.3888
1046.14	35.6924
1047.79	36.3254
1049.43	36.8061
1051.08	37.0998
1052.73	35.5866
1054.37	35.4493
1056.02	33.4378
1057.66	33.9421
1059.31	33.748
1060.95	32.8003
1062.6	32.284
1064.24	30.9089
1065.88	29.8181
1067.53	28.5411
1069.17	27.1315
1070.81	25.4466
1072.46	25.4026
1074.1	23.902
1075.74	22.5848
1077.38	20.1873
1079.02	18.4563
1080.66	17.9701
1082.3	17.0413
1083.94	15.6767
1085.58	13.7066
1087.22	12.7487
1088.86	13.0471
1090.5	13.1281
1092.14	12.921
1093.78	13.0765
1095.42	13.247
1097.05	12.3816
1098.69	12.4049
1100.33	12.3219
1101.97	12.4726
1103.6	13.3563
1105.24	13.1996
1106.87	13.0254
1108.51	12.2794
1110.15	11.6348
1111.78	12.7025
1113.41	11.7639
1115.05	11.3847
1116.68	11.5177
1118.31	11.1162
1119.95	9.83584
1121.58	10.2607
1123.21	9.6682
1124.85	9.31611
1126.48	8.86049
1128.11	8.28282
1129.74	7.25882
1131.37	7.34543
1133	6.4962
1134.63	5.22658
1136.26	4.90207
1137.89	3.51543
1139.52	4.28447
1141.15	3.55033
1142.78	2.94908
1144.41	3.05149
1146.04	2.58238
1147.66	2.6056
1149.29	1.86403
1150.92	1.56916
1152.55	1.62485
1154.17	1.31446
1155.8	-0.053043
1157.43	0.581732
1159.05	1.05944
1160.68	2.10517
1162.3	3.31753
1163.93	2.94451
1165.55	2.90107
1167.17	3.24163
1168.8	4.01175
1170.42	4.9669
1172.05	4.36076
1173.67	4.40055
1175.29	4.99401
1176.91	5.12856
1178.54	5.6145
1180.16	5.0139
1181.78	4.89099
1183.4	4.83621
1185.02	5.3886
1186.64	5.9226
1188.26	6.03919
1189.88	6.30351
1191.5	7.16318
1193.12	6.94371
1194.74	7.00496
1196.36	7.5653
1197.97	8.13091
1199.59	8.02011
1201.21	8.38038
1202.83	10.9885
1204.44	10.8341
1206.06	11.5372
1207.68	13.1157
1209.29	13.7497
1210.91	15.0867
1212.52	17.4878
1214.14	18.1798
1215.75	18.2999
1217.37	19.4594
1218.98	20.1689
1220.6	21.5019
1222.21	22.5757
1223.82	24.0309
1225.44	24.9228
1227.05	26.1986
1228.66	26.5829
1230.27	27.6524
1231.88	28.9502
1233.49	30.659
1235.1	32.3119
1236.72	34.0475
1238.33	35.915
1239.94	37.1044
1241.55	38.1639
1243.16	38.7369
1244.76	39.2197
1246.37	40.2319
1247.98	40.5997
1249.59	40.4617
1251.2	41.2357
1252.8	41.0715
1254.41	41.2143
1256.02	42.6305
1257.63	42.4166
1259.23	42.8722
1260.84	43.9034
1262.44	44.4531
1264.05	44.6523
1265.66	45.9547
1267.26	46.212
1268.87	46.4456
1270.47	48.0803
1272.07	48.6222
1273.68	50.2742
1275.28	52.488
1276.88	52.8946
1278.48	54.4382
1280.09	56.2277
1281.69	58.0293
1283.29	59.7829
1284.89	60.5644
1286.49	63.4807
1288.09	64.2773
1289.69	65.2547
1291.3	65.6945
1292.9	66.5961
1294.49	65.8346
1296.09	65.6808
1297.69	66.9148
1299.29	66.5808
1300.89	66.1915
1302.49	67.5468
1304.09	67.8477
1305.68	68.1194
1307.28	68.5876
1308.88	68.0697
1310.47	69.7244
1312.07	70.4218
1313.66	70.3874
1315.26	70.8593
1316.86	70.5942
1318.45	70.6829
1320.05	71.3423
1321.64	71.1125
1323.23	70.5538
1324.83	69.8897
1326.42	68.9117
1328.01	68.5793
1329.61	68.7717
1331.2	68.2698
1332.79	67.096
1334.38	66.292
1335.98	65.4371
1337.57	64.0158
1339.16	63.0223
1340.75	62.6749
1342.34	60.8698
1343.93	60.0093
1345.52	59.2201
1347.11	58.5296
1348.7	58.3091
1350.29	57.9391
1351.87	56.4854
1353.46	56.7383
1355.05	55.9006
1356.64	55.6826
1358.23	55.4468
1359.81	54.1524
1361.4	53.7358
1362.99	53.0448
1364.57	52.1837
1366.16	51.502
1367.74	49.3484
1369.33	48.2648
1370.91	47.7065
1372.5	46.6842
1374.08	45.3364
1375.67	44.8696
1377.25	44.7179
1378.83	44.7037
1380.42	44.7959
1382	45.9962
1383.58	45.683
1385.16	45.4061
1386.75	44.632
1388.33	44.9315
1389.91	44.6902
1391.49	43.573
1393.07	43.0574
1394.65	42.5941
1396.23	42.5966
1397.81	42.8721
1399.39	42.9025
1400.97	42.3636
1402.55	41.7136
1404.13	40.938
1405.7	40.998
1407.28	41.539
1408.86	41.5384
1410.44	41.9297
1412.01	42.3449
1413.59	42.8234
1415.17	42.985
1416.74	44.1173
1418.32	45.0159
1419.89	47.658
1421.47	49.6032
1423.05	50.733
1424.62	52.9439
1426.19	55.1658
1427.77	57.2432
1429.34	60.1568
1430.92	62.8194
1432.49	66.0121
1434.06	68.4096
1435.63	69.8471
1437.2	70.4866
1438.78	73.5362
1440.35	75.543
1441.92	77.1236
1443.49	78.7326
1445.06	79.2305
1446.63	80.3182
1448.2	81.8298
1449.77	83.0306
1451.34	82.7276
1452.91	82.6406
1454.48	83.1245
1456.05	83.5544
1457.62	83.1802
1459.18	81.8754
1460.75	80.1475
1462.32	77.7436
1463.89	75.9583
1465.45	73.4206
1467.02	70.9026
1468.59	67.7437
1470.15	65.653
1471.72	63.753
1473.28	60.7415
1474.85	58.3846
1476.41	55.2074
1477.98	51.3007
1479.54	47.7502
1481.11	44.8
1482.67	42.4645
1484.23	40.3363
1485.8	37.9622
1487.36	35.3863
1488.92	32.3662
1490.48	29.7309
1492.05	28.3069
1493.61	26.8815
1495.17	25.2355
1496.73	24.1269
1498.29	23.3149
1499.85	21.4032
1501.41	19.7936
1502.97	19.4677
1504.53	19.6103
1506.09	19.7054
1507.65	19.4107
1509.2	18.4136
1510.76	17.7319
1512.32	17.0326
1513.88	15.6631
1515.44	15.7219
1516.99	16.9887
1518.55	16.7037
1520.1	17.5427
1521.66	18.2556
1523.22	18.3143
1524.77	20.5966
1526.33	20.9636
1527.88	21.0506
1529.44	21.9049
1530.99	23.5243
1532.55	24.9291
1534.1	25.8672
1535.65	26.0062
1537.21	27.5568
1538.76	28.4673
1540.31	29.7138
1541.86	31.2482
1543.42	33.2594
1544.97	36.1366
1546.52	39.1172
1548.07	41.5067
1549.62	43.2397
1551.17	44.6815
1552.72	46.6523
1554.27	48.5732
1555.82	49.9825
1557.37	52.9612
1558.92	55.4205
1560.47	56.6275
1562.02	57.5391
1563.57	59.0581
1565.11	61.0136
1566.66	62.2263
1568.21	64.4117
1569.75	65.6888
1571.3	66.1913
1572.85	66.8035
1574.39	69.0559
1575.94	70.606
1577.49	72.0278
1579.03	72.0688
1580.58	73.1123
1582.12	73.7947
1583.67	73.4401
1585.21	72.7808
1586.75	72.4047
1588.3	71.8151
1589.84	71.782
1591.38	72.2236
1592.93	73.5387
1594.47	74.0307
1596.01	74.2517
1597.55	74.083
1599.09	73.5568
1600.63	72.0733
1602.18	71.1152
1603.72	69.1809
1605.26	68.9328
1606.8	67.7143
1608.34	66.625
1609.87	65.5848
1611.41	65.2344
1612.95	65.7075
1614.49	66.1404
1616.03	66.0887
1617.57	66.2192
1619.11	67.3104
1620.64	68.8576
1622.18	69.5388
1623.72	69.4574
1625.25	68.7184
1626.79	68.9439
1628.32	69.79
1629.86	70.9062
1631.4	71.8981
1632.93	73.0478
1634.47	74.7133
1636	74.4488
1637.53	75.0801
1639.07	75.5508
1640.6	76.4142
1642.14	77.3648
1643.67	78.3573
1645.2	79.5428
1646.73	80.5451
1648.27	81.3898
1649.8	82.189
1651.33	82.9185
1652.86	83.57
1654.39	83.0336
1655.92	81.7193
1657.45	82.3389
1658.98	81.5637
1660.51	80.1912
1662.04	79.8568
1663.57	79.5392
1665.1	79.1701
1666.63	79.1736
1668.16	77.7748
1669.69	76.4767
1671.21	74.3412
1672.74	71.8049
1674.27	69.4194
1675.79	66.5519
1677.32	63.823
1678.85	61.0249
1680.37	58.6271
1681.9	56.3348
1683.42	53.4291
1684.95	51.0308
1686.47	48.0231
1688	45.7401
1689.52	43.6786
1691.05	41.301
1692.57	39.1493
1694.1	36.9763
1695.62	35.4822
1697.14	34.2124
1698.66	32.017
1700.19	29.4691
1701.71	27.9137
1703.23	27.2222
1704.75	26.029
1706.27	24.0363
1707.79	22.3619
1709.32	21.6044
1710.83	20.0675
1712.35	18.5924
1713.88	18.1398
1715.39	16.9858
1716.91	16.9688
1718.43	16.9045
1719.95	16.7791
1721.47	15.8186
1722.99	15.3058
1724.5	14.6482
1726.02	14.5087
1727.54	15.1284
1729.06	14.9447
1730.57	13.8019
1732.09	13.4368
1733.61	13.7663
1735.12	13.6567
1736.64	13.5345
1738.15	14.089
1739.67	13.7825
1741.18	13.521
1742.7	12.8236
1744.21	12.0199
1745.72	12.1817
1747.24	11.2005
1748.75	10.637
1750.26	11.0227
1751.78	10.3302
1753.29	9.46916
1754.8	9.15169
1756.31	9.65221
1757.82	8.90401
1759.34	8.96387
1760.85	8.54302
1762.36	8.57027
1763.87	8.79845
1765.38	8.98513
1766.89	9.22964
1768.4	8.7649
1769.91	8.96356
1771.41	9.22708
1772.92	8.93954
1774.43	8.17108
1775.94	8.24066
1777.45	8.51155
1778.96	8.24642
1780.46	7.80646
1781.97	7.66947
1783.48	8.28274
1784.98	8.97775
1786.49	8.81755
1788	8.94685
1789.5	9.09121
1791.01	9.14864
1792.51	9.50989
1794.01	9.34485
1795.52	9.81648
1797.02	9.58385
1798.53	9.75531
1800.03	9.95823
1801.54	9.95551
1803.04	9.62756
1804.54	8.46302
1806.04	7.75148
1807.54	7.63971
1809.05	7.33816
1810.55	6.75522
1812.05	6.69549
1813.55	6.6568
1815.05	6.42309
1816.55	6.35536
1818.05	5.94392
1819.55	6.02841
1821.05	5.73576
1822.55	5.18994
1824.05	5.27371
1825.55	5.01587
1827.05	4.55714
1828.55	4.14757
1830.04	3.93386
1831.54	3.72139
1833.04	3.35707
1834.54	3.4072
1836.03	2.75257
1837.53	2.3994
1839.03	2.66845
1840.52	2.87115
1842.02	2.6583
1843.51	2.24699
1845.01	2.17151
1846.5	2.09023
1848	1.99987
1849.49	2.38007
1850.99	3.06376
1852.48	2.94524
1853.97	3.28451
1855.47	3.58163
1856.96	4.23818
1858.45	4.21945
1859.94	4.97863
1861.44	4.87778
1862.93	5.54667
1864.42	5.68137
1865.91	5.1474
1867.4	5.23089
1868.89	5.61784
1870.38	6.53374
1871.87	5.98947
1873.36	6.30862
1874.85	6.28594
1876.34	6.37292
1877.83	6.95864
1879.32	6.56004
1880.81	7.13566
1882.3	7.15128
1882.56	7.09631
1884.06	7.7924
1885.55	8.33554
1887.04	7.82746
1888.54	7.25355
1890.03	6.31678
1891.52	5.98679
1893.02	6.32053
1894.51	6.05651
1896	5.11365
1897.49	4.88807
1898.99	4.46905
1900.48	3.99351
1901.97	4.14199
1903.46	3.84809
1904.95	4.62383
1906.44	4.61775
1907.93	3.6773
1909.42	3.39354
1910.91	2.69317
1912.4	3.07064
1913.89	2.03636
1915.38	1.78514
1916.86	1.05841
1918.35	0.423828
1919.84	0.209876
1921.33	0.379136
1922.82	1.34835
1924.3	1.72781
1925.79	1.11691
1927.28	1.09868
1928.76	0.845533
1930.25	0.770207
1931.74	0.424759
1933.22	1.05341
1934.71	1.07736
1936.19	1.68286
1937.67	0.957074
1939.16	1.43913
1940.64	2.14948
1942.13	2.85264
1943.61	3.04812
1945.09	3.18703
1946.58	3.84933
1948.06	4.62197
1949.54	5.19491
1951.03	5.40445
1952.51	4.91909
1953.99	5.67936
1955.47	5.24449
1956.95	5.64747
1958.43	5.49311
1959.91	4.88438
1961.39	4.36101
1962.87	4.46274
1964.35	4.60795
1965.83	5.59942
1967.31	5.34283
1968.79	4.73995
1970.27	4.75106
1971.75	5.49117
1973.22	5.80593
1974.7	5.61312
1976.18	5.21447
1977.66	4.92703
1979.13	4.86833
1980.61	4.52139
1982.09	3.76747
1983.56	3.81385
1985.04	4.07401
1986.52	4.00151
1987.99	4.06577
1989.47	3.87161
1990.94	4.25415
1992.41	4.88917
1993.89	5.49151
1995.36	5.53556
1996.84	5.26777
1998.31	5.01983
1999.78	4.53925
2001.26	4.78802
2002.73	5.76615
2004.2	6.14646
2005.67	6.18949
2007.15	6.8261
2008.62	6.61603
2010.09	6.73542
2011.56	6.64646
2013.03	6.72677
2014.5	6.56402
2015.97	6.99823
2017.44	6.75411
2018.91	7.11607
2020.38	7.57319
2021.85	7.96398
2023.32	7.8658
2024.79	8.27657
2026.25	7.82417
2027.72	7.56459
2029.19	7.25952
2030.66	8.19008
2032.13	8.53682
2033.59	8.90382
2035.06	9.0292
2036.53	9.78304
2037.99	9.78226
2039.46	10.1779
2040.92	9.88154
2042.39	10.5516
2043.85	11.5117
2045.32	11.6587
2046.78	11.5542
2048.25	11.484
2049.71	12.0186
2051.18	13.4424
2052.64	13.6778
2054.1	14.5811
2055.56	14.897
2057.03	15.969
2058.49	16.8291
2059.95	17.0688
2061.42	18.4322
2062.88	18.4098
2064.34	18.9737
2065.8	18.8813
2067.26	19.3986
2068.72	19.5427
2070.18	20.0592
2071.64	20.5588
2073.1	21.1167
2074.56	21.9452
2076.02	22.7731
2077.48	22.9558
2078.94	22.9297
2080.39	23.4867
2081.85	23.1739
2083.31	23.3023
2084.77	24.0248
2086.22	24.8818
2087.68	25.9039
2089.14	26.8917
2090.6	27.5344
2092.05	28.4171
2093.51	29.1923
2094.96	30.106
2096.42	31.3176
2097.87	32.0544
2099.33	32.7454
2100.78	34.0959
2102.24	35.9855
2103.69	37.0404
2105.15	37.9882
2106.6	39.1287
2108.05	41.0599
2109.51	42.546
2110.96	44.1279
2112.41	46.0811
2113.86	46.8892
2115.32	48.0274
2116.77	50.1143
2118.22	51.3112
2119.67	52.9951
2121.12	54.8315
2122.57	56.7552
2124.02	58.5321
2125.47	60.0116
2126.92	62.2723
2128.37	64.3514
2129.82	66.2825
2131.27	68.1719
2132.72	70.0246
2134.17	71.5662
2135.62	73.126
2137.06	74.6155
2138.51	76.6036
2139.96	77.9852
2141.41	79.3263
2142.85	80.9794
2144.3	82.3206
2145.75	84.1645
2147.19	85.5703
2148.64	87.441
2150.09	88.8891
2151.53	90.3425
2152.97	91.6866
2154.42	92.8905
2155.86	94.1756
2157.31	96.0462
2158.75	96.5044
2160.2	96.4995
2161.64	97.6762
2163.08	98.1591
2164.53	98.6915
2165.97	99.9396
2167.41	101.049
2168.86	101.393
2170.3	102.11
2171.74	103.459
2173.18	103.322
2174.62	103.036
2176.06	101.833
2177.5	102.214
2178.94	101.543
2180.38	101.044
2181.82	100.312
2183.26	99.4979
2184.7	97.9777
2186.14	96.2233
2187.58	95.4701
2189.02	94.6947
2190.46	93.1452
2191.89	91.989
2193.33	90.0738
2194.77	88.7403
2196.21	87.6769
2197.64	86.3389
2199.08	84.8433
2200.52	83.5919
2201.95	81.5079
2203.39	79.4973
2204.83	77.3858
2206.26	75.4531
2207.7	73.7957
2209.13	71.7287
2210.57	69.7905
2212	67.4406
2213.43	65.5318
2214.87	63.6516
2216.3	61.7063
2217.73	60.4975
2219.17	58.8425
2220.6	56.7183
2222.03	55.0163
2223.47	53.6623
2224.9	51.7087
2226.33	50.4588
2227.76	48.5853
2229.19	47.5059
2230.62	45.8965
2232.05	44.865
2233.49	44.3211
2234.91	42.2783
2236.34	41.6836
2237.77	41.1544
2239.2	39.7174
2240.63	38.4986
2242.06	38.0008
2243.49	36.5688
2244.92	34.4539
2246.35	33.1326
2247.78	32.0223
2249.2	31.5639
2250.63	31.0359
2252.06	30.4745
2253.48	29.4827
2254.91	28.2227
2256.34	27.7208
2257.76	27.2124
2259.19	26.9673
2260.61	26.7313
2262.04	26.3451
2263.46	25.7738
2264.89	25.0932
2266.31	25.5507
2267.74	25.451
2269.16	24.9685
2270.59	24.5319
2272.01	23.9935
2273.43	22.8034
2274.85	22.0881
2276.28	21.483
2277.7	20.8796
2279.12	20.0415
2280.54	19.516
2281.97	18.8011
2283.39	18.2952
2284.81	17.6551
2286.23	17.2957
2287.65	17.3113
2289.07	16.8554
2290.49	15.6647
2291.91	14.6157
2293.33	14.4022
2294.75	13.6246
2296.17	13.4423
2297.59	13.1843
2299.01	12.8627
2300.42	13.1005
2301.84	12.989
2303.26	13.5781
2304.68	13.2708
2306.1	12.8961
2307.51	13.4172
2308.93	13.2048
2310.35	13.1093
2311.76	13.3436
2313.18	12.8286
2314.59	12.6843
2316.01	12.4905
2317.43	12.4165
2318.84	12.3444
2320.26	12.4153
2321.67	12.985
2323.08	12.0705
2324.5	11.5137
2325.91	11.4046
2327.33	11.498
2328.74	11.1547
2330.15	11.2097
2331.56	10.4517
2332.98	9.94365
2334.39	9.64946
2335.8	9.12806
2337.21	8.8747
2338.62	8.10311
2340.04	7.17338
2341.45	6.27105
2342.86	5.6469
2344.27	4.8435
2345.68	4.73205
2347.09	4.43298
2348.5	4.41607
2349.91	4.24597
2351.31	3.89633
2352.72	3.21264
2354.13	2.757
2355.54	2.02354
2356.95	1.78541
2358.36	1.45821
2359.76	0.894705
2361.17	0.610228
2362.58	0.256304
2363.98	0.728674
2365.39	1.56507
2366.8	2.66086
2368.21	2.79106
2369.61	3.86197
2371.02	4.46803
2372.42	4.63676
2373.83	4.60604
2375.23	4.07355
2376.64	4.74159
2378.04	4.86536
2379.44	5.30897
2380.85	5.22427
2382.25	5.69842
2383.66	5.80875
2385.06	6.23521
2386.46	6.67933
2387.86	6.68171
2389.26	6.28686
2390.67	6.15406
2392.07	5.83013
2393.47	5.9634
2394.87	6.15154
2396.27	6.88308
2397.67	6.83005
2399.07	6.9342
2400.47	7.40926
2401.87	6.93683
2403.27	6.937
2404.67	6.68916
2406.07	6.68908
2407.47	6.91694
2408.87	7.42965
2410.27	7.84899
2411.67	8.70216
2413.07	8.51528
2414.46	8.62941
2415.86	9.069
2417.26	9.2893
2418.66	9.36363
2420.05	9.13274
2421.45	8.35498
2422.84	8.09527
2424.24	7.98021
2425.64	8.25293
2427.03	8.52523
2428.43	8.76514
2429.82	8.89661
2431.22	9.01419
2432.61	8.26115
2434.01	8.44154
2435.4	8.55409
2436.79	8.78096
2438.19	8.37348
2439.58	8.93969
2440.97	8.34728
2442.37	7.97527
2443.76	7.29902
2445.15	7.01211
2446.54	7.40014
2447.93	7.54043
2449.33	7.34506
2450.72	7.01993
2452.11	7.29526
2453.5	6.54188
2454.89	6.23455
2456.28	6.36518
2457.67	5.34923
2459.06	5.00138
2460.45	5.07192
2461.84	5.47951
2463.23	5.65923
2464.62	5.35309
2466	5.19179
2467.39	5.02521
2468.78	5.07315
2470.17	4.98453
2471.55	4.54986
2472.94	4.58484
2474.33	5.04653
2475.72	5.01437
2477.1	5.22257
2478.49	4.96122
2479.87	4.68326
2481.26	4.31754
2482.65	3.45718
2484.03	3.84217
2485.42	3.39269
2486.8	3.01124
2488.19	2.34629
2489.57	1.76862
2490.95	1.1417
2492.34	1.20214
2493.72	1.41335
2495.1	1.23765
2496.49	0.812619
2497.87	0.179931
2499.25	-0.13397
2500.63	-0.851829
2502.02	-1.46803
2503.4	-1.25947
2504.78	-1.58906
2506.16	-1.14247
2507.54	-1.8099
2508.92	-1.56758
2510.3	-2.30155
2511.68	-2.37733
2513.06	-2.3791
2514.44	-2.03689
2515.82	-1.64998
2517.2	-1.80801
2518.58	-2.67459
2519.96	-2.15002
2521.34	-2.20038
2522.72	-2.45963
2524.1	-1.88831
2525.47	-1.67224
2526.85	-1.48484
2528.23	-0.925012
2529.6	0.242626
2530.98	1.28733
2532.36	1.46233
2533.74	2.19647
2535.11	2.93514
2536.49	3.41809
2537.86	3.21046
2539.24	3.36014
2540.61	3.54571
2541.99	3.69457
2543.36	3.48452
2544.74	3.61433
2546.11	3.93328
2547.49	3.86944
2548.86	4.48915
2550.23	4.57706
2551.61	4.26396
2552.98	4.50475
2554.35	4.13666
2555.72	4.27084
2557.09	3.89983
2558.47	3.90259
2559.84	4.14771
2561.21	4.33686
2562.58	4.55545
2563.95	4.66499
2565.32	4.58598
2566.69	4.13119
2568.06	4.29841
2569.43	3.95207
2570.8	4.3826
2572.17	4.49003
2573.54	4.0207
2574.91	4.14881
2576.28	3.61009
2577.65	4.29874
2579.02	4.10744
2580.39	4.27947
2581.75	4.11666
2583.12	3.95989
2584.49	3.83566
2585.85	3.81456
2587.22	3.68472
2588.59	4.3498
2589.95	4.43628
2591.32	4.6214
2592.68	5.19524
2594.05	5.38831
2595.42	5.93902
2596.78	6.14417
2598.15	6.2894
2599.51	5.52661
2600.88	5.29139
2602.24	5.34183
2603.6	5.46487
2604.97	4.50902
2606.33	4.33267
2607.69	4.24035
2609.06	4.38573
2610.42	4.47754
2611.78	4.03815
2613.14	4.03103
2614.51	3.51256
2615.87	3.06095
2617.23	3.10471
2618.59	3.25657
2619.95	3.12899
2621.31	3.61896
2622.67	3.75176
2624.03	3.89887
2625.39	3.68808
2626.75	3.88759
2628.11	3.91243
2629.47	3.95037
2630.83	3.91725
2632.19	3.68862
2633.55	3.47639
2634.91	2.86484
2636.26	3.09081
2637.62	2.79646
2638.98	3.02616
2640.34	3.48393
2641.69	3.60023
2643.05	3.99337
2644.41	4.55733
2645.76	4.72493
2647.12	4.70299
2648.48	4.77652
2649.83	4.81117
2651.19	4.64412
2652.54	4.79062
2653.9	5.11461
2655.25	5.57055
2656.6	5.8409
2657.96	6.25345
2659.31	6.62625
2660.67	7.05998
2662.02	6.69516
2663.37	6.63849
2664.73	6.71142
2666.08	7.60927
2667.43	8.28459
2668.78	9.15418
2670.14	9.52903
2671.49	9.82774
2672.84	10.1309
2674.19	10.6678
2675.54	10.3466
2676.89	10.7545
2678.24	10.6181
2679.59	10.4734
2680.94	11.0257
2682.29	10.9649
2683.64	11.3914
2684.99	12.1479
2686.34	12.0703
2687.69	12.1164
2689.04	11.9801
2690.39	12.0524
2691.74	11.3509
2693.08	10.9847
2694.43	10.3668
2695.78	10.1933
2697.13	10.7671
2698.47	11.0934
2699.82	10.7552
2701.17	10.2077
2702.51	9.35008
2703.86	9.38035
2705.21	9.41283
2706.55	9.70354
2707.9	10.2041
2709.24	10.1425
2710.58	9.44507
2711.93	8.69659
2713.27	8.10087
2714.62	8.0969
2715.96	7.62079
2717.3	7.51386
2718.65	8.18382
2719.99	8.51809
2721.33	8.04157
2722.68	8.2727
2724.02	8.47151
2725.36	8.54117
2726.71	8.33344
2728.05	8.3985
2729.39	8.08002
2730.73	8.81813
2732.07	9.31085
2733.41	9.84775
2734.75	9.29994
2736.09	9.64824
2737.43	9.44911
2738.77	9.3426
2740.11	8.66607
2741.45	8.73684
2742.79	8.01087
2744.13	8.03326
2745.47	7.85458
2746.81	7.93972
2748.14	7.28682
2749.48	6.36958
2750.82	6.30789
2752.16	5.99346
2753.49	5.83373
2754.83	5.58247
2756.17	4.75892
2757.5	4.57927
2758.84	4.19898
2760.18	4.18679
2761.51	4.10021
2762.85	4.35095
2764.18	4.14936
2765.52	3.04569
2766.85	2.37137
2768.19	1.58026
2769.52	1.67024
2770.86	2.31981
2772.19	2.4766
2773.52	2.19252
2774.86	2.46964
2776.19	1.16709
2777.52	0.361886
2778.86	-0.0244666
2780.19	0.277723
2781.52	0.610349
2782.85	0.970522
2784.19	0.878554
2785.52	0.83301
2786.85	0.0975601
2788.18	0.24935
2789.51	0.781833
2790.84	0.617954
2792.17	-0.221737
2793.5	-0.587396
2794.83	-0.306514
2796.16	-1.02458
2797.49	-0.566907
2798.82	-0.1067
2800.15	-0.119735
2801.48	-0.362601
2802.81	-0.249918
2804.13	-0.681471
2805.46	-1.27289
2806.79	-1.7033
2808.12	-1.38313
2809.45	-3.07767
2810.77	-3.06803
2812.1	-3.14497
2813.43	-3.52439
2814.75	-3.48426
2816.08	-3.06838
2817.41	-2.27873
2818.73	-1.22504
2820.06	0.344952
2821.38	1.44506
2822.71	3.47155
2824.03	6.41049
2825.36	8.88535
2826.68	11.2051
2828	13.6989
2829.33	16.2886
2830.65	18.7641
2831.98	22.0976
2833.3	25.2107
2834.62	28.0019
2835.94	31.5948
2837.27	35.0484
2838.59	37.4651
2839.91	41.0659
2841.23	44.3115
2842.55	46.9869
2843.87	51.3682
2845.2	54.8926
2846.52	58.864
2847.84	63.0492
2849.16	67.0769
2850.48	71.0489
2851.8	75.8166
2853.12	80.3837
2854.44	85.2724
2855.76	89.3734
2857.08	93.6872
2858.39	97.8201
2859.71	102.047
2861.03	106.037
2862.35	109.025
2863.67	113.555
2864.98	116.158
2866.3	118.71
2867.62	121.897
2868.94	123.674
2870.25	125.715
2871.57	127.498
2872.88	129.774
2874.2	131.783
2875.52	133.61
2876.83	136.555
2878.15	138.87
2879.46	140.877
2880.78	143.075
2882.09	144.822
2883.41	147.175
2884.72	149.096
2886.03	151.367
2887.35	153.31
2888.66	156.13
2889.97	158.003
2891.29	159.678
2892.6	161.971
2893.91	164.102
2895.22	166.036
2896.54	167.739
2897.85	170.375
2899.16	172.33
2900.47	175.031
2901.78	177.766
2903.09	180.354
2904.4	183.266
2905.71	187.041
2907.02	190.738
2908.33	194.771
2909.64	199.172
2910.95	203.392
2912.26	208.626
2913.57	214.069
2914.88	218.771
2916.19	223.797
2917.5	229.072
2918.81	233.491
2920.11	237.922
2921.42	241.315
2922.73	244.589
2924.04	247.49
2925.34	249.555
2926.65	251.586
2927.96	253.569
2929.26	255.183
2930.57	254.996
2931.87	255.317
2933.18	255.055
2934.49	254.021
2935.79	253.329
2937.1	251.901
2938.4	250.034
2939.7	248.155
2941.01	245.341
2942.31	242.126
2943.62	238.57
2944.92	234.313
2946.22	229.86
2947.53	226.154
2948.83	222.208
2950.13	217.608
2951.43	213.498
2952.74	209.181
2954.04	203.795
2955.34	198.339
2956.64	193.38
2957.94	187.913
2959.24	182.186
2960.54	176.504
2961.84	171.767
2963.15	167.028
2964.45	162.013
2965.75	157.634
2967.05	152.438
2968.34	147.77
2969.64	143.857
2970.94	140.309
2972.24	136.523
2973.54	132.109
2974.84	127.771
2976.14	123.754
2977.43	119.861
2978.73	115.721
2980.03	111.205
2981.33	107.254
2982.62	102.817
2983.92	98.7565
2985.22	94.1663
2986.51	89.4766
2987.81	84.889
2989.11	80.3178
2990.4	75.629
2991.7	70.6993
2992.99	66.1912
2994.29	61.2726
2995.58	57.2533
2996.88	53.7319
2998.17	49.6845
2999.46	45.9449
3000.76	41.8628
3002.05	38.6489
3003.34	35.8673
3004.64	32.7293
3005.93	29.5337
3007.22	26.9606
3008.52	24.6141
3009.81	22.5402
3011.1	20.5802
3012.39	19.464
3013.68	17.2088
3014.97	15.2611
3016.27	13.3574
3017.56	12.021
3018.85	9.88115
3020.14	9.333
3021.43	8.47826
3022.72	7.98197
3024.01	7.61217
3025.3	7.46005
3026.59	7.34371
3027.88	6.89662
3029.16	6.88183
3030.45	7.04009
3031.74	6.7573
3033.03	7.07882
3034.32	7.78031
3035.6	8.3603
3036.89	8.17197
3038.18	8.04767
3039.47	8.26167
3040.75	9.19397
3042.04	9.7439
3043.33	10.2647
3044.61	10.7059
3045.9	11.2218
3047.18	12.0886
3048.47	12.369
3049.75	11.7005
3051.04	11.5809
3052.32	11.4711
3053.61	11.5848
3054.89	11.6362
3056.18	11.2683
3057.46	11.4861
3058.74	11.6613
3060.03	11.6465
3061.31	11.0647
3062.59	10.3659
3063.88	10.3971
3065.16	9.81267
3066.44	9.68283
3067.72	9.18921
3069	8.58477
3070.29	7.98434
3071.57	7.05359
3072.85	6.19775
3074.13	5.83845
3075.41	4.73033
3076.69	4.10517
3077.97	3.45493
3079.25	2.66767
3080.53	2.07704
3081.81	1.77565
3083.09	1.57426
3084.37	1.77426
3085.65	1.79136
3086.93	1.44721
3088.21	0.723751
3089.49	0.415094
3090.76	0.597519
3092.04	0.643462
3093.32	0.675838
3094.6	0.947408
3095.87	0.751633
3097.15	1.05713
3098.43	1.55673
3099.7	1.89869
3100.98	1.95185
3102.26	2.54682
3103.53	3.277
3104.81	4.12701
3106.08	4.03671
3107.36	4.70593
3108.63	5.27864
3109.91	5.46026
3111.18	6.05279
3112.46	6.1446
3113.73	6.4374
3115	7.22405
3116.28	8.15725
3117.55	8.50652
3118.83	9.02043
3120.1	9.48578
3121.37	10.0215
3122.64	10.6989
3123.92	11.0753
3125.19	11.7875
3126.46	12.5308
3127.73	12.684
3129	13.1203
3130.27	13.839
3131.55	14.198
3132.82	14.4754
3134.09	14.5265
3135.36	15.0562
3136.63	15.91
3137.9	16.9624
3139.17	17.4872
3140.44	18.4912
3141.71	19.4355
3142.98	20.2164
3144.24	21.1097
3145.51	21.7417
3146.78	21.8707
3148.05	22.4954
3149.32	23.0195
