#Acq. time (s)=	45
#Accumulations=	2
#Range (cm-¹)=	200...3150
#Windows=	2
#Auto scanning=	Off
#Autofocus=	Off
#Macrospot=	Off
#AutoExposure=	Off
#Spike filter=	Multiple accum.
#Delay time (s)=	0
#Binning=	1
#Readout mode=	Signal
#DeNoise=	Off
#ICS correction=	On
#Dark correction=	Off
#Inst. Process=	Off
#Detector Gain=	Best Dynamic Range
#Detector ADC=	20 kHz       
#Detector temperature (°C)=	-69.85
#Instrument=	LabRAM HR Evol
#Detector=	Synapse
#Objective=	x100
#Grating=	600 gr/mm
#ND Filter=	100%
#Laser (nm)=	532 
#Hole=	100.021
#Range=	Auto
#Laser Pol.=	No
#Raman. Pol.=	No
#Laser Pol. (°)=	-0.0007625
#Raman Pol. (°)=	89.9995
#Collection=	Microscope
#StageXY=	Marzhauser
#StageZ=	Marzhauser
#X (µm)=	-5916.5
#Y (µm)=	2861.5
#Z (µm)=	-223.25
#Full time(mm:ss)=	3:18
#Project=	
#Sample=	
#Site=	
#Title=	Thy_20_09_40_2x_45s_532 nm_x100_100%_600 gr_mm
#Remark=	
#Date=	29.06.2022 13:28
#Acquired=	29.06.2022 13:28:38
#Base:Fit=	10.08.2022 09:52:02
#Base:Fit=	10.08.2022 09:52:12
#Base:Sub=	10.08.2022 09:54:21
#Filter:Polynom=	16.08.2022 10:24:04
#AxisType[0]=Intens
#AxisUnit[0]=Cnt
#AxisType[1]=Spectr
#AxisUnit[1]=1/cm
200.523	1.92557
202.339	0.501958
204.154	1.35525
205.967	1.77208
207.781	1.43035
209.596	0.885084
211.409	0.321263
213.222	-0.290884
215.034	-0.592728
216.848	-0.401159
218.659	-1.00015
220.47	-1.01274
222.281	-1.06536
224.091	-0.928234
225.903	-0.491271
227.713	-0.711559
229.522	-0.116968
231.331	0.623917
233.14	1.59198
234.948	2.48341
236.756	2.9689
238.566	3.7654
240.373	4.74065
242.18	5.49697
243.986	6.38321
245.792	6.44271
247.598	7.02497
249.403	7.70788
251.208	8.07964
253.013	8.46186
254.818	9.32113
256.624	9.88862
258.427	10.4763
260.231	10.655
262.034	11.1628
263.836	12.5254
265.638	14.2984
267.44	15.181
269.242	14.4287
271.043	14.0078
272.844	14.386
274.645	14.8603
276.445	14.9296
278.245	15.2756
280.044	14.8032
281.843	14.5114
283.642	14.2422
285.44	14.3262
287.238	14.3103
289.036	14.0545
290.833	13.9073
292.63	13.9789
294.425	13.4233
296.221	13.1471
298.017	13.5847
299.813	13.2396
301.608	13.9551
303.403	14.3075
305.198	14.6316
306.992	14.747
308.786	14.2799
310.579	15.2006
312.371	15.2482
314.163	15.4113
315.956	15.8259
317.748	16.0382
319.54	16.8528
321.331	16.9573
323.122	16.6808
324.911	16.6988
326.701	15.961
328.491	15.2424
330.281	15.345
332.071	14.9891
333.857	14.6602
335.646	14.4249
337.434	14.6897
339.222	14.2719
341.008	13.9822
342.795	13.9737
344.582	14.55
346.369	13.9438
348.153	14.3469
349.939	13.9127
351.724	13.6925
353.51	13.4872
355.292	12.5657
357.077	10.8907
358.861	9.93957
360.643	10.3005
362.426	10.0835
364.21	9.81773
365.99	9.31112
367.773	9.20994
369.555	8.53819
371.335	8.04655
373.116	8.24635
374.897	8.17107
376.676	8.57437
378.456	8.82953
380.236	9.18039
382.014	9.386
383.793	9.43453
385.57	9.53137
387.349	10.0808
389.127	9.79575
390.903	10.411
392.681	10.6801
394.456	10.9843
396.233	10.3414
398.007	10.475
399.784	10.8511
401.56	11.1161
403.333	11.5765
405.108	12.3143
406.881	11.7425
408.656	11.1895
410.428	11.0141
412.202	10.6375
413.973	10.7784
415.746	10.7208
417.517	10.7634
419.29	11.5422
421.06	11.4863
422.831	10.9095
424.601	10.5872
426.37	9.81821
428.141	9.52938
429.909	9.28987
431.679	9.22322
433.447	9.04359
435.216	8.71661
436.983	8.323
438.75	7.43314
440.519	7.54015
442.285	7.15617
444.052	7.08236
445.818	6.39658
447.583	6.905
449.349	6.86781
451.114	6.42881
452.878	6.88596
454.643	7.19326
456.407	7.48982
458.169	7.38844
459.934	7.50059
461.696	7.87179
463.458	8.26036
465.222	8.31944
466.983	8.134
468.744	8.32656
470.507	8.506
472.267	9.18014
474.027	9.15214
475.787	9.57434
477.548	9.52489
479.307	11.0372
481.065	11.2259
482.823	11.678
484.583	11.8318
486.341	13.6378
488.098	15.0668
489.855	16.1013
491.612	16.4536
493.37	16.9886
495.126	16.9302
496.881	17.845
498.636	18.6305
500.391	18.2399
502.148	18.3337
503.902	17.9178
505.656	17.3776
507.409	17.4354
509.162	17.581
510.915	17.0454
512.668	17.1577
514.42	17.6627
516.174	17.7533
517.925	17.4273
519.676	17.684
521.427	17.5901
523.178	17.3032
524.928	16.5588
526.678	16.5768
528.427	16.4182
530.176	15.3618
531.925	14.8968
533.673	14.7888
535.422	15.2859
537.169	14.7338
538.917	14.5544
540.664	15.0863
542.411	14.2574
544.157	13.6434
545.903	13.3935
547.649	12.7622
549.395	12.1191
551.14	11.0744
552.884	9.62583
554.629	8.9988
556.373	8.21779
558.117	8.16683
559.86	7.53614
561.603	7.50377
563.346	7.57843
565.089	6.98684
566.831	7.02422
568.573	6.42595
570.314	6.42893
572.053	6.37979
573.794	6.34847
575.534	5.60619
577.274	5.17435
579.014	4.97325
580.754	4.45509
582.493	4.02478
584.23	3.2733
585.968	2.4778
587.706	2.03971
589.444	2.04676
591.181	1.75125
592.919	1.73977
594.653	1.42291
596.39	1.04102
598.126	0.594816
599.862	0.812467
601.595	1.16373
603.33	0.730173
605.065	1.15062
606.8	1.3564
608.532	1.48781
610.266	2.04242
611.999	2.56896
613.732	3.7166
615.463	4.75391
617.196	5.1423
618.928	6.00998
620.66	7.32927
622.389	7.49216
624.12	7.9118
625.851	9.05831
627.58	9.43353
629.31	9.06005
631.04	9.52868
632.767	9.80902
634.497	9.89823
636.223	9.70715
637.952	9.51696
639.68	9.72902
641.406	10.4124
643.134	10.405
644.861	10.9211
646.586	10.3648
648.312	11.0149
650.037	11.0681
651.762	11.3491
653.486	11.2397
655.211	11.0698
656.936	11.6882
658.659	11.9275
660.383	12.2762
662.105	12.7992
663.829	13.4874
665.55	13.3362
667.273	13.2758
668.994	13.154
670.716	13.0089
672.436	12.7966
674.158	12.8605
675.877	12.7457
677.598	12.6948
679.317	13.3369
681.035	13.3128
682.755	13.6878
684.473	14.7683
686.192	15.5865
687.909	16.1546
689.628	16.7931
691.344	17.6842
693.06	18.2199
694.778	19.6849
696.493	20.5517
698.211	21.219
699.925	22.3164
701.64	22.2596
703.356	22.2298
705.07	22.9305
706.783	23.4286
708.498	23.0196
710.211	24.5771
711.924	25.6356
713.638	25.8789
715.35	25.9784
717.061	26.4523
718.774	27.4673
720.485	28.1166
722.196	27.8296
723.906	28.3094
725.618	29.1005
727.328	30.3938
729.037	31.3242
730.746	32.8121
732.456	33.6622
734.165	35.0206
735.873	36.0219
737.58	36.8427
739.289	37.8323
740.997	39.0799
742.703	40.7381
744.41	41.1174
746.116	42.1939
747.823	43.6477
749.529	44.6785
751.234	46.2133
752.938	47.6443
754.643	48.1926
756.347	48.6041
758.051	49.5864
759.756	51.1571
761.459	52.625
763.162	53.1906
764.865	54.2288
766.567	54.175
768.269	55.4436
769.97	56.4265
771.671	56.5344
773.372	56.7964
775.073	57.3085
776.773	58.1178
778.473	59.5765
780.174	60.8189
781.874	61.6035
783.573	62.2234
785.271	62.3875
786.97	62.6406
788.668	63.4632
790.365	64.1804
792.063	64.7969
793.76	65.5741
795.456	67.564
797.153	67.3918
798.847	67.3621
800.543	66.6692
802.238	66.6941
803.933	68.0004
805.628	67.7871
807.322	67.574
809.017	68.3022
810.71	68.8099
812.404	69.3268
814.097	68.9973
815.79	68.4312
817.483	67.9276
819.173	67.632
820.865	67.0399
822.556	66.0452
824.248	65.6532
825.939	64.8418
827.629	64.6245
829.318	64.544
831.008	65.5345
832.697	65.9053
834.387	64.8603
836.076	63.8342
837.765	62.004
839.451	60.6149
841.139	58.9927
842.827	58.5281
844.514	57.6845
846.2	56.7367
847.886	55.0865
849.573	54.7009
851.259	52.7054
852.943	51.4804
854.629	49.6464
856.314	48.318
857.997	48.3858
859.682	48.145
861.366	47.9931
863.05	47.4972
864.732	46.7507
866.415	45.635
868.098	44.9482
869.779	44.5471
871.461	43.7278
873.141	42.8928
874.823	42.4546
876.505	41.4814
878.184	40.3464
879.865	39.5952
881.545	38.7675
883.223	38.7456
884.903	38.8533
886.581	39.5524
888.26	39.7704
889.937	38.4081
891.616	37.2903
893.294	36.888
894.97	36.4714
896.648	36.1741
898.323	35.9113
900	35.3076
901.675	34.9987
903.351	33.5649
905.026	32.5866
906.701	32.4814
908.375	32.9898
910.05	31.9587
911.723	32.0219
913.398	32.0097
915.07	32.5049
916.742	32.1457
918.415	30.9386
920.087	30.8303
921.76	30.0837
923.43	30.2229
925.103	29.8176
926.773	29.8539
928.443	29.8507
930.114	30.1442
931.783	29.443
933.454	29.3715
935.123	28.155
936.791	28.8782
938.461	29.251
940.128	29.723
941.796	30.168
943.464	29.3577
945.131	28.7933
946.797	28.6986
948.465	28.4505
950.131	27.7535
951.797	27.5364
953.462	26.7195
955.128	26.1699
956.793	25.5305
958.457	24.7578
960.121	23.6056
961.786	23.657
963.45	23.3895
965.113	23.7943
966.775	24.0444
968.44	23.5755
970.102	22.109
971.763	21.2099
973.425	21.2216
975.086	20.6524
976.748	20.9768
978.409	20.4307
980.069	20.0563
981.729	19.274
983.388	18.0742
985.048	17.846
986.708	16.4118
988.367	16.452
990.025	16.1907
991.683	15.673
993.341	16.075
994.998	17.0653
996.655	17.4842
998.312	18.487
999.969	18.7258
1001.62	18.3398
1003.28	19.031
1004.94	18.84
1006.59	19.1173
1008.25	19.0381
1009.9	19.2662
1011.56	19.7728
1013.21	19.868
1014.86	18.636
1016.52	18.9636
1018.17	19.3885
1019.82	19.2389
1021.48	18.2122
1023.13	17.053
1024.78	16.2375
1026.43	15.0327
1028.08	15.1236
1029.73	15.0776
1031.38	13.7553
1033.03	13.1249
1034.68	12.3455
1036.33	10.765
1037.98	10.0597
1039.63	8.51799
1041.28	8.50239
1042.93	8.58731
1044.57	8.23125
1046.22	8.14487
1047.87	8.00718
1049.52	7.45456
1051.16	6.63341
1052.81	6.11436
1054.45	6.43856
1056.1	5.44132
1057.75	5.0926
1059.39	4.15205
1061.04	3.50055
1062.68	3.86008
1064.32	3.3991
1065.97	3.44403
1067.61	3.33364
1069.25	2.78589
1070.9	3.48291
1072.54	3.6031
1074.18	4.5416
1075.82	4.93064
1077.47	4.19568
1079.11	4.50658
1080.75	4.83553
1082.39	4.62987
1084.03	4.68166
1085.67	4.61142
1087.31	3.90522
1088.95	3.99156
1090.59	4.84276
1092.22	5.37041
1093.86	5.14963
1095.5	5.09173
1097.14	5.31727
1098.78	6.033
1100.41	5.92114
1102.05	4.90483
1103.69	5.10252
1105.32	5.34444
1106.96	5.61745
1108.59	5.5657
1110.23	6.19732
1111.86	5.63361
1113.5	4.83302
1115.13	5.07888
1116.77	4.79034
1118.4	4.14996
1120.03	5.21201
1121.67	4.79554
1123.3	5.1311
1124.93	4.46528
1126.56	3.92833
1128.19	3.16529
1129.83	2.71627
1131.46	3.06289
1133.09	2.27172
1134.72	2.46203
1136.35	2.77641
1137.98	2.37566
1139.61	4.10692
1141.24	3.57232
1142.86	3.61526
1144.49	3.85751
1146.12	3.52013
1147.75	4.33325
1149.38	3.71381
1151	4.00414
1152.63	3.63118
1154.26	3.68672
1155.88	3.48876
1157.51	2.63577
1159.14	2.33365
1160.76	3.30388
1162.39	2.5563
1164.01	2.98913
1165.63	2.57892
1167.26	2.09685
1168.88	1.86171
1170.51	2.88461
1172.13	3.25525
1173.75	2.8183
1175.38	3.04186
1177	3.57451
1178.62	3.66797
1180.24	4.13528
1181.86	4.00004
1183.48	3.86764
1185.1	4.79949
1186.72	4.85331
1188.34	5.10592
1189.96	5.96994
1191.58	7.20281
1193.2	7.81783
1194.82	8.4468
1196.44	8.96786
1198.06	9.0019
1199.68	8.94919
1201.29	9.66914
1202.91	9.32578
1204.53	9.84979
1206.14	10.8092
1207.76	12.0294
1209.38	12.604
1210.99	13.7746
1212.61	14.9041
1214.22	15.4154
1215.84	17.4677
1217.45	18.5253
1219.07	19.2499
1220.68	20.6819
1222.29	20.6905
1223.91	20.9367
1225.52	22.3051
1227.13	22.917
1228.74	23.63
1230.36	23.345
1231.97	24.0647
1233.58	23.9944
1235.19	23.9616
1236.8	23.0779
1238.41	22.5054
1240.02	23.0431
1241.63	23.9073
1243.24	23.3087
1244.85	24.6687
1246.46	24.3827
1248.07	25.4635
1249.67	25.7641
1251.28	27.1684
1252.89	28.1077
1254.5	28.8766
1256.1	30.1067
1257.71	31.0003
1259.32	31.9763
1260.92	33.5548
1262.53	34.1331
1264.13	36.2075
1265.74	37.7286
1267.34	38.7762
1268.95	39.4804
1270.55	40.8357
1272.15	41.2441
1273.76	42.1962
1275.36	42.098
1276.97	42.1405
1278.57	42.6427
1280.17	43.5485
1281.77	44.6798
1283.37	45.8435
1284.97	46.7891
1286.58	48.2115
1288.18	49.2099
1289.78	48.601
1291.38	49.0024
1292.98	49.6575
1294.58	49.9988
1296.18	50.4705
1297.78	50.7577
1299.37	50.6391
1300.97	50.867
1302.57	50.7393
1304.17	50.2847
1305.77	49.8507
1307.36	49.45
1308.96	49.7423
1310.55	48.7379
1312.15	48.1625
1313.75	47.7299
1315.34	47.8154
1316.94	47.9232
1318.53	48.1402
1320.13	48.7593
1321.72	48.8774
1323.32	48.3301
1324.91	48.4869
1326.5	48.5197
1328.1	48.66
1329.69	48.8279
1331.28	49.8326
1332.87	49.2643
1334.47	48.7727
1336.06	49.4515
1337.65	49.6424
1339.24	49.6644
1340.83	48.724
1342.42	47.8257
1344.01	47.2195
1345.6	45.7467
1347.19	45.2634
1348.78	44.7836
1350.37	45.0443
1351.96	44.125
1353.54	43.9967
1355.13	42.7956
1356.72	42.895
1358.31	42.4386
1359.89	41.9328
1361.48	41.2724
1363.07	41.2115
1364.65	40.3212
1366.24	40.4324
1367.82	39.0826
1369.41	38.0255
1370.99	37.8352
1372.58	36.641
1374.16	36.3024
1375.75	35.3651
1377.33	34.4807
1378.91	33.6779
1380.5	33.4856
1382.08	32.907
1383.66	32.4036
1385.25	31.9738
1386.83	31.9366
1388.41	31.4969
1389.99	30.3047
1391.57	29.5017
1393.15	29.3513
1394.73	29.4398
1396.31	28.6932
1397.89	28.1809
1399.47	27.5356
1401.05	27.0036
1402.63	26.4677
1404.21	26.0305
1405.78	25.9488
1407.36	26.3341
1408.94	26.0744
1410.52	26.0186
1412.1	25.9695
1413.67	26.7856
1415.25	27.5128
1416.82	27.5731
1418.4	28.6537
1419.98	29.0539
1421.55	30.634
1423.13	32.3632
1424.7	34.3877
1426.28	36.7782
1427.85	39.0233
1429.42	40.0629
1431	41.843
1432.57	44.0047
1434.14	45.94
1435.71	47.8986
1437.29	49.0448
1438.86	50.6781
1440.43	51.8739
1442	53.2894
1443.57	54.2976
1445.14	54.8096
1446.71	55.1668
1448.28	55.8838
1449.85	55.9372
1451.42	55.9858
1452.99	56.5424
1454.56	56.5046
1456.13	56.4987
1457.7	56.7522
1459.26	55.6419
1460.83	55.5246
1462.4	54.2926
1463.97	52.8944
1465.54	51.3198
1467.1	49.619
1468.67	48.0944
1470.23	46.2691
1471.8	45.4294
1473.36	43.0033
1474.93	40.3195
1476.49	37.7365
1478.06	35.3784
1479.62	33.8446
1481.19	32.1936
1482.75	30.4956
1484.31	29.3672
1485.88	28.4135
1487.44	25.7408
1489	24.4465
1490.56	22.7996
1492.13	22.1576
1493.69	22.3933
1495.25	22.0104
1496.81	21.3848
1498.37	21.1986
1499.93	21.4867
1501.49	21.2538
1503.05	21.3175
1504.61	21.1082
1506.17	20.5778
1507.73	19.7829
1509.28	19.8719
1510.84	20.0978
1512.4	19.9032
1513.96	19.7052
1515.52	19.2085
1517.07	20.3339
1518.63	20.0277
1520.19	20.4044
1521.74	20.409
1523.3	20.4899
1524.85	20.9797
1526.41	21.2348
1527.96	22.2127
1529.52	23.1595
1531.07	23.7496
1532.63	24.3473
1534.18	25.1476
1535.73	26.0416
1537.29	26.4863
1538.84	28.1511
1540.39	27.6481
1541.94	28.8075
1543.5	29.9069
1545.05	30.9181
1546.6	32.4867
1548.15	33.3159
1549.7	34.2335
1551.25	34.6409
1552.8	36.0124
1554.35	37.2937
1555.9	38.6559
1557.45	39.9071
1559	40.7035
1560.55	41.5769
1562.1	42.5777
1563.65	43.0454
1565.19	43.4254
1566.74	44.6121
1568.29	46.0479
1569.83	47.8461
1571.38	48.4687
1572.93	48.7192
1574.47	49.4457
1576.02	51.0205
1577.56	51.6471
1579.11	52.0218
1580.66	53.147
1582.2	53.2654
1583.74	53.9517
1585.29	54.8029
1586.83	56.4508
1588.38	57.6884
1589.92	57.7713
1591.46	58.3355
1593.01	58.4843
1594.55	59.0321
1596.09	57.6438
1597.63	57.6266
1599.17	57.9098
1600.71	57.1255
1602.25	56.2751
1603.79	55.7371
1605.34	55.4789
1606.88	53.9905
1608.41	52.5115
1609.95	51.6133
1611.49	50.968
1613.03	50.4609
1614.57	48.8377
1616.11	47.548
1617.65	46.1192
1619.18	46.4518
1620.72	46.0827
1622.26	45.561
1623.79	45.1331
1625.33	43.9706
1626.87	43.8699
1628.4	43.3619
1629.94	43.1295
1631.48	42.1776
1633.01	41.4834
1634.55	41.26
1636.08	40.7525
1637.61	40.9955
1639.15	40.9115
1640.68	40.4262
1642.21	40.5464
1643.75	40.6816
1645.28	40.885
1646.81	41.2114
1648.34	40.8056
1649.88	41.5648
1651.41	42.445
1652.94	42.8788
1654.47	43.1035
1656	43.0438
1657.53	43.628
1659.06	43.5678
1660.59	44.1271
1662.12	44.61
1663.65	45.0355
1665.18	43.9977
1666.71	43.3598
1668.24	42.6947
1669.76	42.5533
1671.29	41.5679
1672.82	40.4317
1674.35	39.626
1675.87	38.9559
1677.4	37.3158
1678.93	36.3871
1680.45	34.9842
1681.98	33.3778
1683.5	31.311
1685.03	30.053
1686.55	28.5927
1688.08	27.535
1689.6	26.214
1691.13	24.0692
1692.65	23.2348
1694.17	22.0623
1695.7	20.9949
1697.22	19.441
1698.74	18.1392
1700.27	16.7523
1701.79	15.5317
1703.31	14.3247
1704.83	12.705
1706.35	12.1735
1707.87	11.0671
1709.39	10.8762
1710.91	10.1996
1712.43	9.76722
1713.95	9.72691
1715.47	8.54159
1716.99	7.42292
1718.51	6.91589
1720.03	6.11553
1721.55	5.55879
1723.07	5.02598
1724.58	4.67216
1726.1	4.51961
1727.62	4.19771
1729.13	3.6791
1730.65	3.64256
1732.17	3.74378
1733.68	3.81702
1735.2	3.63422
1736.72	3.84709
1738.23	4.10855
1739.74	3.6592
1741.26	3.20314
1742.77	3.51106
1744.29	3.65123
1745.8	3.88249
1747.32	3.1528
1748.83	3.00143
1750.34	3.03
1751.85	3.04487
1753.37	2.38545
1754.88	1.83974
1756.39	1.72505
1757.9	0.994009
1759.41	0.682854
1760.92	0.660877
1762.44	0.841772
1763.95	0.995694
1765.46	0.598038
1766.96	0.0113881
1768.47	-0.29331
1769.98	-0.790233
1771.49	-0.772287
1773	-0.714021
1774.51	-0.432594
1776.02	-0.339599
1777.53	-0.399188
1779.03	-0.145792
1780.54	0.639539
1782.05	0.991273
1783.55	0.64306
1785.06	0.894097
1786.57	0.975354
1788.07	1.29289
1789.58	0.820006
1791.08	0.575702
1792.59	0.567721
1794.09	0.464066
1795.6	0.221614
1797.1	0.437035
1798.61	0.904574
1800.11	1.19076
1801.61	1.21318
1803.12	1.85104
1804.62	2.10746
1806.12	2.17815
1807.62	2.42119
1809.12	2.28244
1810.63	2.17199
1812.13	2.08887
1813.63	2.06865
1815.13	1.83764
1816.63	2.36519
1818.13	2.4132
1819.63	2.34417
1821.13	2.48596
1822.63	2.74655
1824.13	2.63629
1825.63	3.18573
1827.13	3.01767
1828.62	2.70914
1830.12	2.74102
1831.62	2.46394
1833.12	2.36636
1834.61	2.7936
1836.11	2.77919
1837.61	2.60489
1839.1	2.51058
1840.6	2.16189
1842.09	2.38799
1843.59	2.168
1845.09	2.2565
1846.58	2.29514
1848.08	2.41191
1849.57	1.87981
1851.06	1.1924
1852.56	0.927636
1854.05	1.40657
1855.54	1.79077
1857.04	1.8434
1858.53	1.77528
1860.02	1.9019
1861.51	1.76375
1863.01	2.12014
1864.5	1.91595
1865.99	2.41962
1867.48	2.54446
1868.97	2.47485
1870.46	2.81214
1871.95	3.62138
1873.44	4.04107
1874.93	4.35052
1876.42	4.57007
1877.91	4.61892
1879.4	4.87193
1880.89	5.11733
1882.37	5.1553
1882.46	4.54637
1883.95	4.49809
1885.45	4.58245
1886.94	5.2668
1888.43	5.60165
1889.93	6.68238
1891.42	6.27442
1892.91	6.80243
1894.41	6.8488
1895.9	6.44478
1897.39	5.96889
1898.88	5.8017
1900.37	5.42028
1901.86	5.95689
1903.36	6.31765
1904.85	6.05815
1906.34	6.41762
1907.83	5.96555
1909.32	6.00249
1910.81	6.09837
1912.29	6.21005
1913.78	5.62572
1915.27	5.70551
1916.76	5.07907
1918.25	5.71323
1919.74	5.42567
1921.23	5.37546
1922.71	5.0826
1924.2	5.34012
1925.69	6.32388
1927.17	6.6987
1928.66	6.70923
1930.15	6.98376
1931.63	6.91978
1933.12	7.13931
1934.6	6.83413
1936.09	7.11915
1937.57	6.78025
1939.06	6.92222
1940.54	6.95839
1942.02	6.63485
1943.51	6.86021
1944.99	6.84227
1946.47	6.38701
1947.96	5.94291
1949.44	5.13665
1950.92	5.16284
1952.4	5.42387
1953.88	5.58854
1955.37	5.72834
1956.85	5.69353
1958.33	6.38211
1959.81	6.81943
1961.29	7.2017
1962.77	7.46917
1964.25	7.46551
1965.73	7.03258
1967.21	6.98665
1968.69	6.77146
1970.16	6.4675
1971.64	6.49578
1973.12	7.10661
1974.6	7.22153
1976.08	8.00632
1977.55	7.52649
1979.03	6.91306
1980.51	6.70099
1981.98	6.2437
1983.46	6.50317
1984.94	5.95204
1986.41	5.71389
1987.89	6.25076
1989.36	6.83593
1990.84	7.16372
1992.31	7.83126
1993.79	7.24674
1995.26	7.29732
1996.73	7.0335
1998.21	6.70272
1999.68	6.56085
2001.15	5.94515
2002.63	5.63884
2004.1	4.99582
2005.57	4.10953
2007.04	3.63027
2008.51	3.38557
2009.99	3.33809
2011.46	2.92604
2012.93	2.01973
2014.4	2.03617
2015.87	1.74836
2017.34	1.9371
2018.81	2.26623
2020.28	1.75084
2021.75	1.87051
2023.21	2.15817
2024.68	2.94456
2026.15	3.31621
2027.62	3.43035
2029.09	3.47107
2030.56	3.78667
2032.02	4.21515
2033.49	4.21019
2034.96	4.47511
2036.42	5.19362
2037.89	4.7758
2039.36	4.93946
2040.82	4.73258
2042.29	5.6545
2043.75	6.06634
2045.22	7.3917
2046.68	8.0182
2048.14	8.03286
2049.61	8.44153
2051.07	7.8741
2052.54	7.78088
2054	8.02483
2055.46	8.20652
2056.93	9.01014
2058.39	9.42548
2059.85	9.71731
2061.31	10.5954
2062.77	10.1983
2064.23	10.1062
2065.7	9.29655
2067.16	8.65437
2068.62	8.08981
2070.08	7.46627
2071.54	6.87478
2073	6.59727
2074.46	6.77657
2075.92	7.33828
2077.38	7.3127
2078.83	7.20498
2080.29	7.22431
2081.75	7.33296
2083.21	7.17998
2084.67	7.60898
2086.12	7.88366
2087.58	8.59408
2089.04	8.5153
2090.49	9.35331
2091.95	9.77873
2093.41	9.33598
2094.86	9.48225
2096.32	9.36736
2097.77	9.70624
2099.23	9.68696
2100.68	9.82952
2102.14	9.65503
2103.59	9.71257
2105.05	9.54403
2106.5	10.1082
2107.95	10.3121
2109.41	10.3661
2110.86	10.517
2112.31	10.8315
2113.76	11.117
2115.21	12.1267
2116.67	12.2695
2118.12	12.9462
2119.57	12.592
2121.02	13.1154
2122.47	13.2705
2123.92	13.3082
2125.37	13.9885
2126.82	14.2663
2128.27	14.7783
2129.72	16.2345
2131.17	16.4311
2132.62	16.9552
2134.07	17.4201
2135.51	17.5408
2136.96	17.8011
2138.41	18.0668
2139.86	18.5881
2141.31	19.223
2142.75	19.8555
2144.2	21.019
2145.65	22.2869
2147.09	23.6
2148.54	24.5704
2149.98	24.475
2151.43	25.1416
2152.87	26.2141
2154.32	26.9623
2155.76	27.6231
2157.21	28.2502
2158.65	28.1422
2160.1	28.3368
2161.54	28.9217
2162.98	29.0743
2164.43	28.1169
2165.87	28.0151
2167.31	27.7156
2168.75	28.3487
2170.2	28.8177
2171.64	28.5543
2173.08	28.2943
2174.52	27.9046
2175.96	28.3456
2177.4	28.1849
2178.84	28.1503
2180.28	26.8464
2181.72	26.6935
2183.16	26.6311
2184.6	26.0164
2186.04	26.5002
2187.48	26.7106
2188.92	26.0648
2190.36	25.8612
2191.79	25.5537
2193.23	25.435
2194.67	24.5217
2196.11	24.198
2197.54	24.2872
2198.98	23.4351
2200.42	23.8343
2201.85	24.2363
2203.29	22.9194
2204.72	23.1945
2206.16	22.2001
2207.59	21.4468
2209.03	20.9867
2210.46	20.8219
2211.9	20.2868
2213.33	19.8787
2214.77	19.0808
2216.2	18.827
2217.63	18.5953
2219.07	17.9648
2220.5	17.3859
2221.93	16.5528
2223.36	15.9731
2224.8	15.2566
2226.23	14.7389
2227.66	13.5218
2229.09	12.7432
2230.52	11.3747
2231.95	11.7262
2233.39	11.6829
2234.81	11.4588
2236.25	11.4426
2237.67	11.3913
2239.1	10.9057
2240.53	10.8353
2241.96	10.2334
2243.39	9.71794
2244.82	9.30888
2246.25	9.07714
2247.68	9.22883
2249.1	8.76477
2250.53	8.51307
2251.96	8.01707
2253.38	8.25689
2254.81	8.16001
2256.24	8.00669
2257.66	8.04489
2259.09	7.31488
2260.51	7.28658
2261.94	7.68455
2263.36	7.79364
2264.79	7.76922
2266.21	7.9663
2267.64	8.21952
2269.06	8.55968
2270.49	8.86549
2271.91	9.04685
2273.33	8.6201
2274.76	8.09663
2276.18	8.39602
2277.6	8.23423
2279.02	8.02914
2280.44	8.23181
2281.87	7.42696
2283.29	7.13725
2284.71	6.7173
2286.13	6.86613
2287.55	7.00104
2288.97	7.21904
2290.39	6.95579
2291.81	6.50031
2293.23	5.93959
2294.65	5.86459
2296.07	6.31912
2297.49	6.49575
2298.91	6.40164
2300.33	6.8052
2301.74	7.21414
2303.16	8.04253
2304.58	7.72863
2306	7.32319
2307.41	7.22873
2308.83	6.88442
2310.25	7.22684
2311.66	7.16618
2313.08	6.83555
2314.5	6.8017
2315.91	6.50095
2317.33	5.88212
2318.74	5.95698
2320.16	5.68966
2321.57	6.03027
2322.98	6.13354
2324.4	5.58324
2325.81	5.54313
2327.23	5.60996
2328.64	5.91122
2330.05	6.17209
2331.46	6.73975
2332.88	6.73642
2334.29	7.02326
2335.7	6.89741
2337.11	6.65267
2338.52	6.40876
2339.94	6.23978
2341.35	5.59445
2342.76	4.73152
2344.17	4.49398
2345.58	4.25315
2346.99	3.7438
2348.4	3.60115
2349.81	2.70342
2351.22	2.52624
2352.62	2.30062
2354.03	2.65702
2355.44	2.54333
2356.85	3.02131
2358.26	2.73127
2359.67	3.38324
2361.07	3.4246
2362.48	4.13214
2363.89	4.5391
2365.29	5.16535
2366.7	5.51165
2368.11	5.51236
2369.51	5.68826
2370.92	6.05271
2372.32	6.55791
2373.73	6.70922
2375.13	7.15715
2376.54	6.54597
2377.94	6.5034
2379.35	6.04087
2380.75	6.07123
2382.15	5.67086
2383.56	5.17046
2384.96	5.05646
2386.36	5.24108
2387.76	5.27806
2389.17	5.55627
2390.57	5.81471
2391.97	5.16231
2393.37	4.37897
2394.77	4.04028
2396.17	4.49445
2397.58	4.78964
2398.98	4.95848
2400.38	4.93803
2401.78	4.84373
2403.18	4.88434
2404.58	4.97563
2405.97	4.68443
2407.37	4.50128
2408.77	4.98371
2410.17	5.26366
2411.57	4.68158
2412.97	4.93678
2414.37	5.15532
2415.76	5.42015
2417.16	5.57223
2418.56	6.04515
2419.95	6.01345
2421.35	5.8872
2422.75	6.1296
2424.14	6.56551
2425.54	6.69233
2426.93	6.38205
2428.33	6.66559
2429.72	7.22276
2431.12	7.1766
2432.51	7.45515
2433.91	6.92635
2435.3	7.70384
2436.7	8.23122
2438.09	8.1739
2439.48	8.25719
2440.88	8.23053
2442.27	7.90212
2443.66	7.586
2445.05	7.08838
2446.44	5.81306
2447.84	5.61858
2449.23	5.17315
2450.62	4.71389
2452.01	4.3941
2453.4	3.55047
2454.79	3.28247
2456.18	3.1656
2457.57	2.35405
2458.96	2.04215
2460.35	2.2441
2461.74	2.15978
2463.13	2.90152
2464.52	3.08619
2465.91	3.59349
2467.29	4.12597
2468.68	4.2525
2470.07	4.60139
2471.46	4.95001
2472.85	5.37169
2474.23	5.72832
2475.62	6.42527
2477.01	6.41386
2478.39	7.48649
2479.78	6.91256
2481.16	6.51281
2482.55	6.82565
2483.93	6.32165
2485.32	5.94267
2486.7	6.02716
2488.09	5.91812
2489.47	5.41158
2490.86	5.45913
2492.24	5.91568
2493.62	5.72397
2495.01	5.67283
2496.39	5.85262
2497.77	7.12656
2499.15	6.82037
2500.54	7.08701
2501.92	6.82754
2503.3	6.66997
2504.68	6.77569
2506.06	6.21738
2507.45	5.64154
2508.83	5.39565
2510.21	5.54651
2511.59	5.40071
2512.97	5.03472
2514.35	5.05958
2515.73	5.02203
2517.11	5.00488
2518.48	4.73437
2519.86	4.95418
2521.24	4.52858
2522.62	4.64949
2524	5.54164
2525.38	6.2808
2526.75	6.54093
2528.13	7.1722
2529.51	7.36593
2530.89	7.1333
2532.26	7.13364
2533.64	7.28508
2535.02	7.6582
2536.39	7.46321
2537.77	6.9727
2539.14	6.6061
2540.52	6.20096
2541.89	5.85968
2543.27	5.56275
2544.64	5.28041
2546.01	4.9688
2547.39	4.96178
2548.76	4.22768
2550.14	4.52125
2551.51	3.90527
2552.88	4.25869
2554.25	4.57714
2555.63	4.54108
2557	4.42677
2558.37	3.89484
2559.74	4.10543
2561.11	3.82492
2562.49	3.75096
2563.86	3.85421
2565.23	3.90636
2566.6	3.76743
2567.97	2.81347
2569.34	3.40252
2570.71	3.304
2572.08	4.11532
2573.45	4.41766
2574.82	4.63335
2576.18	5.04204
2577.55	5.39796
2578.92	5.68218
2580.29	6.06932
2581.66	6.54009
2583.02	6.97962
2584.39	7.43905
2585.76	7.40873
2587.13	8.13626
2588.49	8.77814
2589.86	8.69538
2591.22	9.7296
2592.59	9.43977
2593.96	9.1671
2595.32	8.37276
2596.69	8.22316
2598.05	7.18459
2599.42	6.73085
2600.78	6.74296
2602.14	6.64197
2603.51	6.32608
2604.87	5.64145
2606.23	5.1202
2607.6	4.9598
2608.96	5.06549
2610.32	5.11864
2611.69	4.97056
2613.05	5.11357
2614.41	5.23096
2615.77	5.0582
2617.13	5.40186
2618.49	5.50935
2619.86	4.83986
2621.22	4.7542
2622.58	3.70379
2623.94	3.32948
2625.3	3.01063
2626.66	2.82359
2628.02	2.74229
2629.37	2.89769
2630.73	3.70059
2632.09	3.86768
2633.45	4.06239
2634.81	3.84337
2636.17	4.6344
2637.53	5.41944
2638.88	5.20011
2640.24	4.99056
2641.6	4.53312
2642.96	4.66283
2644.31	5.06758
2645.67	5.40435
2647.02	5.47973
2648.38	6.08252
2649.74	6.2643
2651.09	6.8872
2652.45	6.75144
2653.8	6.52583
2655.16	6.53774
2656.51	5.98773
2657.86	5.80447
2659.22	5.79317
2660.57	5.0576
2661.93	5.35105
2663.28	5.25491
2664.63	5.23918
2665.98	5.16991
2667.34	6.22468
2668.69	6.53262
2670.04	6.4706
2671.39	6.35068
2672.75	6.18787
2674.09	6.21535
2675.45	6.75819
2676.8	6.92009
2678.15	6.94047
2679.5	7.41844
2680.85	7.4933
2682.2	7.70736
2683.55	7.74081
2684.9	7.49803
2686.25	7.20041
2687.6	7.10606
2688.94	7.12817
2690.29	7.65282
2691.64	8.23731
2692.99	8.27543
2694.34	8.66232
2695.68	8.75367
2697.03	9.51512
2698.38	9.84623
2699.73	9.87475
2701.07	9.92057
2702.42	10.2916
2703.76	10.8376
2705.11	10.0237
2706.45	9.45021
2707.8	9.19693
2709.15	9.56196
2710.49	9.64252
2711.83	9.54355
2713.18	9.38755
2714.52	9.27451
2715.87	9.74263
2717.21	9.63217
2718.55	9.85891
2719.9	9.20634
2721.24	9.28934
2722.58	9.56065
2723.93	9.93003
2725.27	10.4941
2726.61	10.822
2727.95	10.7092
2729.29	11.1352
2730.63	10.913
2731.98	10.7222
2733.32	10.972
2734.66	10.6404
2736	10.2631
2737.34	10.0489
2738.68	10.0198
2740.02	9.82785
2741.36	10.2124
2742.7	10.992
2744.03	10.7005
2745.37	10.8694
2746.71	10.6759
2748.05	10.0826
2749.39	9.93179
2750.72	9.61988
2752.06	9.08012
2753.4	9.52194
2754.74	9.68348
2756.07	9.58419
2757.41	10.3506
2758.75	10.0235
2760.08	9.89203
2761.42	10.337
2762.76	10.6707
2764.09	10.2035
2765.42	9.83312
2766.76	9.45661
2768.09	8.78884
2769.43	8.16738
2770.76	7.65695
2772.1	6.45016
2773.43	7.00729
2774.76	6.77859
2776.1	6.83949
2777.43	6.36223
2778.76	6.04668
2780.1	6.43702
2781.43	6.42566
2782.76	6.61191
2784.09	6.60472
2785.42	6.96987
2786.75	6.4036
2788.09	6.50728
2789.42	6.62694
2790.75	6.09885
2792.08	5.45355
2793.41	4.48933
2794.74	3.86277
2796.07	4.03684
2797.4	3.37354
2798.73	3.00172
2800.06	2.8505
2801.39	2.58623
2802.71	2.65201
2804.04	2.96465
2805.37	3.32619
2806.7	3.71765
2808.03	3.77816
2809.35	3.72101
2810.68	3.34229
2812.01	3.0797
2813.33	2.78685
2814.66	2.75807
2815.99	2.9514
2817.31	3.35005
2818.64	3.743
2819.96	4.61658
2821.29	5.15477
2822.61	5.75468
2823.94	6.81869
2825.26	6.97377
2826.59	7.83246
2827.91	8.41535
2829.23	8.19708
2830.56	8.87307
2831.88	10.3177
2833.21	11.3944
2834.53	11.8157
2835.85	13.0532
2837.17	13.8355
2838.5	15.0703
2839.82	16.702
2841.14	17.7341
2842.46	19.1154
2843.78	20.4777
2845.1	22.364
2846.42	24.6597
2847.74	26.4981
2849.06	28.3791
2850.38	29.9831
2851.71	31.8572
2853.03	33.2131
2854.34	35.1921
2855.66	37.2585
2856.98	39.1413
2858.3	41.2124
2859.62	43.3688
2860.94	45.452
2862.26	47.3212
2863.57	49.2988
2864.89	51.5924
2866.21	53.349
2867.53	54.8961
2868.84	56.616
2870.16	58.4846
2871.48	59.6225
2872.79	60.3581
2874.11	61.2741
2875.42	62.3988
2876.74	63.2807
2878.05	64.3074
2879.37	65.732
2880.68	66.9488
2882	68.0376
2883.31	69.119
2884.63	70.2758
2885.94	71.6852
2887.26	72.695
2888.57	73.5911
2889.88	74.5377
2891.19	74.7279
2892.51	75.6807
2893.82	76.2836
2895.13	77.9818
2896.44	80.0538
2897.76	81.6341
2899.07	82.7669
2900.38	83.8615
2901.69	85.6647
2903	87.2194
2904.31	89.5067
2905.62	91.7324
2906.93	94.2375
2908.24	96.4517
2909.55	99.4329
2910.86	101.979
2912.17	104.501
2913.48	107.332
2914.79	109.791
2916.1	112.309
2917.41	115.175
2918.71	117.278
2920.02	119.198
2921.33	121.361
2922.64	122.615
2923.94	123.655
2925.25	124.764
2926.56	125.311
2927.86	125.886
2929.17	126.285
2930.48	125.962
2931.78	125.493
2933.09	125.288
2934.39	125.271
2935.7	124.256
2937	123.091
2938.31	121.737
2939.61	120.678
2940.92	118.961
2942.22	117.667
2943.53	116.237
2944.83	114.736
2946.13	112.815
2947.43	110.497
2948.74	108.715
2950.04	107.123
2951.34	105.382
2952.64	103.327
2953.95	101.095
2955.25	99.221
2956.55	96.9033
2957.85	95.4261
2959.15	93.2493
2960.45	91.957
2961.75	89.1651
2963.05	87.0993
2964.35	84.5669
2965.65	82.2812
2966.95	80.4626
2968.25	78.7407
2969.55	77.2487
2970.85	76.0104
2972.15	74.9143
2973.45	73.3485
2974.75	71.6287
2976.05	69.7433
2977.34	68.016
2978.64	66.888
2979.94	64.5289
2981.24	62.6009
2982.53	60.641
2983.83	58.6896
2985.13	56.2102
2986.42	54.339
2987.72	51.701
2989.01	49.7743
2990.31	47.6342
2991.61	45.2812
2992.9	43.1483
2994.19	40.6929
2995.49	38.4355
2996.78	36.6724
2998.08	34.5161
2999.37	32.4492
3000.67	30.1497
3001.96	28.6221
3003.25	27.2276
3004.55	25.5271
3005.84	23.7275
3007.13	22.4753
3008.42	21.3807
3009.72	20.498
3011.01	19.0822
3012.3	18.0511
3013.59	17.7646
3014.88	16.7381
3016.17	15.9924
3017.46	15.0634
3018.76	13.7932
3020.05	13.0206
3021.34	12.1047
3022.63	11.453
3023.92	10.8036
3025.21	10.651
3026.49	9.9787
3027.78	10.4099
3029.07	10.039
3030.36	10.1755
3031.65	10.3221
3032.94	10.4332
3034.23	11.192
3035.51	11.7905
3036.8	12.4424
3038.09	12.1086
3039.38	12.1361
3040.66	12.9028
3041.95	13.158
3043.23	14.2371
3044.52	14.3789
3045.81	14.7134
3047.09	15.1781
3048.38	15.6849
3049.66	15.2538
3050.95	15.0991
3052.23	15.6477
3053.52	15.9281
3054.8	15.4762
3056.09	15.374
3057.37	15.4289
3058.65	14.7236
3059.94	14.5878
3061.22	14.1205
3062.5	13.6254
3063.79	13.5953
3065.07	13.0581
3066.35	12.3518
3067.63	11.6047
3068.92	10.3961
3070.2	9.55286
3071.48	9.31904
3072.76	8.93219
3074.04	8.11783
3075.32	7.03801
3076.6	6.69988
3077.88	5.6852
3079.16	4.67436
3080.44	4.42216
3081.72	3.20518
3083	2.83896
3084.28	2.55527
3085.56	2.305
3086.84	2.46667
3088.12	2.55506
3089.4	2.01033
3090.67	1.82069
3091.95	1.57402
3093.23	1.15421
3094.51	1.65921
3095.78	1.71301
3097.06	2.21889
3098.34	3.0024
3099.61	3.0946
3100.89	2.94707
3102.17	2.68012
3103.44	2.76199
3104.72	3.71469
3105.99	3.59034
3107.27	3.86849
3108.54	3.38719
3109.82	3.60823
3111.09	4.17995
3112.37	4.35192
3113.64	4.05155
3114.92	4.21751
3116.19	5.06591
3117.46	4.4175
3118.74	4.40049
3120.01	4.36948
3121.28	4.30472
3122.55	3.71534
3123.83	3.81544
3125.1	3.82411
3126.37	3.92599
3127.64	3.61228
3128.91	2.97274
3130.19	2.73751
3131.46	2.84749
3132.73	2.75586
3134	2.9485
3135.27	3.4573
3136.54	3.01624
3137.81	2.80936
3139.08	2.89055
3140.35	3.09378
3141.62	3.19654
3142.89	3.8158
3144.16	4.27061
3145.42	4.71973
3146.69	4.44008
3147.96	4.54978
3149.23	4.72803
