#Acq. time (s)=	45
#Accumulations=	2
#Range (cm-¹)=	200...3150
#Windows=	2
#Auto scanning=	Off
#Autofocus=	Off
#Macrospot=	Off
#AutoExposure=	Off
#Spike filter=	Multiple accum.
#Delay time (s)=	0
#Binning=	1
#Readout mode=	Signal
#DeNoise=	Off
#ICS correction=	On
#Dark correction=	Off
#Inst. Process=	Off
#Detector Gain=	Best Dynamic Range
#Detector ADC=	20 kHz       
#Detector temperature (°C)=	-70.08
#Instrument=	LabRAM HR Evol
#Detector=	Synapse
#Objective=	x100
#Grating=	600 gr/mm
#ND Filter=	100%
#Laser (nm)=	532 
#Hole=	100.021
#Range=	Auto
#Laser Pol.=	No
#Raman. Pol.=	No
#Laser Pol. (°)=	-0.0007625
#Raman Pol. (°)=	89.9995
#Collection=	Microscope
#StageXY=	Marzhauser
#StageZ=	Marzhauser
#X (µm)=	-5138.8
#Y (µm)=	1515
#Z (µm)=	63.7
#Full time(mm:ss)=	3:18
#Project=	
#Sample=	
#Site=	
#Title=	Thy_50_12_32_2x_45s_532 nm_x100_100%_600 gr_mm
#Remark=	
#Date=	07.07.2022 11:35
#Acquired=	07.07.2022 11:35:23
#Base:Fit=	10.08.2022 10:04:30
#Base:Sub=	10.08.2022 10:04:45
#Filter:Polynom=	16.08.2022 10:20:25
#AxisType[0]=Intens
#AxisUnit[0]=Cnt
#AxisType[1]=Spectr
#AxisUnit[1]=1/cm
200.43	25.5423
202.246	30.1842
204.061	32.6198
205.875	33.3791
207.688	33.9538
209.501	34.2819
211.316	33.8305
213.129	32.87
214.941	31.848
216.753	31.0231
218.566	30.9867
220.377	28.6202
222.188	28.651
223.999	28.418
225.809	27.4151
227.618	27.2144
229.43	25.6158
231.239	26.2714
233.047	25.0881
234.855	24.09
236.663	23.4439
238.471	23.2459
240.278	22.2428
242.087	21.1742
243.894	21.7373
245.7	21.2328
247.506	20.7932
249.311	19.5489
251.116	17.8889
252.921	17.9931
254.725	16.4451
256.529	16.7054
258.333	16.5216
260.136	15.6343
261.939	14.9383
263.744	15.0113
265.546	14.7746
267.348	12.8349
269.15	12.5604
270.951	11.6001
272.752	11.3231
274.552	10.4801
276.353	9.62181
278.152	9.53154
279.952	9.72191
281.751	10.418
283.55	9.53368
285.348	9.14815
287.146	8.42357
288.942	8.26299
290.739	8.75902
292.536	7.83448
294.333	7.4491
296.129	7.39808
297.925	7.44471
299.721	6.00792
301.516	6.365
303.311	7.60765
305.106	7.35698
306.9	8.63111
308.694	9.17597
310.486	8.86824
312.279	9.76742
314.072	9.43312
315.864	9.40513
317.656	9.54692
319.448	9.487
321.24	9.89588
323.029	9.47647
324.819	10.6763
326.61	11.3229
328.4	11.3535
330.19	11.7047
331.977	10.8114
333.766	12.6042
335.555	11.653
337.343	11.2926
339.131	11.357
340.917	11.1093
342.704	11.0954
344.491	9.99331
346.277	10.6582
348.062	9.1593
349.848	6.79149
351.633	6.83027
353.416	5.86124
355.201	5.14112
356.986	3.40229
358.77	3.52623
360.552	2.85482
362.335	3.30302
364.118	3.6789
365.899	3.04144
367.682	3.66343
369.464	3.03965
371.243	4.17459
373.025	3.22784
374.806	4.39854
376.585	4.49544
378.365	6.07323
380.143	5.9436
381.923	4.32302
383.702	5.00379
385.479	6.23996
387.258	7.29096
389.034	6.74958
390.812	8.51409
392.59	8.47495
394.365	7.46487
396.142	8.83465
397.916	8.08912
399.693	8.48318
401.467	8.22547
403.242	9.59578
405.015	10.7313
406.79	10.9241
408.565	12.2443
410.337	11.2997
412.111	11.2763
413.882	11.0502
415.656	11.159
417.426	10.6636
419.197	10.4364
420.969	9.67369
422.739	11.8423
424.51	10.9079
426.279	11.1359
428.05	10.4958
429.819	9.70779
431.589	9.17115
433.356	8.61198
435.124	8.34959
436.893	7.53446
438.66	7.79649
440.428	9.17001
442.194	9.23256
443.96	10.0475
445.727	9.69934
447.492	9.73762
449.259	10.0061
451.023	12.1056
452.787	13.1225
454.553	13.2198
456.316	14.8936
458.079	16.1571
459.844	18.3177
461.606	18.8883
463.368	20.5389
465.132	20.5499
466.893	21.5036
468.654	22.8024
470.415	24.5293
472.177	26.3767
473.937	28.623
475.696	30.0795
477.456	31.9619
479.217	33.0702
480.975	33.2414
482.733	33.9991
484.491	35.0213
486.251	35.3024
488.008	36.8215
489.765	37.5667
491.522	39.7006
493.278	39.6315
495.036	39.3915
496.791	39.4757
498.546	38.842
500.301	39.7218
502.056	39.5098
503.81	40.0446
505.566	38.4932
507.319	39.2473
509.073	39.7259
510.825	39.2939
512.578	37.7377
514.33	37.1596
516.082	36.1205
517.833	36.5677
519.587	36.0932
521.337	35.6331
523.088	35.0871
524.838	35.1001
526.588	34.2675
528.337	34.1754
530.087	33.5051
531.835	32.6537
533.584	31.8266
535.332	30.7654
537.08	30.5214
538.827	30.8445
540.574	29.3607
542.321	28.6902
544.068	29.1413
545.814	29.7175
547.56	29.2204
549.305	28.4665
551.05	26.3186
552.795	26.0726
554.54	27.4824
556.284	27.8368
558.027	26.9691
559.771	26.2733
561.514	26.5244
563.257	25.1951
564.999	23.2292
566.742	21.1482
568.481	21.1168
570.223	20.1402
571.964	19.8962
573.705	20.1223
575.445	21.8028
577.185	20.4734
578.925	19.4015
580.665	18.1881
582.402	17.2251
584.141	15.5844
585.879	14.7877
587.617	13.9455
589.355	12.597
591.092	13.0453
592.828	12.3512
594.564	12.7888
596.301	11.2392
598.037	10.1299
599.773	9.85649
601.506	9.83576
603.242	8.46528
604.976	8.9129
606.711	9.0491
608.443	7.70606
610.177	6.85868
611.91	6.81686
613.644	5.83513
615.374	7.11364
617.107	7.68482
618.839	6.38551
620.569	5.43522
622.3	5.29462
624.032	6.53877
625.761	7.02487
627.491	6.92202
629.221	8.27651
630.949	9.69928
632.679	10.4942
634.408	10.9381
636.135	12.5362
637.863	12.6362
639.592	14.9635
641.318	17.0546
643.045	16.814
644.77	17.6428
646.497	19.0029
648.224	19.3932
649.948	20.3314
651.674	20.0276
653.398	20.4098
655.123	20.9233
656.846	21.2621
658.57	22.2176
660.293	22.6725
662.017	23.1419
663.738	22.1085
665.462	22.8422
667.185	22.9026
668.905	22.597
670.628	22.7597
672.348	24.1286
674.067	25.0407
675.789	25.095
677.508	26.5344
679.228	27.3686
680.947	28.7522
682.667	30.0269
684.385	30.6746
686.104	31.4617
687.821	32.0284
689.538	32.9958
691.256	34.3198
692.972	34.0836
694.69	34.312
696.406	35.4688
698.121	36.9622
699.837	37.0577
701.552	38.0917
703.268	38.2732
704.982	38.5331
706.695	38.8488
708.41	40.7836
710.123	42.1331
711.836	43.8745
713.55	44.2325
715.262	45.7329
716.973	46.7362
718.685	48.1268
720.398	49.2766
722.108	49.9645
723.818	50.9541
725.53	51.1594
727.24	51.06
728.949	50.4096
730.658	51.7985
732.369	52.3619
734.077	51.7956
735.785	52.0421
737.493	51.2959
739.2	51.9782
740.909	53.1954
742.616	54.4708
744.322	54.582
746.028	55.0195
747.734	55.7444
749.441	55.8514
751.146	56.5198
752.851	58.2509
754.555	60.1669
756.26	61.2897
757.963	62.9158
759.667	64.117
761.372	65.7321
763.075	67.7123
764.777	68.5676
766.479	70.0788
768.181	69.5487
769.883	69.6475
771.584	69.9325
773.285	70.5716
774.986	72.0699
776.686	71.6312
778.386	71.9526
780.085	72.0644
781.785	73.4029
783.484	73.2204
785.182	72.1935
786.881	73.6328
788.579	73.8225
790.276	73.6971
791.974	73.206
793.671	74.6856
795.367	74.9415
797.064	74.8549
798.76	75.5536
800.456	76.4777
802.151	77.3608
803.846	78.2713
805.541	78.2831
807.236	78.0511
808.93	78.7001
810.624	77.9867
812.317	78.8887
814.01	80.0686
815.703	80.6692
817.394	80.3702
819.086	80.3013
820.778	80.2933
822.47	80.5416
824.161	81.2367
825.852	81.2407
827.543	80.6434
829.231	80.0711
830.921	79.8948
832.611	79.5273
834.3	79.8164
835.989	79.2474
837.676	78.1552
839.364	76.6693
841.053	74.9708
842.74	73.7345
844.426	72.1922
846.113	70.4336
847.8	68.8091
849.486	67.7813
851.171	66.4741
852.857	64.7531
854.542	64.8325
856.227	62.989
857.911	63.3595
859.595	63.2078
861.279	61.2052
862.961	60.4003
864.645	59.1201
866.329	58.1239
868.01	55.266
869.692	54.5227
871.375	55.2081
873.055	53.1402
874.737	53.1609
876.418	52.5557
878.097	52.4356
879.778	52.3878
881.457	51.0055
883.137	51.0496
884.817	48.0431
886.495	47.1188
888.174	45.054
889.851	43.3281
891.53	41.0201
893.206	40.4777
894.884	39.5369
896.562	39.5982
898.237	37.8173
899.914	36.0215
901.589	35.557
903.265	35.1193
904.94	32.952
906.615	33.0117
908.289	31.5936
909.964	29.0875
911.637	27.9246
913.31	28.2467
914.984	28.2652
916.656	27.5271
918.33	26.9066
920.001	25.2723
921.674	24.0823
923.345	23.2025
925.015	21.8256
926.687	20.2411
928.357	20.0546
930.028	18.9721
931.698	19.7292
933.366	19.8134
935.037	18.2083
936.705	17.7429
938.373	17.503
940.043	17.2627
941.71	17.1835
943.379	15.968
945.046	14.8426
946.712	15.1055
948.378	16.1752
950.046	17.1161
951.711	19.0139
953.376	21.2446
955.043	22.4013
956.708	22.0391
958.372	22.7606
960.036	22.7363
961.701	23.4709
963.364	24.3519
965.027	24.5463
966.69	25.1725
968.354	24.8645
970.016	25.0437
971.678	24.9301
973.339	26.5746
975	28.341
976.661	30.3915
978.324	31.0239
979.984	31.5392
981.644	31.8753
983.303	33.7252
984.962	37.0777
986.621	38.3239
988.282	38.3465
989.94	40.2612
991.598	41.1318
993.256	42.8076
994.913	44.7566
996.57	46.0736
998.227	46.2071
999.884	44.6319
1001.54	44.6384
1003.2	44.8588
1004.85	43.9994
1006.51	44.6719
1008.16	44.6542
1009.82	45.3682
1011.47	46.0985
1013.12	46.0659
1014.78	47.3404
1016.43	47.4248
1018.08	47.6007
1019.74	48.4808
1021.39	49.0479
1023.04	49.2057
1024.69	49.1251
1026.34	50.1745
1028	52.1052
1029.65	53.9751
1031.3	56.4645
1032.95	56.9896
1034.6	56.8396
1036.25	55.8993
1037.9	55.6475
1039.55	55.8788
1041.19	57.0731
1042.84	57.7619
1044.49	57.9958
1046.14	56.5419
1047.79	54.8647
1049.43	52.6624
1051.08	51.4394
1052.73	50.0641
1054.37	49.8509
1056.02	48.1911
1057.66	47.6915
1059.31	45.7049
1060.95	45.1075
1062.6	44.2151
1064.24	44.6139
1065.88	43.451
1067.53	42.2045
1069.17	39.5821
1070.81	37.5496
1072.46	36.6534
1074.1	35.4915
1075.74	33.6371
1077.38	31.6812
1079.02	29.7624
1080.66	28.709
1082.3	26.8173
1083.94	24.8455
1085.58	24.0962
1087.22	22.428
1088.86	22.5159
1090.5	22.5648
1092.14	22.7438
1093.78	22.3678
1095.42	23.2835
1097.05	22.62
1098.69	23.4237
1100.33	23.4591
1101.97	23.5087
1103.6	23.3761
1105.24	24.1391
1106.87	24.6515
1108.51	25.8824
1110.15	26.5439
1111.78	27.0058
1113.41	27.5316
1115.05	26.225
1116.68	25.8601
1118.31	26.6209
1119.95	27.101
1121.58	26.5908
1123.21	25.6879
1124.85	23.3571
1126.48	22.349
1128.11	20.4916
1129.74	20.424
1131.37	19.9337
1133	20.0827
1134.63	18.5923
1136.26	17.0424
1137.89	15.6693
1139.52	16.465
1141.15	15.0605
1142.78	14.5479
1144.41	14.7948
1146.04	13.228
1147.66	11.519
1149.29	9.29306
1150.92	6.92794
1152.55	6.67592
1154.17	5.68708
1155.8	3.39719
1157.43	1.45888
1159.05	0.253732
1160.68	0.168519
1162.3	0.222755
1163.93	-1.34613
1165.55	-1.2679
1167.17	-0.292182
1168.8	-0.281233
1170.42	1.0851
1172.05	2.16734
1173.67	1.10192
1175.29	2.23025
1176.91	3.23954
1178.54	2.79849
1180.16	3.38289
1181.78	3.2262
1183.4	3.52688
1185.02	3.84076
1186.64	4.60831
1188.26	4.19397
1189.88	4.75226
1191.5	5.16607
1193.12	6.12618
1194.74	6.99075
1196.36	6.69953
1197.97	8.03935
1199.59	8.90129
1201.21	9.72351
1202.83	11.7478
1204.44	12.6923
1206.06	14.2964
1207.68	17.1484
1209.29	18.9534
1210.91	20.9736
1212.52	23.2706
1214.14	25.844
1215.75	26.9143
1217.37	30.1141
1218.98	33.0725
1220.6	36.5958
1222.21	38.8401
1223.82	42.3445
1225.44	45.1184
1227.05	46.3211
1228.66	48.9805
1230.27	52.3126
1231.88	55.0936
1233.49	59.5535
1235.1	62.5059
1236.72	65.2752
1238.33	69.4376
1239.94	73.4583
1241.55	77.6444
1243.16	80.8871
1244.76	84.1783
1246.37	86.7384
1247.98	89.3584
1249.59	91.298
1251.2	93.0238
1252.8	95.6976
1254.41	96.6691
1256.02	100.497
1257.63	103.535
1259.23	105.242
1260.84	107.978
1262.44	110.148
1264.05	112.748
1265.66	115.47
1267.26	117.046
1268.87	120.597
1270.47	123.493
1272.07	126.255
1273.68	128.412
1275.28	129.904
1276.88	131.22
1278.48	134.1
1280.09	135.621
1281.69	137.755
1283.29	139.831
1284.89	141.076
1286.49	142.951
1288.09	144.451
1289.69	146.048
1291.3	147.08
1292.9	147.94
1294.49	148.693
1296.09	148.775
1297.69	149.675
1299.29	149.389
1300.89	150.077
1302.49	149.51
1304.09	149.633
1305.68	149.516
1307.28	149.946
1308.88	148.98
1310.47	149.009
1312.07	147.274
1313.66	147.278
1315.26	146.862
1316.86	145.444
1318.45	144.489
1320.05	143.766
1321.64	142.29
1323.23	141.684
1324.83	140.274
1326.42	137.142
1328.01	136.562
1329.61	134.779
1331.2	134.965
1332.79	134.552
1334.38	132.638
1335.98	131.965
1337.57	130.58
1339.16	128.035
1340.75	125.553
1342.34	123.681
1343.93	122.439
1345.52	120.602
1347.11	118.639
1348.7	118.773
1350.29	115.229
1351.87	113.42
1353.46	112.089
1355.05	109.907
1356.64	108.281
1358.23	106.705
1359.81	105.136
1361.4	104.406
1362.99	103.451
1364.57	101.103
1366.16	100.137
1367.74	97.9307
1369.33	96.3189
1370.91	95.1419
1372.5	93.9231
1374.08	93.5505
1375.67	93.2264
1377.25	92.6462
1378.83	92.198
1380.42	91.8612
1382	91.0924
1383.58	90.7866
1385.16	90.2666
1386.75	89.0192
1388.33	87.1373
1389.91	86.9261
1391.49	85.8481
1393.07	84.8621
1394.65	83.554
1396.23	82.5568
1397.81	83.2449
1399.39	84.1343
1400.97	84.377
1402.55	86.0089
1404.13	86.3483
1405.7	86.1879
1407.28	87.9117
1408.86	88.9266
1410.44	90.3762
1412.01	92.4827
1413.59	94.3462
1415.17	95.6626
1416.74	98.5213
1418.32	101.588
1419.89	105.281
1421.47	109.972
1423.05	114.63
1424.62	119.713
1426.19	125.235
1427.77	131.08
1429.34	135.512
1430.92	141.611
1432.49	146.495
1434.06	150.536
1435.63	155.08
1437.2	159.808
1438.78	163.964
1440.35	167.642
1441.92	170.758
1443.49	172.401
1445.06	175.041
1446.63	176.01
1448.2	178.66
1449.77	180.493
1451.34	180.086
1452.91	178.655
1454.48	177.785
1456.05	175.113
1457.62	172.193
1459.18	168.55
1460.75	163.249
1462.32	158.088
1463.89	152.987
1465.45	146.926
1467.02	140.507
1468.59	134.423
1470.15	127.485
1471.72	120.676
1473.28	114.535
1474.85	110.205
1476.41	103.811
1477.98	96.7514
1479.54	89.6448
1481.11	83.5089
1482.67	78.0885
1484.23	71.913
1485.8	66.8704
1487.36	61.7783
1488.92	57.2841
1490.48	53.6231
1492.05	49.2823
1493.61	46.7866
1495.17	45.4374
1496.73	44.2029
1498.29	42.652
1499.85	41.8474
1501.41	41.8541
1502.97	41.3905
1504.53	41.5985
1506.09	41.7942
1507.65	41.8118
1509.2	42.733
1510.76	43.8851
1512.32	45.1193
1513.88	46.3794
1515.44	47.9839
1516.99	49.1921
1518.55	51.536
1520.1	52.9128
1521.66	53.8811
1523.22	56.1921
1524.77	59.0524
1526.33	62.1984
1527.88	64.0828
1529.44	65.8955
1530.99	67.7909
1532.55	71.16
1534.1	73.8627
1535.65	76.2622
1537.21	77.8801
1538.76	81.231
1540.31	84.821
1541.86	89.4175
1543.42	93.729
1544.97	97.2536
1546.52	103.076
1548.07	107.452
1549.62	111.406
1551.17	115.089
1552.72	119.101
1554.27	121.12
1555.82	125.443
1557.37	128.77
1558.92	131.297
1560.47	134.47
1562.02	136.768
1563.57	140.537
1565.11	144.508
1566.66	148.355
1568.21	151.463
1569.75	154.36
1571.3	157.572
1572.85	160.957
1574.39	164.081
1575.94	166.184
1577.49	168.156
1579.03	169.693
1580.58	170.257
1582.12	171.774
1583.67	172.664
1585.21	173.31
1586.75	173.082
1588.3	172.76
1589.84	171.186
1591.38	169.962
1592.93	169.278
1594.47	167.51
1596.01	166.456
1597.55	165.115
1599.09	163.682
1600.63	162.923
1602.18	161.913
1603.72	159.996
1605.26	158.065
1606.8	156.061
1608.34	154.064
1609.87	153.8
1611.41	153.28
1612.95	152.768
1614.49	152.166
1616.03	152.397
1617.57	151.537
1619.11	152.704
1620.64	152.12
1622.18	152.826
1623.72	153.929
1625.25	153.198
1626.79	152.289
1628.32	153.302
1629.86	154.778
1631.4	155.38
1632.93	157.388
1634.47	157.882
1636	158.765
1637.53	161.735
1639.07	163.738
1640.6	165.62
1642.14	167.499
1643.67	169.03
1645.2	170.759
1646.73	173.008
1648.27	174.865
1649.8	175.59
1651.33	175.486
1652.86	174.392
1654.39	173.842
1655.92	172.674
1657.45	171.4
1658.98	170.185
1660.51	167.373
1662.04	164.476
1663.57	161.706
1665.1	158.973
1666.63	154.382
1668.16	150.657
1669.69	147.119
1671.21	142.444
1672.74	138.087
1674.27	133.331
1675.79	127.928
1677.32	122.682
1678.85	117.036
1680.37	110.951
1681.9	106.111
1683.42	100.089
1684.95	95.1565
1686.47	90.8062
1688	84.995
1689.52	79.4017
1691.05	73.4038
1692.57	68.6451
1694.1	64.9851
1695.62	61.2997
1697.14	57.1682
1698.66	54.2164
1700.19	49.0928
1701.71	45.2396
1703.23	41.7376
1704.75	40.3584
1706.27	36.7761
1707.79	33.4864
1709.32	31.0366
1710.83	28.518
1712.35	27.4842
1713.88	25.2259
1715.39	23.5255
1716.91	22.7704
1718.43	22.8193
1719.95	21.8857
1721.47	21.0094
1722.99	20.2828
1724.5	19.7165
1726.02	19.6531
1727.54	18.6585
1729.06	17.7337
1730.57	17.6237
1732.09	16.3328
1733.61	16.3707
1735.12	15.3629
1736.64	14.7681
1738.15	14.3063
1739.67	13.5304
1741.18	12.49
1742.7	11.2678
1744.21	11.4003
1745.72	11.0823
1747.24	10.1344
1748.75	9.54967
1750.26	8.88663
1751.78	8.63125
1753.29	7.80911
1754.8	7.73571
1756.31	7.78256
1757.82	7.35651
1759.34	6.73717
1760.85	6.8047
1762.36	6.21376
1763.87	5.35174
1765.38	5.84704
1766.89	5.60521
1768.4	4.89661
1769.91	4.81991
1771.41	4.27838
1772.92	3.64649
1774.43	3.75914
1775.94	3.36873
1777.45	3.83483
1778.96	3.94442
1780.46	3.99955
1781.97	2.9742
1783.48	3.26756
1784.98	3.14789
1786.49	3.64121
1788	3.65575
1789.5	3.04136
1791.01	3.86901
1792.51	4.21674
1794.01	4.25456
1795.52	3.78326
1797.02	3.62462
1798.53	3.54121
1800.03	4.0921
1801.54	4.24376
1803.04	3.30205
1804.54	3.60913
1806.04	3.30167
1807.54	2.77934
1809.05	2.80067
1810.55	2.51357
1812.05	1.99463
1813.55	1.81979
1815.05	1.93409
1816.55	2.87502
1818.05	2.62471
1819.55	2.91991
1821.05	2.91749
1822.55	2.85275
1824.05	2.38768
1825.55	1.79605
1827.05	2.11623
1828.55	2.73575
1830.04	2.80262
1831.54	2.84972
1833.04	3.11257
1834.54	3.54622
1836.03	3.32416
1837.53	2.88823
1839.03	3.46272
1840.52	3.56173
1842.02	2.73607
1843.51	2.44684
1845.01	2.32635
1846.5	1.79806
1848	2.26229
1849.49	2.404
1850.99	1.96701
1852.48	1.74111
1853.97	1.59666
1855.47	2.22325
1856.96	2.03664
1858.45	2.23766
1859.94	1.71354
1861.44	2.08716
1862.93	1.65806
1864.42	2.53278
1865.91	2.92514
1867.4	3.39813
1868.89	3.37728
1870.38	3.12731
1871.87	3.64605
1873.36	4.24284
1874.85	4.84115
1876.34	4.19226
1877.83	4.00376
1879.32	4.02118
1880.81	3.68564
1882.3	3.79625
1882.56	4.31168
1884.06	4.4578
1885.55	4.71874
1887.04	5.38656
1888.54	5.86462
1890.03	5.99762
1891.52	5.72236
1893.02	6.59187
1894.51	6.94445
1896	6.83154
1897.49	6.21999
1898.99	6.51106
1900.48	7.00267
1901.97	6.62539
1903.46	5.74137
1904.95	5.80983
1906.44	5.57145
1907.93	4.47337
1909.42	5.01956
1910.91	5.23635
1912.4	5.51786
1913.89	4.90794
1915.38	4.73868
1916.86	4.58906
1918.35	4.76903
1919.84	5.77863
1921.33	6.69309
1922.82	6.39976
1924.3	6.09065
1925.79	6.56922
1927.28	6.54309
1928.76	6.5683
1930.25	5.4361
1931.74	5.77642
1933.22	5.79733
1934.71	6.09403
1936.19	5.60001
1937.67	6.58439
1939.16	5.91913
1940.64	5.95783
1942.13	5.63207
1943.61	5.80805
1945.09	5.74874
1946.58	5.20081
1948.06	5.38214
1949.54	4.52561
1951.03	4.85763
1952.51	4.68905
1953.99	4.78781
1955.47	5.37158
1956.95	5.53628
1958.43	5.19704
1959.91	4.89937
1961.39	4.27097
1962.87	4.24198
1964.35	4.62306
1965.83	4.44438
1967.31	4.75059
1968.79	4.2557
1970.27	3.56548
1971.75	3.45975
1973.22	3.17047
1974.7	3.24284
1976.18	3.43861
1977.66	3.71353
1979.13	4.34851
1980.61	4.70876
1982.09	5.50787
1983.56	6.41791
1985.04	6.42314
1986.52	6.22094
1987.99	6.25668
1989.47	6.7974
1990.94	6.8837
1992.41	7.66483
1993.89	8.47491
1995.36	7.69202
1996.84	6.29517
1998.31	6.63133
1999.78	7.71319
2001.26	7.60296
2002.73	8.22768
2004.2	7.42541
2005.67	8.17664
2007.15	7.90333
2008.62	7.96704
2010.09	7.94401
2011.56	9.18785
2013.03	9.38487
2014.5	9.61884
2015.97	9.89007
2017.44	9.73254
2018.91	9.49656
2020.38	10.484
2021.85	12.2073
2023.32	11.4972
2024.79	11.6165
2026.25	11.631
2027.72	11.4347
2029.19	11.5674
2030.66	12.0931
2032.13	12.1743
2033.59	12.0395
2035.06	12.8756
2036.53	12.9656
2037.99	13.6322
2039.46	14.1835
2040.92	14.8091
2042.39	15.0416
2043.85	15.2537
2045.32	15.8897
2046.78	15.6687
2048.25	16.6421
2049.71	16.9333
2051.18	17.9927
2052.64	19.2134
2054.1	18.9049
2055.56	19.4844
2057.03	20.3266
2058.49	21.3614
2059.95	22.157
2061.42	23.0263
2062.88	24.44
2064.34	25.1581
2065.8	26.675
2067.26	27.9616
2068.72	28.7328
2070.18	29.9822
2071.64	32.8933
2073.1	34.5238
2074.56	35.4999
2076.02	36.6878
2077.48	37.8458
2078.94	39.8037
2080.39	41.7415
2081.85	43.0326
2083.31	45.2759
2084.77	47.1851
2086.22	48.6133
2087.68	50.3183
2089.14	52.0586
2090.6	53.7107
2092.05	57.1636
2093.51	59.448
2094.96	61.6215
2096.42	62.7696
2097.87	65.0835
2099.33	67.5037
2100.78	69.8991
2102.24	73.5451
2103.69	76.8509
2105.15	79.8876
2106.6	82.0715
2108.05	84.9017
2109.51	87.067
2110.96	90.5437
2112.41	93.3186
2113.86	95.7076
2115.32	99.0215
2116.77	102.712
2118.22	106.064
2119.67	109.474
2121.12	113.565
2122.57	116.278
2124.02	119.678
2125.47	122.239
2126.92	125.696
2128.37	129.965
2129.82	134.407
2131.27	138.258
2132.72	142.077
2134.17	145.7
2135.62	150.356
2137.06	153.812
2138.51	158.336
2139.96	162.841
2141.41	166.539
2142.85	169.501
2144.3	173.958
2145.75	177.401
2147.19	180.457
2148.64	184.246
2150.09	187.347
2151.53	191.137
2152.97	193.978
2154.42	196.657
2155.86	199.961
2157.31	201.397
2158.75	203.382
2160.2	205.114
2161.64	206.652
2163.08	208.914
2164.53	209.736
2165.97	209.369
2167.41	210.1
2168.86	210.852
2170.3	210.748
2171.74	210.239
2173.18	210.056
2174.62	209.966
2176.06	209.25
2177.5	207.731
2178.94	205.01
2180.38	203.07
2181.82	201.321
2183.26	199.427
2184.7	196.393
2186.14	193.813
2187.58	190.911
2189.02	187.909
2190.46	184.236
2191.89	180.525
2193.33	177.259
2194.77	172.964
2196.21	169.477
2197.64	166.544
2199.08	164.316
2200.52	160.61
2201.95	157.308
2203.39	153.525
2204.83	148.806
2206.26	144.95
2207.7	141.351
2209.13	137.132
2210.57	134.214
2212	131.17
2213.43	126.975
2214.87	123.668
2216.3	120.66
2217.73	117.017
2219.17	113.416
2220.6	110.507
2222.03	107.258
2223.47	104.686
2224.9	100.863
2226.33	97.7779
2227.76	94.9468
2229.19	91.5376
2230.62	88.5344
2232.05	85.1489
2233.49	82.7664
2234.91	80.1974
2236.34	77.5651
2237.77	76.328
2239.2	74.1511
2240.63	71.3501
2242.06	68.3505
2243.49	66.8214
2244.92	65.2792
2246.35	63.5959
2247.78	61.752
2249.2	59.9673
2250.63	57.8971
2252.06	56.102
2253.48	55.4292
2254.91	53.6246
2256.34	51.6966
2257.76	51.0637
2259.19	49.6878
2260.61	48.7665
2262.04	48.3378
2263.46	47.3971
2264.89	46.5159
2266.31	45.5206
2267.74	44.4729
2269.16	44.3248
2270.59	42.8519
2272.01	41.0492
2273.43	40.0283
2274.85	39.2121
2276.28	37.5587
2277.7	36.652
2279.12	35.3193
2280.54	34.9096
2281.97	34.7455
2283.39	34.0945
2284.81	32.6222
2286.23	32.4479
2287.65	31.4458
2289.07	30.2906
2290.49	29.6121
2291.91	29.1651
2293.33	28.9569
2294.75	27.7578
2296.17	27.3676
2297.59	26.2799
2299.01	25.6897
2300.42	23.6325
2301.84	22.8904
2303.26	22.566
2304.68	22.6952
2306.1	22.7207
2307.51	21.399
2308.93	20.4535
2310.35	18.947
2311.76	18.5208
2313.18	18.3032
2314.59	18.2923
2316.01	16.9713
2317.43	16.9333
2318.84	16.6392
2320.26	16.447
2321.67	15.7904
2323.08	15.9641
2324.5	16.4108
2325.91	14.617
2327.33	13.5312
2328.74	12.737
2330.15	11.936
2331.56	12.2933
2332.98	12.0424
2334.39	11.3576
2335.8	10.6897
2337.21	10.6534
2338.62	10.514
2340.04	11.2012
2341.45	10.6425
2342.86	10.1984
2344.27	9.48053
2345.68	9.24841
2347.09	8.56093
2348.5	7.84169
2349.91	7.8662
2351.31	8.22382
2352.72	7.92246
2354.13	7.7248
2355.54	7.31542
2356.95	7.02178
2358.36	5.95362
2359.76	5.58121
2361.17	5.81135
2362.58	5.60208
2363.98	5.88952
2365.39	4.79723
2366.8	4.37353
2368.21	3.68287
2369.61	3.99358
2371.02	4.40604
2372.42	5.37396
2373.83	5.32465
2375.23	4.89992
2376.64	4.57177
2378.04	3.37531
2379.44	4.23591
2380.85	3.91986
2382.25	3.68664
2383.66	4.13928
2385.06	4.05669
2386.46	3.90815
2387.86	4.39777
2389.26	4.17514
2390.67	4.35811
2392.07	4.70582
2393.47	4.9695
2394.87	4.71949
2396.27	3.43282
2397.67	3.61826
2399.07	4.30118
2400.47	5.65751
2401.87	6.09999
2403.27	5.78312
2404.67	5.75121
2406.07	5.97251
2407.47	7.44249
2408.87	7.59206
2410.27	7.52241
2411.67	6.7201
2413.07	6.70311
2414.46	6.87037
2415.86	7.56194
2417.26	7.39354
2418.66	7.9021
2420.05	8.82765
2421.45	9.95282
2422.84	10.468
2424.24	10.7403
2425.64	10.8812
2427.03	10.5955
2428.43	10.9269
2429.82	12.0508
2431.22	11.5636
2432.61	11.6258
2434.01	11.2806
2435.4	11.4166
2436.79	11.4248
2438.19	12.0835
2439.58	12.3859
2440.97	12.0756
2442.37	11.6767
2443.76	11.1463
2445.15	11.1696
2446.54	11.0136
2447.93	10.5959
2449.33	10.5867
2450.72	10.374
2452.11	10.4684
2453.5	10.3156
2454.89	8.98697
2456.28	9.03162
2457.67	8.50235
2459.06	8.56692
2460.45	7.76557
2461.84	6.99885
2463.23	6.01043
2464.62	5.39977
2466	4.65209
2467.39	5.01353
2468.78	4.70245
2470.17	4.92178
2471.55	4.07099
2472.94	3.25678
2474.33	3.20067
2475.72	3.77966
2477.1	3.72841
2478.49	4.0122
2479.87	4.28652
2481.26	4.31894
2482.65	5.38912
2484.03	5.88965
2485.42	5.86827
2486.8	5.75421
2488.19	5.45263
2489.57	5.55025
2490.95	5.26191
2492.34	4.35533
2493.72	3.60543
2495.1	3.35502
2496.49	2.89982
2497.87	2.97547
2499.25	2.96704
2500.63	2.66859
2502.02	3.09514
2503.4	3.16013
2504.78	3.03166
2506.16	2.36617
2507.54	2.38551
2508.92	2.62293
2510.3	2.63679
2511.68	2.55013
2513.06	1.92539
2514.44	1.63029
2515.82	1.40359
2517.2	1.4219
2518.58	1.25209
2519.96	1.49254
2521.34	1.06282
2522.72	0.9744
2524.1	0.63544
2525.47	1.59109
2526.85	0.991192
2528.23	1.54802
2529.6	1.24994
2530.98	1.75005
2532.36	2.69614
2533.74	3.48256
2535.11	3.78039
2536.49	4.64504
2537.86	4.74505
2539.24	5.79677
2540.61	6.19315
2541.99	6.45935
2543.36	6.94179
2544.74	7.49891
2546.11	8.18957
2547.49	9.13008
2548.86	8.59568
2550.23	8.85273
2551.61	8.86874
2552.98	8.79209
2554.35	8.32328
2555.72	8.17504
2557.09	8.5346
2558.47	9.63121
2559.84	8.92983
2561.21	8.87417
2562.58	9.0873
2563.95	9.11062
2565.32	8.29867
2566.69	8.60922
2568.06	9.08033
2569.43	8.87998
2570.8	8.5023
2572.17	8.08802
2573.54	7.13285
2574.91	7.33465
2576.28	7.04196
2577.65	6.43861
2579.02	5.96769
2580.39	5.78351
2581.75	5.25962
2583.12	4.9124
2584.49	4.90633
2585.85	4.72266
2587.22	4.56027
2588.59	4.78396
2589.95	4.55104
2591.32	4.34768
2592.68	3.86724
2594.05	4.06656
2595.42	3.31292
2596.78	3.75016
2598.15	2.94927
2599.51	2.86573
2600.88	3.47157
2602.24	2.48749
2603.6	2.58059
2604.97	1.80411
2606.33	1.7443
2607.69	1.63624
2609.06	1.32185
2610.42	0.885618
2611.78	0.606053
2613.14	1.31693
2614.51	1.49579
2615.87	1.33662
2617.23	1.22281
2618.59	1.65249
2619.95	1.49888
2621.31	1.68323
2622.67	1.54644
2624.03	1.35146
2625.39	2.23736
2626.75	1.86432
2628.11	0.897826
2629.47	1.48418
2630.83	1.39408
2632.19	0.727452
2633.55	0.269834
2634.91	0.744808
2636.26	1.1256
2637.62	0.499024
2638.98	0.621206
2640.34	0.116814
2641.69	0.42142
2643.05	0.87181
2644.41	1.01557
2645.76	0.513471
2647.12	1.49467
2648.48	1.88793
2649.83	1.67839
2651.19	1.82058
2652.54	2.26379
2653.9	2.64991
2655.25	2.8048
2656.6	2.57544
2657.96	2.2622
2659.31	1.62448
2660.67	1.34198
2662.02	1.89958
2663.37	2.21286
2664.73	1.96881
2666.08	1.72384
2667.43	1.5135
2668.78	1.72583
2670.14	0.860213
2671.49	1.51497
2672.84	1.1636
2674.19	2.16177
2675.54	1.52894
2676.89	1.25957
2678.24	1.86652
2679.59	1.98212
2680.94	2.11826
2682.29	2.02216
2683.64	2.2252
2684.99	2.92496
2686.34	3.46403
2687.69	3.5714
2689.04	4.56138
2690.39	5.5643
2691.74	5.19262
2693.08	5.75392
2694.43	5.40121
2695.78	5.36693
2697.13	6.05727
2698.47	5.98051
2699.82	5.85742
2701.17	6.32871
2702.51	7.35358
2703.86	8.18973
2705.21	8.03933
2706.55	8.65442
2707.9	9.42478
2709.24	10.1955
2710.58	10.4834
2711.93	11.2915
2713.27	11.5893
2714.62	12.6138
2715.96	13.24
2717.3	13.7158
2718.65	13.9442
2719.99	14.1494
2721.33	14.1411
2722.68	14.1339
2724.02	14.0823
2725.36	13.9925
2726.71	13.9947
2728.05	14.7552
2729.39	15.5979
2730.73	15.4378
2732.07	15.7744
2733.41	15.6072
2734.75	15.6863
2736.09	16.2925
2737.43	15.9487
2738.77	16.3503
2740.11	16.0594
2741.45	15.7163
2742.79	14.8582
2744.13	14.689
2745.47	15.0284
2746.81	14.253
2748.14	13.7229
2749.48	13.1313
2750.82	13.0069
2752.16	13.4581
2753.49	12.2715
2754.83	11.6024
2756.17	10.8197
2757.5	9.53334
2758.84	7.96638
2760.18	7.73096
2761.51	6.72065
2762.85	6.97481
2764.18	7.00145
2765.52	6.41943
2766.85	5.27577
2768.19	4.81983
2769.52	4.47936
2770.86	4.19638
2772.19	3.353
2773.52	2.97166
2774.86	2.90569
2776.19	1.6335
2777.52	1.28606
2778.86	0.973591
2780.19	0.387013
2781.52	0.146176
2782.85	-0.113282
2784.19	-0.42558
2785.52	-0.734177
2786.85	-1.27964
2788.18	-1.28911
2789.51	-0.930631
2790.84	-1.02206
2792.17	-0.790501
2793.5	-0.804663
2794.83	-0.508663
2796.16	-0.625536
2797.49	-0.584906
2798.82	-0.432708
2800.15	-1.01908
2801.48	-1.51448
2802.81	-2.12066
2804.13	-2.60168
2805.46	-3.13325
2806.79	-3.7507
2808.12	-4.40713
2809.45	-4.70656
2810.77	-4.65722
2812.1	-4.75215
2813.43	-5.49389
2814.75	-5.60995
2816.08	-5.07408
2817.41	-3.89636
2818.73	-2.61056
2820.06	-1.0563
2821.38	2.22444
2822.71	6.08257
2824.03	9.32705
2825.36	13.3328
2826.68	18.4041
2828	22.5939
2829.33	27.7268
2830.65	31.9288
2831.98	36.3985
2833.3	41.3386
2834.62	47.5766
2835.94	53.1389
2837.27	58.6412
2838.59	64.0697
2839.91	70.2081
2841.23	76.7053
2842.55	83.1929
2843.87	91.2005
2845.2	99.6729
2846.52	107.538
2847.84	115.925
2849.16	124.832
2850.48	134.756
2851.8	144.401
2853.12	153.908
2854.44	163.409
2855.76	172.481
2857.08	181.339
2858.39	190.27
2859.71	199.041
2861.03	207.477
2862.35	215.709
2863.67	223.824
2864.98	230.443
2866.3	237.403
2867.62	243.426
2868.94	249.294
2870.25	254.869
2871.57	259.841
2872.88	264.821
2874.2	269.163
2875.52	273.575
2876.83	277.826
2878.15	281.485
2879.46	284.984
2880.78	289.836
2882.09	293.89
2883.41	298.159
2884.72	302.504
2886.03	307.09
2887.35	311.125
2888.66	314.834
2889.97	317.635
2891.29	321.003
2892.6	324.785
2893.91	327.49
2895.22	331.842
2896.54	335.739
2897.85	340.35
2899.16	345.019
2900.47	350.574
2901.78	356.364
2903.09	362.341
2904.4	370.162
2905.71	377.375
2907.02	385.884
2908.33	395.471
2909.64	404.855
2910.95	415.071
2912.26	424.517
2913.57	434.709
2914.88	445.239
2916.19	454.732
2917.5	463.733
2918.81	471.695
2920.11	478.999
2921.42	485.749
2922.73	492.599
2924.04	497.586
2925.34	502.27
2926.65	504.94
2927.96	507.633
2929.26	509.094
2930.57	509.629
2931.87	509.752
2933.18	508.361
2934.49	506.857
2935.79	504.177
2937.1	501.006
2938.4	497.896
2939.7	492.968
2941.01	487.275
2942.31	480.946
2943.62	474.052
2944.92	465.831
2946.22	458.559
2947.53	449.902
2948.83	441.538
2950.13	432.875
2951.43	424.222
2952.74	414.986
2954.04	404.633
2955.34	394.541
2956.64	384.342
2957.94	375.221
2959.24	365.639
2960.54	356.296
2961.84	346.368
2963.15	336.885
2964.45	327.492
2965.75	319.173
2967.05	309.786
2968.34	300.563
2969.64	291.913
2970.94	282.072
2972.24	274.16
2973.54	266.097
2974.84	256.748
2976.14	248.136
2977.43	239.107
2978.73	230.363
2980.03	221.374
2981.33	211.455
2982.62	202.045
2983.92	192.535
2985.22	182.794
2986.51	172.894
2987.81	163.694
2989.11	153.41
2990.4	144.548
2991.7	135.362
2992.99	126.414
2994.29	118.152
2995.58	110.012
2996.88	102.6
2998.17	95.7722
2999.46	88.8411
3000.76	81.6578
3002.05	75.0533
3003.34	68.2443
3004.64	61.636
3005.93	56.4542
3007.22	51.4415
3008.52	46.8234
3009.81	42.6558
3011.1	39.489
3012.39	35.5827
3013.68	32.594
3014.97	30.0736
3016.27	27.4151
3017.56	24.9274
3018.85	22.2366
3020.14	20.8096
3021.43	19.4226
3022.72	18.6086
3024.01	16.8264
3025.3	15.9519
3026.59	15.0297
3027.88	15.267
3029.16	15.3987
3030.45	15.5578
3031.74	14.8695
3033.03	15.8055
3034.32	16.2206
3035.6	17.2378
3036.89	18.2177
3038.18	19.1836
3039.47	19.8179
3040.75	21.1465
3042.04	21.6692
3043.33	22.5518
3044.61	23.1052
3045.9	23.475
3047.18	24.3901
3048.47	24.8152
3049.75	25.0691
3051.04	25.6684
3052.32	25.4025
3053.61	25.4577
3054.89	25.8364
3056.18	26.2558
3057.46	25.871
3058.74	26.3781
3060.03	25.8084
3061.31	25.3004
3062.59	23.5985
3063.88	22.6038
3065.16	21.6101
3066.44	20.3205
3067.72	20.0465
3069	19.3799
3070.29	18.4488
3071.57	17.1332
3072.85	15.7582
3074.13	14.261
3075.41	12.4254
3076.69	11.3129
3077.97	10.5918
3079.25	9.05571
3080.53	6.91843
3081.81	5.46225
3083.09	4.42519
3084.37	3.65432
3085.65	2.82133
3086.93	2.09811
3088.21	1.17293
3089.49	1.76963
3090.76	1.55164
3092.04	2.37656
3093.32	1.74707
3094.6	2.03626
3095.87	1.84301
3097.15	2.64654
3098.43	2.53142
3099.7	2.83026
3100.98	3.30749
3102.26	4.45006
3103.53	5.11027
3104.81	5.53239
3106.08	5.8058
3107.36	7.01015
3108.63	7.26955
3109.91	8.3703
3111.18	9.68875
3112.46	10.1141
3113.73	11.7083
3115	12.6059
3116.28	13.4829
3117.55	16.0314
3118.83	17.6121
3120.1	19.0187
3121.37	19.968
3122.64	21.5568
3123.92	22.6292
3125.19	24.3253
3126.46	26.2059
3127.73	28.7728
3129	30.4172
3130.27	31.9387
3131.55	33.9287
3132.82	34.8525
3134.09	36.5425
3135.36	37.761
3136.63	39.1229
3137.9	41.1034
3139.17	43.1055
3140.44	45.1957
3141.71	47.4245
3142.98	49.8386
3144.24	52.6256
3145.51	55.2344
3146.78	57.6806
3148.05	60.6244
3149.32	63.66
