#Acq. time (s)=	45
#Accumulations=	2
#Range (cm-¹)=	200...3150
#Windows=	2
#Auto scanning=	Off
#Autofocus=	Off
#Macrospot=	Off
#AutoExposure=	Off
#Spike filter=	Multiple accum.
#Delay time (s)=	0
#Binning=	1
#Readout mode=	Signal
#DeNoise=	Off
#ICS correction=	On
#Dark correction=	Off
#Inst. Process=	Off
#Detector Gain=	Best Dynamic Range
#Detector ADC=	20 kHz       
#Detector temperature (°C)=	-69.85
#Instrument=	LabRAM HR Evol
#Detector=	Synapse
#Objective=	x100
#Grating=	600 gr/mm
#ND Filter=	100%
#Laser (nm)=	532 
#Hole=	100.021
#Range=	Auto
#Laser Pol.=	No
#Raman. Pol.=	No
#Laser Pol. (°)=	-0.0007625
#Raman Pol. (°)=	89.9995
#Collection=	Microscope
#StageXY=	Marzhauser
#StageZ=	Marzhauser
#X (µm)=	-5929.2
#Y (µm)=	2832.7
#Z (µm)=	-223.85
#Full time(mm:ss)=	3:18
#Project=	
#Sample=	
#Site=	
#Title=	Thy_20_09_01_2x_45s_532 nm_x100_100%_600 gr_mm
#Remark=	
#Date=	29.06.2022 10:38
#Acquired=	29.06.2022 10:38:44
#Base:Fit=	10.08.2022 09:49:32
#Base:Fit=	10.08.2022 09:49:42
#Base:Fit=	10.08.2022 09:49:53
#Base:Fit=	10.08.2022 09:50:12
#Base:Fit=	10.08.2022 09:50:26
#Base:Fit=	10.08.2022 09:50:30
#Base:Fit=	10.08.2022 09:50:43
#Base:Fit=	10.08.2022 09:52:02
#Base:Fit=	10.08.2022 09:52:12
#Base:Sub=	10.08.2022 09:54:21
#Filter:Polynom=	16.08.2022 10:24:04
#AxisType[0]=Intens
#AxisUnit[0]=Cnt
#AxisType[1]=Spectr
#AxisUnit[1]=1/cm
200.523	52.8735
202.339	50.8494
204.154	48.156
205.967	44.0767
207.781	40.7023
209.596	37.6426
211.409	34.106
213.222	30.9559
215.034	28.1991
216.848	26.8877
218.659	25.1728
220.47	24.2088
222.281	22.5639
224.091	22.4809
225.903	21.7233
227.713	20.6489
229.522	19.6611
231.331	18.541
233.14	17.5345
234.948	16.0482
236.756	14.135
238.566	14.1454
240.373	13.5648
242.18	12.659
243.986	12.6078
245.792	12.3516
247.598	11.3369
249.403	10.8813
251.208	10.2395
253.013	9.59839
254.818	8.58547
256.624	7.51796
258.427	7.22234
260.231	6.1787
262.034	6.1364
263.836	6.4447
265.638	6.56578
267.44	6.59061
269.242	7.30818
271.043	8.41699
272.844	9.33739
274.645	10.145
276.445	10.879
278.245	11.6991
280.044	12.344
281.843	12.1461
283.642	11.1512
285.44	10.1074
287.238	10.2965
289.036	11.0199
290.833	10.3978
292.63	11.9166
294.425	12.8338
296.221	14.623
298.017	15.4757
299.813	16.327
301.608	17.4187
303.403	20.1659
305.198	21.0633
306.992	22.7873
308.786	22.614
310.579	23.782
312.371	24.3517
314.163	25.5487
315.956	25.3226
317.748	25.6142
319.54	25.4339
321.331	25.2983
323.122	25.4523
324.911	25.4284
326.701	25.6015
328.491	25.625
330.281	25.3747
332.071	24.3179
333.857	24.0409
335.646	23.2231
337.434	21.7021
339.222	21.2347
341.008	19.8173
342.795	19.2187
344.582	18.5209
346.369	18.9908
348.153	18.7266
349.939	17.2542
351.724	17.7092
353.51	17.5012
355.292	17.3048
357.077	18.3428
358.861	18.4217
360.643	18.0902
362.426	17.0801
364.21	15.9712
365.99	15.1818
367.773	14.1864
369.555	14.0268
371.335	12.823
373.116	12.8417
374.897	12.2337
376.676	12.6076
378.456	12.1646
380.236	12.6578
382.014	12.6871
383.793	12.6544
385.57	13.031
387.349	13.0854
389.127	13.0998
390.903	12.9525
392.681	12.053
394.456	10.7952
396.233	11.1263
398.007	9.62319
399.784	9.31684
401.56	8.3605
403.333	8.14844
405.108	7.1761
406.881	6.622
408.656	6.44063
410.428	5.51392
412.202	4.72344
413.973	4.87863
415.746	4.94982
417.517	5.16248
419.29	6.36441
421.06	5.76775
422.831	7.21312
424.601	7.00226
426.37	6.59402
428.141	6.50064
429.909	6.03014
431.679	6.31052
433.447	6.55878
435.216	6.07615
436.983	6.12489
438.75	6.11951
440.519	6.07844
442.285	6.22081
444.052	7.07299
445.818	7.73635
447.583	6.45683
449.349	6.75166
451.114	7.85292
452.878	8.58479
454.643	10.3546
456.407	10.6747
458.169	11.6938
459.934	11.8656
461.696	12.422
463.458	12.6648
465.222	14.1012
466.983	14.8327
468.744	16.4942
470.507	16.915
472.267	17.9418
474.027	18.7978
475.787	18.477
477.548	18.3093
479.307	18.7143
481.065	18.4103
482.823	18.5544
484.583	19.4451
486.341	19.45
488.098	21.1056
489.855	21.9579
491.612	23.1125
493.37	22.5039
495.126	24.4591
496.881	24.9168
498.636	24.8738
500.391	26.3394
502.148	27.5063
503.902	27.3061
505.656	26.3369
507.409	26.1272
509.162	25.4597
510.915	25.5718
512.668	24.272
514.42	23.7841
516.174	23.7645
517.925	24.2981
519.676	24.3389
521.427	23.7942
523.178	23.0983
524.928	23.8611
526.678	24.0613
528.427	22.5764
530.176	22.3702
531.925	22.9961
533.673	22.6556
535.422	22.482
537.169	22.9599
538.917	22.2924
540.664	21.0575
542.411	20.2619
544.157	18.8824
545.903	17.7889
547.649	17.034
549.395	16.7508
551.14	16.2404
552.884	15.4848
554.629	14.4988
556.373	14.8075
558.117	13.9784
559.86	12.4811
561.603	10.9709
563.346	9.66663
565.089	9.81714
566.831	9.35762
568.573	9.23746
570.314	9.52326
572.053	9.51608
573.794	8.44443
575.534	7.6428
577.274	7.29671
579.014	7.65952
580.754	7.1719
582.493	7.82548
584.23	6.31523
585.968	6.65857
587.706	6.25914
589.444	6.03659
591.181	5.46858
592.919	4.77039
594.653	4.81924
596.39	5.03463
598.126	4.45636
599.862	3.8888
601.595	4.2681
603.33	4.23604
605.065	4.7207
606.8	4.17149
608.532	3.53838
610.266	4.0184
611.999	4.69269
613.732	4.30997
615.463	3.25455
617.196	5.63002
618.928	6.39335
620.66	6.08906
622.389	7.23415
624.12	8.26694
625.851	8.17081
627.58	8.40718
629.31	9.08254
631.04	10.1451
632.767	10.1802
634.497	11.79
636.223	12.4074
637.952	12.6089
639.68	12.7782
641.406	14.0656
643.134	14.9088
644.861	13.7887
646.586	13.6476
648.312	14.3368
650.037	14.7043
651.762	15.7722
653.486	15.5013
655.211	15.6827
656.936	15.5575
658.659	16.145
660.383	17.0183
662.105	18.1672
663.829	19.2953
665.55	19.4944
667.273	18.2771
668.994	17.9821
670.716	17.3557
672.436	17.3813
674.158	16.9383
675.877	17.5917
677.598	16.2838
679.317	16.538
681.035	16.2876
682.755	16.4797
684.473	15.8261
686.192	17.3099
687.909	18.416
689.628	19.3733
691.344	21.4534
693.06	22.0369
694.778	21.5663
696.493	22.866
698.211	23.8539
699.925	25.3045
701.64	25.9843
703.356	28.1161
705.07	27.883
706.783	28.4923
708.498	30.8723
710.211	31.2275
711.924	31.8565
713.638	32.7216
715.35	34.5494
717.061	36.5049
718.774	37.062
720.485	38.5154
722.196	38.2633
723.906	39.1022
725.618	39.7188
727.328	41.0852
729.037	41.3817
730.746	41.554
732.456	43.6275
734.165	43.9585
735.873	43.8732
737.58	44.3029
739.289	44.4733
740.997	45.4569
742.703	46.6869
744.41	47.8381
746.116	48.4056
747.823	49.0321
749.529	49.069
751.234	48.256
752.938	48.3745
754.643	50.6462
756.347	52.3927
758.051	53.3618
759.756	54.9947
761.459	57.141
763.162	57.8506
764.865	58.7171
766.567	59.3498
768.269	60.7725
769.97	63.436
771.671	65.3013
773.372	65.5324
775.073	66.6714
776.773	68.0336
778.473	67.9944
780.174	66.9045
781.874	68.0507
783.573	68.1513
785.271	69.0854
786.97	69.458
788.668	70.7058
790.365	70.9234
792.063	72.0662
793.76	72.4393
795.456	71.987
797.153	72.2694
798.847	73.324
800.543	75.8329
802.238	77.0763
803.933	76.4119
805.628	76.1298
807.322	75.8646
809.017	76.4359
810.71	76.9694
812.404	77.333
814.097	77.4924
815.79	78.0599
817.483	77.7289
819.173	76.1358
820.865	75.478
822.556	76.3237
824.248	75.5965
825.939	76.3348
827.629	76.0335
829.318	75.9062
831.008	75.5931
832.697	75.0389
834.387	74.8936
836.076	74.3585
837.765	75.0103
839.451	75.3009
841.139	75.0677
842.827	74.1121
844.514	74.6253
846.2	73.779
847.886	71.3594
849.573	69.6612
851.259	69.1005
852.943	68.7629
854.629	67.2382
856.314	64.2663
857.997	62.5726
859.682	62.236
861.366	61.0882
863.05	58.4898
864.732	56.0287
866.415	55.5911
868.098	54.5842
869.779	54.5697
871.461	52.7362
873.141	51.8988
874.823	50.335
876.505	48.8468
878.184	47.2718
879.865	46.7304
881.545	46.9601
883.223	46.6774
884.903	46.2128
886.581	44.5173
888.26	43.6074
889.937	42.9651
891.616	42.4003
893.294	41.4991
894.97	41.1177
896.648	40.6835
898.323	40.5898
900	39.7837
901.675	39.0892
903.351	38.4389
905.026	38.3933
906.701	38.2998
908.375	38.0373
910.05	38.5839
911.723	37.7231
913.398	37.909
915.07	38.7648
916.742	38.5591
918.415	37.9087
920.087	36.5132
921.76	36.6183
923.43	36.5796
925.103	36.0063
926.773	35.4068
928.443	35.166
930.114	34.0849
931.783	33.2763
933.454	33.329
935.123	32.7331
936.791	32.8171
938.461	31.6075
940.128	31.4877
941.796	30.261
943.464	29.1234
945.131	28.1756
946.797	26.8563
948.465	26.4322
950.131	26.999
951.797	26.435
953.462	25.6376
955.128	23.9638
956.793	23.0993
958.457	21.3675
960.121	19.4859
961.786	19.0164
963.45	19.2047
965.113	19.8589
966.775	19.9324
968.44	21.7147
970.102	22.3915
971.763	23.1797
973.425	23.1222
975.086	23.1313
976.748	24.1569
978.409	26.1487
980.069	26.312
981.729	25.8538
983.388	25.5804
985.048	25.3912
986.708	24.7272
988.367	25.5946
990.025	25.9921
991.683	26.2565
993.341	25.5231
994.998	26.7999
996.655	27.9721
998.312	27.1185
999.969	26.4833
1001.62	25.6378
1003.28	26.1666
1004.94	26.6213
1006.59	26.3747
1008.25	26.3686
1009.9	27.2675
1011.56	26.9277
1013.21	26.0294
1014.86	24.7381
1016.52	23.9397
1018.17	22.9164
1019.82	21.7146
1021.48	19.5044
1023.13	18.2375
1024.78	17.3218
1026.43	17.5635
1028.08	16.5372
1029.73	14.9855
1031.38	14.837
1033.03	14.5625
1034.68	13.5008
1036.33	10.7696
1037.98	10.1716
1039.63	9.97095
1041.28	10.316
1042.93	9.82219
1044.57	10.1467
1046.22	11.1749
1047.87	11.7201
1049.52	11.8922
1051.16	12.7908
1052.81	12.0805
1054.45	12.029
1056.1	10.2885
1057.75	9.36557
1059.39	8.17697
1061.04	7.30066
1062.68	6.2018
1064.32	7.41371
1065.97	7.74398
1067.61	8.15594
1069.25	8.94337
1070.9	10.4685
1072.54	10.8888
1074.18	10.4554
1075.82	11.0321
1077.47	11.0345
1079.11	10.1989
1080.75	8.99442
1082.39	10.6748
1084.03	11.6761
1085.67	12.3706
1087.31	11.9324
1088.95	11.952
1090.59	13.1897
1092.22	14.0714
1093.86	13.8517
1095.5	13.7505
1097.14	13.8072
1098.78	14.5934
1100.41	14.63
1102.05	14.3697
1103.69	15.269
1105.32	15.8467
1106.96	16.4282
1108.59	15.1744
1110.23	14.4664
1111.86	14.6406
1113.5	14.8121
1115.13	14.0299
1116.77	12.4687
1118.4	11.186
1120.03	12.2793
1121.67	11.6354
1123.3	10.3396
1124.93	7.94779
1126.56	7.40259
1128.19	7.43739
1129.83	6.49214
1131.46	6.60709
1133.09	6.38683
1134.72	5.41774
1136.35	4.49062
1137.98	4.006
1139.61	4.69051
1141.24	4.51807
1142.86	5.29316
1144.49	6.74634
1146.12	6.62448
1147.75	4.64461
1149.38	5.18449
1151	5.18923
1152.63	5.24213
1154.26	4.01352
1155.88	3.08006
1157.51	2.90589
1159.14	2.82444
1160.76	2.39789
1162.39	3.2528
1164.01	3.90212
1165.63	3.38434
1167.26	3.06928
1168.88	4.14561
1170.51	4.54377
1172.13	5.95457
1173.75	5.64531
1175.38	5.51858
1177	5.67354
1178.62	5.9619
1180.24	5.62441
1181.86	4.88487
1183.48	4.78548
1185.1	4.83829
1186.72	4.45105
1188.34	5.49211
1189.96	3.81805
1191.58	3.88373
1193.2	3.92774
1194.82	4.68695
1196.44	5.14559
1198.06	4.97184
1199.68	5.76987
1201.29	6.75768
1202.91	7.84542
1204.53	10.3499
1206.14	12.9777
1207.76	15.7904
1209.38	18.119
1210.99	20.6176
1212.61	22.6186
1214.22	24.0211
1215.84	26.5132
1217.45	28.3474
1219.07	30.5496
1220.68	31.7949
1222.29	34.0369
1223.91	36.5705
1225.52	38.8959
1227.13	40.3796
1228.74	42.6124
1230.36	45.1844
1231.97	47.5261
1233.58	49.7197
1235.19	50.9641
1236.8	51.9163
1238.41	52.435
1240.02	53.5698
1241.63	53.9947
1243.24	56.0692
1244.85	57.7617
1246.46	58.661
1248.07	60.4263
1249.67	60.3999
1251.28	60.0653
1252.89	60.5564
1254.5	60.6195
1256.1	60.1149
1257.71	59.9558
1259.32	60.153
1260.92	59.925
1262.53	59.7005
1264.13	60.2839
1265.74	60.3523
1267.34	61.0114
1268.95	61.5102
1270.55	60.7534
1272.15	62.2273
1273.76	63.4785
1275.36	64.3882
1276.97	64.4946
1278.57	64.5746
1280.17	66.8528
1281.77	68.7529
1283.37	70.7599
1284.97	72.3099
1286.58	73.55
1288.18	74.2461
1289.78	75.3432
1291.38	75.5243
1292.98	77.0809
1294.58	79.2268
1296.18	81.1274
1297.78	81.9541
1299.37	84.3229
1300.97	87.0563
1302.57	89.7947
1304.17	91.7931
1305.77	94.1397
1307.36	95.5025
1308.96	96.932
1310.55	99.222
1312.15	100.552
1313.75	100.823
1315.34	100.895
1316.94	102.211
1318.53	102.397
1320.13	103.923
1321.72	105.163
1323.32	106.181
1324.91	107.384
1326.5	106.397
1328.1	106.396
1329.69	105.479
1331.28	105.773
1332.87	104.462
1334.47	103.95
1336.06	103.094
1337.65	103.289
1339.24	102.83
1340.83	102.179
1342.42	100.243
1344.01	98.8724
1345.6	97.6215
1347.19	96.9539
1348.78	94.8786
1350.37	91.9592
1351.96	88.6696
1353.54	86.429
1355.13	84.1957
1356.72	81.8687
1358.31	80.337
1359.89	78.8838
1361.48	77.2596
1363.07	75.7324
1364.65	73.3155
1366.24	71.1542
1367.82	68.8082
1369.41	66.7311
1370.99	65.2388
1372.58	65.6047
1374.16	63.9854
1375.75	63.237
1377.33	62.5497
1378.91	62.4385
1380.5	62.0651
1382.08	60.5784
1383.66	58.2035
1385.25	57.1432
1386.83	55.9063
1388.41	55.5233
1389.99	54.968
1391.57	52.5077
1393.15	52.6968
1394.73	52.763
1396.31	52.5654
1397.89	52.0219
1399.47	53.6769
1401.05	53.6255
1402.63	53.3561
1404.21	52.6654
1405.78	51.9169
1407.36	52.4346
1408.94	53.6748
1410.52	54.931
1412.1	54.6924
1413.67	57.4716
1415.25	57.9604
1416.82	59.4036
1418.4	61.1115
1419.98	62.8743
1421.55	64.3273
1423.13	65.4328
1424.7	67.1542
1426.28	69.0642
1427.85	70.7877
1429.42	72.8438
1431	75.5879
1432.57	79.8062
1434.14	81.9867
1435.71	85.5148
1437.29	88.3818
1438.86	90.037
1440.43	91.1274
1442	91.5302
1443.57	92.3025
1445.14	93.6672
1446.71	94.4454
1448.28	94.6279
1449.85	95.0154
1451.42	95.3088
1452.99	94.9386
1454.56	94.5604
1456.13	93.7446
1457.7	92.0266
1459.26	91.2023
1460.83	89.3924
1462.4	87.2219
1463.97	84.8425
1465.54	81.9573
1467.1	78.7346
1468.67	75.1687
1470.23	72.9678
1471.8	70.911
1473.36	68.1207
1474.93	65.4035
1476.49	61.6918
1478.06	58.0836
1479.62	54.2143
1481.19	50.7121
1482.75	47.7414
1484.31	45.3586
1485.88	42.5337
1487.44	40.1504
1489	37.3957
1490.56	34.062
1492.13	33.4945
1493.69	30.0545
1495.25	29.4858
1496.81	28.2597
1498.37	27.4293
1499.93	27.0442
1501.49	25.4184
1503.05	26.1017
1504.61	26.4261
1506.17	26.5629
1507.73	26.0092
1509.28	26.7238
1510.84	26.8238
1512.4	27.1806
1513.96	27.6921
1515.52	26.7649
1517.07	26.0378
1518.63	25.7271
1520.19	26.505
1521.74	27.9602
1523.3	28.7795
1524.85	28.1826
1526.41	29.2074
1527.96	30.9999
1529.52	31.8745
1531.07	32.3691
1532.63	32.8081
1534.18	33.488
1535.73	35.0618
1537.29	36.6141
1538.84	37.0204
1540.39	37.2983
1541.94	38.6311
1543.5	40.7053
1545.05	42.578
1546.6	44.0951
1548.15	47.3945
1549.7	49.2012
1551.25	50.7825
1552.8	52.4994
1554.35	54.1804
1555.9	56.1043
1557.45	59.1748
1559	61.0343
1560.55	63.9554
1562.1	66.5245
1563.65	68.7673
1565.19	71.577
1566.74	73.0838
1568.29	75.8162
1569.83	79.2035
1571.38	82.4003
1572.93	85.9319
1574.47	88.3267
1576.02	91.2848
1577.56	93.0546
1579.11	94.8728
1580.66	97.1436
1582.2	98.5349
1583.74	100.42
1585.29	101.907
1586.83	104.307
1588.38	105.408
1589.92	107.323
1591.46	107.77
1593.01	107.619
1594.55	107.264
1596.09	107.03
1597.63	106.146
1599.17	105.061
1600.71	103.338
1602.25	100.759
1603.79	100.505
1605.34	99.5035
1606.88	97.0156
1608.41	94.7642
1609.95	93.9792
1611.49	92.5431
1613.03	92.2048
1614.57	89.5778
1616.11	88.1984
1617.65	87.613
1619.18	85.8775
1620.72	85.1074
1622.26	83.3363
1623.79	81.5049
1625.33	82.1428
1626.87	80.8054
1628.4	80.1562
1629.94	80.2603
1631.48	80.1573
1633.01	80.2643
1634.55	82.1553
1636.08	82.4604
1637.61	84.0352
1639.15	85.0443
1640.68	85.6406
1642.21	87.1495
1643.75	87.593
1645.28	90.028
1646.81	91.7091
1648.34	92.1423
1649.88	91.7414
1651.41	93.0198
1652.94	94.0129
1654.47	93.9672
1656	93.9577
1657.53	94.0671
1659.06	94.0787
1660.59	93.827
1662.12	94.1317
1663.65	93.5953
1665.18	92.509
1666.71	90.0686
1668.24	86.7676
1669.76	84.0596
1671.29	83.0138
1672.82	80.5373
1674.35	78.0928
1675.87	74.7944
1677.4	72.4818
1678.93	68.9668
1680.45	67.103
1681.98	63.7048
1683.5	60.3545
1685.03	57.2302
1686.55	55.0176
1688.08	52.1687
1689.6	49.6113
1691.13	45.1187
1692.65	42.217
1694.17	38.9197
1695.7	35.8036
1697.22	32.906
1698.74	29.1576
1700.27	27.0376
1701.79	26.1938
1703.31	23.9513
1704.83	21.8429
1706.35	19.2777
1707.87	18.4742
1709.39	17.118
1710.91	16.4304
1712.43	14.7593
1713.95	13.5755
1715.47	12.4123
1716.99	10.625
1718.51	9.29933
1720.03	8.36279
1721.55	8.52359
1723.07	7.65348
1724.58	6.22883
1726.1	6.34856
1727.62	5.82466
1729.13	4.43264
1730.65	3.67731
1732.17	4.04779
1733.68	4.08496
1735.2	3.12076
1736.72	3.28575
1738.23	3.11068
1739.74	2.5242
1741.26	2.69782
1742.77	2.5259
1744.29	3.24354
1745.8	3.92314
1747.32	3.68268
1748.83	2.37677
1750.34	2.09508
1751.85	0.829855
1753.37	1.77357
1754.88	2.04635
1756.39	2.6712
1757.9	2.41016
1759.41	2.26504
1760.92	2.6209
1762.44	2.9203
1763.95	2.96522
1765.46	2.72766
1766.96	1.56491
1768.47	1.91546
1769.98	1.70533
1771.49	1.60567
1773	0.983857
1774.51	1.58338
1776.02	2.21397
1777.53	2.92416
1779.03	2.8853
1780.54	2.54197
1782.05	3.28541
1783.55	3.76447
1785.06	4.18038
1786.57	4.77967
1788.07	4.86779
1789.58	6.19875
1791.08	7.01298
1792.59	7.52502
1794.09	8.66504
1795.6	9.36698
1797.1	9.54513
1798.61	8.78222
1800.11	9.22104
1801.61	9.3796
1803.12	9.54657
1804.62	10.0064
1806.12	9.80685
1807.62	10.2674
1809.12	10.0674
1810.63	9.89834
1812.13	10.3392
1813.63	9.88047
1815.13	10.2009
1816.63	10.5798
1818.13	10.3225
1819.63	9.72068
1821.13	8.73335
1822.63	7.77372
1824.13	7.14131
1825.63	6.99898
1827.13	7.16209
1828.62	7.20581
1830.12	7.72094
1831.62	7.03276
1833.12	7.11163
1834.61	6.89864
1836.11	6.98427
1837.61	5.76115
1839.1	5.94769
1840.6	5.68039
1842.09	5.41508
1843.59	5.23426
1845.09	5.51685
1846.58	6.07151
1848.08	5.95135
1849.57	6.40957
1851.06	5.97634
1852.56	6.0628
1854.05	5.52927
1855.54	5.02084
1857.04	5.17288
1858.53	4.96885
1860.02	6.04837
1861.51	5.88726
1863.01	6.3318
1864.5	7.18898
1865.99	6.93353
1867.48	6.20279
1868.97	6.5554
1870.46	6.3536
1871.95	6.12219
1873.44	5.4099
1874.93	5.50622
1876.42	5.14499
1877.91	4.90594
1879.4	4.74991
1880.89	3.58632
1882.37	3.62939
1882.46	3.49806
1883.95	3.00931
1885.45	2.58775
1886.94	2.60115
1888.43	2.12562
1889.93	2.05121
1891.42	1.52115
1892.91	1.27157
1894.41	0.582815
1895.9	1.26129
1897.39	1.31466
1898.88	1.50016
1900.37	1.64669
1901.86	1.3284
1903.36	1.11003
1904.85	1.02288
1906.34	0.980751
1907.83	0.589601
1909.32	0.603964
1910.81	0.12135
1912.29	1.43981
1913.78	1.49852
1915.27	2.59351
1916.76	2.30914
1918.25	3.45097
1919.74	2.74677
1921.23	2.41385
1922.71	2.40992
1924.2	1.86628
1925.69	2.31622
1927.17	1.94672
1928.66	2.13686
1930.15	2.00815
1931.63	1.93173
1933.12	3.14189
1934.6	3.35784
1936.09	3.71898
1937.57	4.0354
1939.06	3.96856
1940.54	3.55806
1942.02	3.9774
1943.51	3.87546
1944.99	3.85512
1946.47	4.09363
1947.96	4.48746
1949.44	4.41445
1950.92	4.66689
1952.4	4.78674
1953.88	4.15614
1955.37	4.72465
1956.85	5.18464
1958.33	4.94858
1959.81	5.27451
1961.29	6.0086
1962.77	6.24346
1964.25	6.38113
1965.73	7.02513
1967.21	6.42462
1968.69	6.59897
1970.16	6.44092
1971.64	6.11643
1973.12	6.20523
1974.6	6.07862
1976.08	6.26074
1977.55	5.99723
1979.03	6.59397
1980.51	5.71457
1981.98	6.04093
1983.46	6.98874
1984.94	7.4632
1986.41	7.88456
1987.89	7.62093
1989.36	7.75046
1990.84	7.25335
1992.31	8.27185
1993.79	8.12875
1995.26	8.30191
1996.73	8.24358
1998.21	8.99602
1999.68	8.78389
2001.15	8.29587
2002.63	7.83805
2004.1	7.98904
2005.57	8.91126
2007.04	9.85867
2008.51	9.66693
2009.99	8.97788
2011.46	8.8726
2012.93	9.22985
2014.4	9.40258
2015.87	9.70791
2017.34	9.29026
2018.81	8.64447
2020.28	8.43061
2021.75	8.48892
2023.21	8.71242
2024.68	9.42681
2026.15	9.814
2027.62	9.3736
2029.09	8.79281
2030.56	8.26537
2032.02	8.26998
2033.49	7.86358
2034.96	7.22847
2036.42	6.5656
2037.89	5.89644
2039.36	6.06492
2040.82	5.20529
2042.29	6.59581
2043.75	6.10533
2045.22	6.3604
2046.68	6.51148
2048.14	5.61787
2049.61	6.11883
2051.07	5.58115
2052.54	5.67932
2054	5.94136
2055.46	6.04189
2056.93	6.58161
2058.39	6.95008
2059.85	6.99393
2061.31	6.96176
2062.77	7.34939
2064.23	7.92096
2065.7	7.22296
2067.16	6.92137
2068.62	6.81811
2070.08	6.93734
2071.54	7.5237
2073	6.46635
2074.46	7.77913
2075.92	8.66214
2077.38	9.12676
2078.83	9.6298
2080.29	10.1537
2081.75	10.2428
2083.21	10.0609
2084.67	10.4234
2086.12	10.6876
2087.58	10.5796
2089.04	9.80941
2090.49	10.1277
2091.95	10.6496
2093.41	12.169
2094.86	13.4345
2096.32	14.1869
2097.77	15.088
2099.23	15.449
2100.68	15.3899
2102.14	15.2415
2103.59	15.8188
2105.05	17.1004
2106.5	16.8225
2107.95	17.7812
2109.41	18.8261
2110.86	19.0509
2112.31	18.9654
2113.76	18.6024
2115.21	19.6947
2116.67	19.0079
2118.12	19.709
2119.57	20.7217
2121.02	21.154
2122.47	22.0737
2123.92	22.8161
2125.37	24.1966
2126.82	24.709
2128.27	25.4808
2129.72	26.9467
2131.17	28.3504
2132.62	28.7472
2134.07	28.9291
2135.51	30.6906
2136.96	31.5939
2138.41	32.4857
2139.86	34.7566
2141.31	35.938
2142.75	37.4869
2144.2	38.4949
2145.65	39.0852
2147.09	40.1891
2148.54	40.1857
2149.98	41.4819
2151.43	42.8883
2152.87	44.5638
2154.32	45.031
2155.76	45.6327
2157.21	46.4599
2158.65	46.9558
2160.1	47.9875
2161.54	48.428
2162.98	48.8545
2164.43	49.2981
2165.87	50.7242
2167.31	50.9751
2168.75	52.6174
2170.2	53.1314
2171.64	52.9223
2173.08	53.0547
2174.52	52.6206
2175.96	52.8901
2177.4	52.9876
2178.84	51.934
2180.28	50.9895
2181.72	50.2839
2183.16	49.2248
2184.6	49.2292
2186.04	49.6797
2187.48	49.1597
2188.92	48.4726
2190.36	48.3025
2191.79	48.2217
2193.23	47.7308
2194.67	46.7545
2196.11	46.5822
2197.54	46.2236
2198.98	44.9885
2200.42	44.2648
2201.85	43.5435
2203.29	42.7536
2204.72	41.1462
2206.16	39.9363
2207.59	39.4808
2209.03	37.6632
2210.46	37.0244
2211.9	35.7326
2213.33	34.7469
2214.77	33.9585
2216.2	31.944
2217.63	31.8498
2219.07	31.443
2220.5	31.2844
2221.93	30.517
2223.36	29.6325
2224.8	28.7836
2226.23	26.7738
2227.66	26.2843
2229.09	24.7083
2230.52	23.5946
2231.95	22.4546
2233.39	21.4773
2234.81	21.2674
2236.25	21.7009
2237.67	21.6804
2239.1	21.2731
2240.53	21.4823
2241.96	20.3167
2243.39	19.6131
2244.82	20.3063
2246.25	20.4237
2247.68	20.6286
2249.1	21.1273
2250.53	21.4756
2251.96	21.1384
2253.38	22.1229
2254.81	22.2388
2256.24	22.1571
2257.66	21.5498
2259.09	20.477
2260.51	20.396
2261.94	19.6866
2263.36	19.8389
2264.79	18.8288
2266.21	18.2487
2267.64	17.5931
2269.06	16.08
2270.49	15.0588
2271.91	14.8086
2273.33	14.4622
2274.76	14.2894
2276.18	13.5662
2277.6	14.3299
2279.02	14.0127
2280.44	13.0671
2281.87	13.2593
2283.29	12.7608
2284.71	12.3576
2286.13	11.4925
2287.55	11.3545
2288.97	11.1338
2290.39	9.61692
2291.81	8.41468
2293.23	7.86048
2294.65	7.95077
2296.07	8.35129
2297.49	8.10807
2298.91	8.54666
2300.33	7.54132
2301.74	8.34045
2303.16	8.42828
2304.58	8.46231
2306	8.28676
2307.41	8.28949
2308.83	8.73835
2310.25	9.15642
2311.66	9.90405
2313.08	10.5871
2314.5	11.7001
2315.91	13.172
2317.33	13.5606
2318.74	13.7665
2320.16	13.3644
2321.57	12.5707
2322.98	11.8647
2324.4	12.8763
2325.81	11.4241
2327.23	10.6315
2328.64	10.3284
2330.05	10.1129
2331.46	10.2066
2332.88	10.1384
2334.29	10.4094
2335.7	9.64646
2337.11	9.99683
2338.52	9.50763
2339.94	9.06879
2341.35	10.4334
2342.76	10.1911
2344.17	9.07987
2345.58	8.63502
2346.99	8.07852
2348.4	8.18954
2349.81	5.80367
2351.22	5.0866
2352.62	5.42726
2354.03	5.2257
2355.44	5.23916
2356.85	5.06472
2358.26	4.78831
2359.67	3.48746
2361.07	3.57149
2362.48	4.17069
2363.89	4.83626
2365.29	5.39907
2366.7	5.6923
2368.11	5.29539
2369.51	5.82702
2370.92	6.57774
2372.32	6.56495
2373.73	6.19237
2375.13	5.51224
2376.54	6.33779
2377.94	6.85505
2379.35	7.14503
2380.75	6.93985
2382.15	6.68448
2383.56	5.97614
2384.96	5.34614
2386.36	4.85096
2387.76	4.21691
2389.17	3.25097
2390.57	2.77673
2391.97	3.49912
2393.37	4.37435
2394.77	4.69628
2396.17	3.92083
2397.58	4.59181
2398.98	4.85858
2400.38	4.49344
2401.78	5.08099
2403.18	5.13167
2404.58	4.89968
2405.97	5.12186
2407.37	4.80886
2408.77	5.22493
2410.17	5.33311
2411.57	6.25329
2412.97	6.2841
2414.37	6.35058
2415.76	6.40928
2417.16	7.01788
2418.56	7.19406
2419.95	6.87194
2421.35	8.03225
2422.75	9.13588
2424.14	8.8482
2425.54	8.43416
2426.93	7.36016
2428.33	7.14492
2429.72	7.89805
2431.12	9.57289
2432.51	9.35383
2433.91	10.3883
2435.3	10.4254
2436.7	10.789
2438.09	11.2231
2439.48	11.3737
2440.88	10.9579
2442.27	9.30825
2443.66	9.82114
2445.05	9.65861
2446.44	10.2468
2447.84	9.21079
2449.23	8.84373
2450.62	7.63485
2452.01	7.33568
2453.4	7.39869
2454.79	7.46195
2456.18	7.58392
2457.57	7.7261
2458.96	7.59686
2460.35	7.65561
2461.74	8.12594
2463.13	7.77094
2464.52	6.93868
2465.91	6.45714
2467.29	6.34652
2468.68	6.20661
2470.07	6.12344
2471.46	5.76865
2472.85	5.50004
2474.23	5.1178
2475.62	5.83871
2477.01	5.98958
2478.39	6.04323
2479.78	5.17328
2481.16	5.32257
2482.55	4.70738
2483.93	3.82807
2485.32	3.66168
2486.7	3.61461
2488.09	2.6324
2489.47	2.18746
2490.86	2.4564
2492.24	1.90781
2493.62	0.477363
2495.01	-0.139264
2496.39	0.351188
2497.77	0.978373
2499.15	1.15526
2500.54	0.874975
2501.92	-0.585404
2503.3	-1.37945
2504.68	-2.22151
2506.06	-2.19625
2507.45	-2.04616
2508.83	-2.06583
2510.21	-2.10161
2511.59	-1.82713
2512.97	-1.14867
2514.35	-0.727584
2515.73	-0.142848
2517.11	-0.519956
2518.48	-0.415437
2519.86	0.220015
2521.24	1.26794
2522.62	1.05257
2524	1.91274
2525.38	2.28599
2526.75	3.41784
2528.13	4.01047
2529.51	4.74122
2530.89	5.50344
2532.26	5.57804
2533.64	6.1471
2535.02	6.63305
2536.39	7.02863
2537.77	6.91172
2539.14	6.74267
2540.52	6.58064
2541.89	7.74587
2543.27	7.67191
2544.64	8.05886
2546.01	8.4159
2547.39	7.77279
2548.76	8.48086
2550.14	8.9434
2551.51	9.27093
2552.88	9.59257
2554.25	9.58523
2555.63	9.12155
2557	9.85432
2558.37	9.98111
2559.74	10.128
2561.11	9.44068
2562.49	9.31679
2563.86	9.1598
2565.23	9.41857
2566.6	8.10383
2567.97	7.68732
2569.34	7.3861
2570.71	7.13727
2572.08	7.49327
2573.45	7.80249
2574.82	7.64678
2576.18	7.83269
2577.55	7.43941
2578.92	7.09979
2580.29	7.08776
2581.66	7.12328
2583.02	6.5227
2584.39	6.03031
2585.76	5.12025
2587.13	5.51481
2588.49	6.04463
2589.86	5.5666
2591.22	5.38525
2592.59	6.03806
2593.96	5.60418
2595.32	5.71686
2596.69	5.65746
2598.05	5.19499
2599.42	4.36358
2600.78	3.87653
2602.14	4.40791
2603.51	4.08089
2604.87	3.81198
2606.23	4.19399
2607.6	3.38197
2608.96	4.27641
2610.32	4.48876
2611.69	4.52716
2613.05	4.89174
2614.41	4.8516
2615.77	4.40188
2617.13	5.31952
2618.49	5.96082
2619.86	6.8019
2621.22	7.80312
2622.58	8.45724
2623.94	8.61114
2625.3	10.7209
2626.66	10.8345
2628.02	11.4024
2629.37	11.3371
2630.73	11.1834
2632.09	11.3109
2633.45	12.1592
2634.81	12.5587
2636.17	13.0426
2637.53	13.5256
2638.88	14.1534
2640.24	13.7549
2641.6	13.3035
2642.96	13.9282
2644.31	14.6066
2645.67	14.9468
2647.02	14.9568
2648.38	14.4531
2649.74	14.4134
2651.09	14.7913
2652.45	15.2351
2653.8	15.2178
2655.16	15.27
2656.51	14.2789
2657.86	14.0626
2659.22	13.4138
2660.57	12.6625
2661.93	12.5445
2663.28	12.8619
2664.63	12.6876
2665.98	12.6556
2667.34	12.5143
2668.69	13.2475
2670.04	13.3263
2671.39	12.5839
2672.75	12.7065
2674.09	13.5362
2675.45	12.6817
2676.8	13.6116
2678.15	12.8072
2679.5	12.9224
2680.85	12.8535
2682.2	12.7907
2683.55	13.0618
2684.9	13.8029
2686.25	14.2961
2687.6	14.1054
2688.94	14.3072
2690.29	12.7059
2691.64	12.997
2692.99	13.7582
2694.34	12.5331
2695.68	11.8418
2697.03	10.6628
2698.38	10.7728
2699.73	11.3055
2701.07	11.3713
2702.42	11.1884
2703.76	11.7687
2705.11	11.8025
2706.45	11.5105
2707.8	11.2309
2709.15	11.6723
2710.49	12.0417
2711.83	12.1765
2713.18	11.5576
2714.52	10.3585
2715.87	9.91706
2717.21	10.9408
2718.55	11.1604
2719.9	10.2195
2721.24	10.1844
2722.58	9.45417
2723.93	9.1739
2725.27	9.81039
2726.61	10.0503
2727.95	10.9354
2729.29	12.2289
2730.63	12.4741
2731.98	12.191
2733.32	12.6053
2734.66	12.8396
2736	13.1782
2737.34	13.4223
2738.68	13.8691
2740.02	14.2498
2741.36	14.5682
2742.7	13.7776
2744.03	14.0265
2745.37	13.5735
2746.71	13.1613
2748.05	12.2419
2749.39	12.0627
2750.72	11.3177
2752.06	10.2029
2753.4	9.99643
2754.74	9.85187
2756.07	9.55109
2757.41	8.27507
2758.75	9.06475
2760.08	8.78237
2761.42	8.35494
2762.76	7.69256
2764.09	7.48795
2765.42	7.65042
2766.76	6.47292
2768.09	6.62852
2769.43	6.2607
2770.76	6.26811
2772.1	5.44458
2773.43	5.24491
2774.76	5.39672
2776.1	5.75641
2777.43	5.61459
2778.76	5.3074
2780.1	4.83012
2781.43	5.22255
2782.76	6.17027
2784.09	6.79325
2785.42	6.26016
2786.75	5.73601
2788.09	5.65835
2789.42	5.5898
2790.75	6.12177
2792.08	6.39515
2793.41	6.50883
2794.74	6.29516
2796.07	5.72358
2797.4	4.83738
2798.73	5.1216
2800.06	5.06537
2801.39	5.29218
2802.71	5.26285
2804.04	5.12659
2805.37	4.44798
2806.7	4.00057
2808.03	2.85137
2809.35	1.81886
2810.68	0.959486
2812.01	-0.672672
2813.33	-0.697538
2814.66	-0.66222
2815.99	-0.423567
2817.31	-0.461278
2818.64	0.247759
2819.96	1.82966
2821.29	2.46566
2822.61	3.48621
2823.94	4.95292
2825.26	6.99743
2826.59	8.87709
2827.91	10.1802
2829.23	11.7039
2830.56	13.9901
2831.88	16.0249
2833.21	18.6916
2834.53	22.2739
2835.85	24.8832
2837.17	28.0779
2838.5	30.9223
2839.82	33.968
2841.14	37.6771
2842.46	41.8097
2843.78	45.9518
2845.1	50.1
2846.42	54.3215
2847.74	58.6669
2849.06	63.0068
2850.38	67.3757
2851.71	72.485
2853.03	78.2183
2854.34	83.4614
2855.66	88.2367
2856.98	92.8832
2858.3	97.5591
2859.62	102.267
2860.94	106.123
2862.26	110.085
2863.57	114.635
2864.89	118.058
2866.21	121.906
2867.53	125.217
2868.84	127.198
2870.16	129.707
2871.48	131.424
2872.79	132.987
2874.11	134.987
2875.42	136.484
2876.74	138.525
2878.05	140.856
2879.37	143.734
2880.68	145.61
2882	147.746
2883.31	150.042
2884.63	152.73
2885.94	155.095
2887.26	156.731
2888.57	159.359
2889.88	161.248
2891.19	162.784
2892.51	165.647
2893.82	168.052
2895.13	170.94
2896.44	172.842
2897.76	174.516
2899.07	177.444
2900.38	180.553
2901.69	183.683
2903	186.637
2904.31	190.782
2905.62	195.969
2906.93	201.329
2908.24	207.258
2909.55	212.893
2910.86	217.614
2912.17	223.499
2913.48	229.74
2914.79	235.951
2916.1	241.181
2917.41	247.004
2918.71	250.976
2920.02	255.022
2921.33	259.062
2922.64	263.355
2923.94	266.363
2925.25	268.231
2926.56	269.313
2927.86	271.359
2929.17	272.366
2930.48	271.884
2931.78	272.777
2933.09	271.705
2934.39	271.384
2935.7	270.435
2937	268.372
2938.31	265.8
2939.61	263.878
2940.92	260.784
2942.22	259.166
2943.53	257.097
2944.83	254.487
2946.13	250.858
2947.43	247.106
2948.74	243.273
2950.04	238.917
2951.34	233.814
2952.64	228.662
2953.95	225.097
2955.25	221.782
2956.55	217.327
2957.85	212.595
2959.15	207.385
2960.45	202.487
2961.75	196.719
2963.05	193.011
2964.35	189.874
2965.65	185.89
2966.95	181.247
2968.25	177.213
2969.55	173.338
2970.85	169.77
2972.15	165.743
2973.45	161.283
2974.75	156.542
2976.05	152.138
2977.34	148.097
2978.64	142.878
2979.94	137.074
2981.24	132.092
2982.53	127.646
2983.83	123.12
2985.13	119.362
2986.42	115.021
2987.72	109.098
2989.01	103.849
2990.31	98.342
2991.61	93.9111
2992.9	89.4808
2994.19	85.2045
2995.49	79.9812
2996.78	75.8725
2998.08	71.1865
2999.37	66.7173
3000.67	60.4947
3001.96	57.2692
3003.25	54.0851
3004.55	51.8115
3005.84	47.8926
3007.13	44.8307
3008.42	41.1831
3009.72	36.7515
3011.01	33.0461
3012.3	30.4765
3013.59	27.9233
3014.88	25.361
3016.17	23.5066
3017.46	21.9623
3018.76	20.7289
3020.05	18.9034
3021.34	15.9696
3022.63	13.5636
3023.92	12.9249
3025.21	11.8442
3026.49	10.6193
3027.78	10.3768
3029.07	9.29468
3030.36	8.31527
3031.65	7.87067
3032.94	8.35944
3034.23	8.65839
3035.51	8.56646
3036.8	8.39723
3038.09	8.70548
3039.38	9.49007
3040.66	10.9136
3041.95	11.1718
3043.23	12.0766
3044.52	13.2782
3045.81	14.9704
3047.09	15.8086
3048.38	17.016
3049.66	17.3544
3050.95	17.2264
3052.23	17.0783
3053.52	18.6869
3054.8	17.803
3056.09	18.3268
3057.37	17.9232
3058.65	18.0704
3059.94	17.2396
3061.22	17.3619
3062.5	15.8755
3063.79	15.0779
3065.07	15.18
3066.35	15.4246
3067.63	14.6428
3068.92	12.9389
3070.2	11.2983
3071.48	10.395
3072.76	9.37815
3074.04	8.54603
3075.32	8.84266
3076.6	7.98656
3077.88	6.9546
3079.16	5.27064
3080.44	4.62094
3081.72	3.35239
3083	1.84658
3084.28	0.630611
3085.56	-0.685355
3086.84	-1.37798
3088.12	-1.03354
3089.4	-1.30935
3090.67	-0.884178
3091.95	-1.55725
3093.23	-1.62791
3094.51	-1.02862
3095.78	-0.149634
3097.06	-0.160145
3098.34	0.6105
3099.61	0.661882
3100.89	1.99983
3102.17	4.06125
3103.44	4.28641
3104.72	4.88909
3105.99	5.32649
3107.27	6.56337
3108.54	6.75377
3109.82	7.78458
3111.09	9.13876
3112.37	10.4074
3113.64	10.6187
3114.92	10.9778
3116.19	11.7251
3117.46	12.5176
3118.74	12.4487
3120.01	13.7002
3121.28	14.0716
3122.55	14.879
3123.83	15.4619
3125.1	15.501
3126.37	15.6067
3127.64	17.2614
3128.91	18.2403
3130.19	18.0306
3131.46	19.0435
3132.73	19.3332
3134	20.452
3135.27	20.7927
3136.54	21.6753
3137.81	22.0431
3139.08	22.3539
3140.35	21.5874
3141.62	21.5231
3142.89	21.4404
3144.16	21.4815
3145.42	21.6904
3146.69	22.1947
3147.96	22.542
3149.23	23.2607
