#Acq. time (s)=	45
#Accumulations=	2
#Range (cm-¹)=	200...3150
#Windows=	2
#Auto scanning=	Off
#Autofocus=	Off
#Macrospot=	Off
#AutoExposure=	Off
#Spike filter=	Multiple accum.
#Delay time (s)=	0
#Binning=	1
#Readout mode=	Signal
#DeNoise=	Off
#ICS correction=	On
#Dark correction=	Off
#Inst. Process=	Off
#Detector Gain=	Best Dynamic Range
#Detector ADC=	20 kHz       
#Detector temperature (°C)=	-69.85
#Instrument=	LabRAM HR Evol
#Detector=	Synapse
#Objective=	x100
#Grating=	600 gr/mm
#ND Filter=	100%
#Laser (nm)=	532 
#Hole=	100.021
#Range=	Auto
#Laser Pol.=	No
#Raman. Pol.=	No
#Laser Pol. (°)=	-0.0007625
#Raman Pol. (°)=	89.9995
#Collection=	Microscope
#StageXY=	Marzhauser
#StageZ=	Marzhauser
#X (µm)=	2154
#Y (µm)=	1264.6
#Z (µm)=	442.55
#Full time(mm:ss)=	3:18
#Project=	
#Sample=	
#Site=	
#Title=	Thy_10_08_08_2x_45s_532 nm_x100_100%_600 gr_mm
#Remark=	
#Date=	05.07.2022 14:45
#Acquired=	05.07.2022 14:45:56
#Base:Fit=	10.08.2022 09:45:33
#Base:Fit=	10.08.2022 09:46:03
#Base:Fit=	10.08.2022 09:46:25
#Base:Sub=	10.08.2022 09:46:49
#Filter:Polynom=	16.08.2022 10:24:56
#AxisType[0]=Intens
#AxisUnit[0]=Cnt
#AxisType[1]=Spectr
#AxisUnit[1]=1/cm
200.43	4.15602
202.244	3.47123
204.059	3.76503
205.873	2.34389
207.688	2.12132
209.501	2.18568
211.314	1.99164
213.127	1.91096
214.941	1.68345
216.753	2.76677
218.564	3.38623
220.375	2.95041
222.186	3.25817
223.999	3.74613
225.809	2.49838
227.618	3.48772
229.428	3.44632
231.236	3.04884
233.045	2.95682
234.855	3.44954
236.663	3.75827
238.471	3.02278
240.278	1.86876
242.085	2.11688
243.891	1.91814
245.698	2.10621
247.503	1.83617
249.309	1.84449
251.116	2.01056
252.921	1.71454
254.725	1.62513
256.529	1.715
258.333	1.76453
260.136	2.50698
261.939	1.48507
263.742	1.71433
265.544	2.07098
267.346	1.60681
269.148	1.8205
270.949	2.09984
272.75	2.63765
274.55	3.15353
276.351	1.89953
278.15	1.72702
279.95	2.4515
281.749	2.94244
283.548	3.21982
285.346	3.72333
287.144	4.98515
288.942	5.7297
290.739	6.39456
292.536	6.16281
294.333	6.67957
296.129	8.543
297.925	8.73325
299.721	9.28163
301.514	9.75568
303.309	11.2081
305.104	12.15
306.898	13.1117
308.692	12.4578
310.486	11.7016
312.279	12.6619
314.072	11.9519
315.862	12.2318
317.654	14.173
319.446	13.5715
321.238	13.2304
323.029	13.4332
324.819	13.5015
326.608	12.5427
328.398	11.1307
330.188	10.6972
331.977	10.4349
333.766	10.0227
335.553	9.82699
337.341	9.02528
339.129	8.8095
340.917	8.67576
342.704	7.79754
344.489	7.99127
346.275	7.52454
348.062	6.62463
349.845	7.01373
351.631	6.62064
353.416	6.28068
355.201	6.12006
356.984	4.79178
358.768	4.65377
360.552	4.33831
362.333	4.27392
364.116	4.19475
365.899	3.30677
367.68	4.54917
369.462	5.88883
371.243	4.96465
373.023	5.50132
374.804	6.16359
376.585	6.87908
378.363	6.30845
380.143	5.62019
381.923	4.81983
383.7	6.6187
385.479	7.03867
387.256	7.48209
389.034	7.49879
390.812	7.08192
392.588	6.35817
394.365	5.8258
396.14	4.99497
397.916	4.9541
399.691	5.80841
401.467	5.81219
403.24	5.86987
405.015	7.863
406.788	7.68208
408.563	6.86885
410.335	7.41386
412.109	7.82887
413.88	7.86078
415.654	7.08446
417.424	7.08594
419.197	7.38233
420.967	7.44516
422.739	8.13517
424.508	7.64121
426.279	7.46824
428.048	7.24106
429.819	6.41106
431.587	6.18202
433.356	6.28723
435.124	5.70568
436.891	5.82874
438.66	5.85971
440.426	5.87128
442.194	5.01123
443.96	4.82001
445.725	4.73307
447.492	5.25316
449.257	6.6408
451.021	6.25677
452.787	6.66907
454.551	7.08642
456.314	8.47662
458.079	8.47579
459.842	7.89848
461.604	8.5428
463.368	8.34788
465.13	8.45008
466.891	8.95468
468.654	9.69652
470.415	10.6065
472.175	11.7503
473.935	12.1927
475.696	13.0798
477.456	13.2921
479.215	13.4151
480.973	14.8919
482.733	16.0726
484.491	16.7719
486.249	19.0616
488.006	20.6206
489.765	22.5359
491.522	24.8637
493.278	26.2002
495.034	26.006
496.789	26.5583
498.544	27.2779
500.301	26.7185
502.056	26.31
503.81	26.1965
505.564	26.3954
507.317	26.2812
509.071	25.7982
510.825	25.489
512.578	25.335
514.33	24.6083
516.082	24.0665
517.833	23.8212
519.585	24.3825
521.335	23.3854
523.086	22.9266
524.836	22.6763
526.586	22.7871
528.335	22.8554
530.085	22.2852
531.835	22.2918
533.584	22.8981
535.332	22.278
537.08	21.2408
538.827	19.5805
540.574	19.1865
542.321	19.055
544.068	17.546
545.814	16.4224
547.56	15.0534
549.305	14.7802
551.05	14.6097
552.795	14.6995
554.54	15.36
556.282	15.2649
558.025	14.3088
559.769	14.3675
561.512	14.1618
563.255	13.8145
564.997	12.8191
566.739	12.6637
568.481	13.1911
570.223	12.5669
571.964	13.0887
573.705	13.5972
575.443	13.3608
577.183	12.6276
578.923	11.5025
580.663	11.129
582.402	9.79353
584.141	9.29228
585.879	8.73671
587.615	8.04037
589.353	7.96328
591.09	7.82097
592.828	7.69814
594.564	7.21455
596.299	7.25621
598.035	7.28035
599.771	6.85757
601.506	7.46414
603.242	8.05954
604.974	8.91645
606.709	9.92275
608.443	10.3708
610.177	11.3366
611.908	12.2734
613.642	12.9357
615.374	13.3044
617.105	13.1621
618.837	13.6416
620.569	14.0741
622.3	13.3319
624.03	13.8994
625.761	13.8804
627.491	14.9042
629.219	16.0416
630.949	16.412
632.677	17.5038
634.406	17.3632
636.135	18.9164
637.861	19.9212
639.59	21.6332
641.318	22.483
643.043	22.8392
644.77	23.3523
646.495	25.0756
648.222	24.9307
649.948	25.3771
651.672	25.881
653.398	26.9213
655.121	26.9013
656.846	27.2453
658.569	28.5846
660.293	29.0665
662.015	29.682
663.738	30.2257
665.46	30.7679
667.183	31.5172
668.903	30.9671
670.626	31.3066
672.346	31.7641
674.067	32.7819
675.787	33.0071
677.508	32.9788
679.226	33.2416
680.947	33.969
682.665	35.0206
684.385	35.0872
686.102	35.2467
687.821	36.0344
689.538	35.9124
691.254	36.9862
692.972	37.5161
694.688	37.9233
696.406	39.0677
698.121	39.8489
699.835	39.7091
701.552	39.3343
703.266	39.753
704.98	40.6351
706.695	40.6896
708.409	41.2312
710.121	41.7117
711.836	41.8074
713.548	42.7916
715.26	41.8368
716.973	42.0216
718.685	42.4728
720.396	42.39
722.108	43.7619
723.818	44.0201
725.528	44.5144
727.238	45.3382
728.949	46.0192
730.658	46.6457
732.367	46.8265
734.075	46.3741
735.785	48.1392
737.493	50.0029
739.2	51.2325
740.907	51.9007
742.614	52.095
744.322	51.8771
746.028	51.7977
747.734	54.2073
749.439	57.4525
751.144	59.2135
752.849	61.9021
754.555	63.4015
756.26	66.3335
757.963	69.3767
759.667	71.8486
761.37	73.1985
763.073	75.6095
764.775	78.2796
766.477	81.2673
768.179	83.2592
769.883	84.1951
771.584	86.0856
773.285	88.9165
774.986	91.3928
776.686	93.8948
778.386	95.5231
780.085	97.5595
781.785	98.6203
783.484	98.6045
785.182	99.2815
786.881	100.277
788.579	101.286
790.276	102.033
791.974	103.229
793.671	103.567
795.367	103.55
797.064	103.779
798.76	104.101
800.456	104.595
802.151	105.213
803.846	104.925
805.541	104.151
807.234	105.323
808.928	104.785
810.622	105.035
812.315	104.747
814.008	103.433
815.701	103.318
817.394	102.165
819.086	101.262
820.778	101.589
822.468	100.689
824.159	99.5133
825.85	97.7766
827.541	96.4881
829.231	97.6741
830.921	99.0558
832.609	100.789
834.298	100.033
835.987	98.4406
837.676	97.6631
839.364	97.3095
841.051	95.7967
842.738	94.8551
844.426	93.1151
846.113	91.217
847.798	90.2995
849.484	88.6318
851.171	87.0247
852.857	83.9307
854.54	81.6851
856.226	80.9519
857.911	80.3557
859.593	79.2538
861.278	78.2415
862.961	76.6554
864.645	74.662
866.327	72.8493
868.01	71.6897
869.692	71.7536
871.373	70.3863
873.055	69.7503
874.735	68.4402
876.416	67.5918
878.097	66.3426
879.776	66.3367
881.457	65.9868
883.135	65.9474
884.815	65.188
886.495	64.4194
888.172	64.2781
889.851	64.1896
891.528	64.7886
893.206	63.6784
894.882	63.2281
896.56	63.0635
898.237	63.1986
899.912	63.1684
901.589	63.5471
903.263	63.7221
904.94	64.3002
906.614	63.9894
908.289	63.0753
909.962	62.3372
911.635	61.8316
913.31	61.8292
914.982	61.0259
916.656	60.5231
918.328	59.5458
920.001	59.4513
921.672	58.2831
923.345	58.3084
925.015	57.2495
926.685	57.5222
928.357	56.7757
930.026	57.7088
931.698	56.739
933.366	55.9097
935.035	55.0282
936.705	55.1535
938.373	55.8847
940.041	55.367
941.71	56.1869
943.377	55.0416
945.044	54.6296
946.712	53.3134
948.378	52.914
950.044	52.9825
951.709	52.5298
953.376	53.3411
955.041	51.8238
956.706	50.7434
958.372	48.9647
960.036	48.9498
961.699	48.3393
963.362	49.0619
965.027	49.9453
966.69	50.6969
968.352	51.8643
970.014	52.6837
971.676	53.5533
973.339	55.069
975	56.2793
976.661	57.7104
978.322	58.3551
979.982	58.7483
981.642	58.8627
983.303	59.0955
984.962	59.8009
986.621	59.3613
988.28	58.7464
989.938	58.4112
991.596	58.6377
993.254	58.6015
994.911	57.6168
996.57	57.2116
998.227	57.6704
999.884	57.2265
1001.54	56.5644
1003.2	56.3162
1004.85	56.2549
1006.51	55.9716
1008.16	55.6864
1009.82	55.3949
1011.47	54.9038
1013.12	53.2932
1014.78	51.7145
1016.43	51.4956
1018.08	50.1416
1019.74	50.2025
1021.39	48.4332
1023.04	46.9656
1024.69	46.0373
1026.34	43.5242
1028	42.2148
1029.65	40.5537
1031.3	40.4263
1032.95	38.5148
1034.6	37.304
1036.25	36.6558
1037.9	33.6238
1039.54	33.0936
1041.19	33.6289
1042.84	33.9812
1044.49	33.7259
1046.14	34.6875
1047.78	34.5969
1049.43	34.2809
1051.08	34.0318
1052.72	33.2189
1054.37	33.6863
1056.02	33.5946
1057.66	33.083
1059.31	32.2143
1060.95	30.9602
1062.6	30.3516
1064.24	30.2736
1065.88	29.8164
1067.53	29.3224
1069.17	28.1437
1070.81	27.1417
1072.45	26.6287
1074.1	25.6355
1075.74	25.0957
1077.38	24.8255
1079.02	25.3194
1080.66	25.6792
1082.3	25.3678
1083.94	25.0706
1085.58	25.1069
1087.22	25.3885
1088.86	23.694
1090.5	24.8494
1092.14	23.8419
1093.78	23.8207
1095.42	24.1891
1097.05	25.9443
1098.69	25.6297
1100.33	25.868
1101.96	26.6434
1103.6	25.7155
1105.24	25.7038
1106.87	25.3426
1108.51	25.5011
1110.14	25.6507
1111.78	25.5162
1113.41	25.0931
1115.05	24.5602
1116.68	24.5308
1118.31	24.0129
1119.95	22.9072
1121.58	22.7378
1123.21	21.3635
1124.85	19.5962
1126.48	18.3581
1128.11	18.1501
1129.74	17.1226
1131.37	16.7771
1133	16.5746
1134.63	16.2357
1136.26	15.9507
1137.89	15.2818
1139.52	14.764
1141.15	14.6036
1142.78	14.5823
1144.41	13.6645
1146.04	14.0484
1147.66	13.3331
1149.29	12.4606
1150.92	12.1583
1152.55	11.7765
1154.17	10.7947
1155.8	10.3326
1157.43	9.81434
1159.05	7.95004
1160.68	7.4717
1162.3	6.70437
1163.93	5.75147
1165.55	4.67655
1167.17	3.61495
1168.8	3.90141
1170.42	3.84654
1172.05	6.34765
1173.67	6.19829
1175.29	7.88254
1176.91	9.42075
1178.54	9.55515
1180.16	10.0681
1181.78	10.4466
1183.4	10.7622
1185.02	10.9344
1186.64	11.687
1188.26	12.7091
1189.88	13.9897
1191.5	15.3331
1193.12	16.8242
1194.74	18.8855
1196.36	20.3792
1197.97	21.8811
1199.59	23.0645
1201.21	25.0668
1202.83	27.5945
1204.44	29.8165
1206.06	31.4129
1207.68	32.689
1209.29	35.1949
1210.91	37.4839
1212.52	40.2595
1214.14	42.2948
1215.75	44.9572
1217.37	46.7214
1218.98	49.5825
1220.59	51.9267
1222.21	53.6401
1223.82	55.3136
1225.43	57.4776
1227.05	59.1928
1228.66	59.1816
1230.27	59.813
1231.88	60.4312
1233.49	60.1271
1235.1	60.6956
1236.72	61.5703
1238.33	62.3662
1239.94	62.821
1241.55	64.0739
1243.16	64.6647
1244.76	65.0721
1246.37	65.4554
1247.98	66.2456
1249.59	67.6158
1251.2	68.1571
1252.8	68.3421
1254.41	67.2406
1256.02	67.6144
1257.62	68.0344
1259.23	67.0148
1260.84	66.6133
1262.44	65.6312
1264.05	65.5089
1265.66	65.6668
1267.26	66.272
1268.86	67.2206
1270.47	67.7807
1272.07	68.5176
1273.67	68.8671
1275.28	68.6194
1276.88	68.4253
1278.48	69.145
1280.09	69.5888
1281.69	70.5639
1283.29	71.0003
1284.89	70.8323
1286.49	71.6311
1288.09	73.181
1289.69	74.0184
1291.29	74.3962
1292.89	75.4617
1294.49	76.584
1296.09	77.8194
1297.69	78.2218
1299.29	79.3731
1300.89	79.5503
1302.49	79.8075
1304.08	81.3238
1305.68	82.3539
1307.28	83.0206
1308.88	83.6768
1310.47	85.2144
1312.07	87.3493
1313.66	87.9318
1315.26	89.4645
1316.85	89.9055
1318.45	90.3749
1320.04	90.4765
1321.64	90.6163
1323.23	90.9567
1324.83	90.5169
1326.42	89.7451
1328.01	89.3537
1329.61	89.1928
1331.2	87.9839
1332.79	86.883
1334.38	85.8437
1335.97	84.5748
1337.56	83.308
1339.16	80.7636
1340.75	79.5182
1342.34	78.4084
1343.93	77.2236
1345.52	76.1011
1347.11	74.4326
1348.7	72.6374
1350.29	71.6174
1351.87	69.5481
1353.46	68.042
1355.05	66.1025
1356.64	64.6093
1358.22	62.8338
1359.81	61.4058
1361.4	59.3281
1362.98	57.0326
1364.57	55.6206
1366.16	53.9636
1367.74	51.7239
1369.33	50.3745
1370.91	49.4105
1372.5	48.2992
1374.08	46.3844
1375.67	45.2941
1377.25	44.3804
1378.83	43.4286
1380.41	42.4597
1382	40.9854
1383.58	41.1835
1385.16	40.6403
1386.74	40.7759
1388.33	40.604
1389.91	40.8874
1391.49	40.933
1393.07	39.0895
1394.65	39.1017
1396.23	38.9914
1397.81	39.5406
1399.39	39.0104
1400.97	39.4122
1402.55	39.946
1404.13	40.8572
1405.7	41.4708
1407.28	41.864
1408.86	42.8532
1410.44	43.273
1412.01	45.228
1413.59	46.7189
1415.17	48.6014
1416.74	51.2676
1418.32	53.6231
1419.89	56.1205
1421.47	58.1019
1423.04	60.7275
1424.62	63.4469
1426.19	66.7586
1427.77	70.6179
1429.34	74.2029
1430.91	76.571
1432.49	79.1766
1434.06	80.8488
1435.63	83.2711
1437.2	85.4026
1438.78	87.9042
1440.35	89.4131
1441.92	91.4072
1443.49	93.1033
1445.06	94.0782
1446.63	94.3524
1448.2	94.8106
1449.77	94.0774
1451.34	94.2824
1452.91	93.8566
1454.48	93.3805
1456.05	91.9531
1457.62	90.2433
1459.18	88.5605
1460.75	86.4372
1462.32	84.4067
1463.89	81.8126
1465.45	78.2857
1467.02	74.4253
1468.59	71.1964
1470.15	67.3575
1471.72	63.0549
1473.28	59.6543
1474.85	56.1214
1476.41	52.5359
1477.98	48.9135
1479.54	46.153
1481.1	42.4872
1482.67	38.7417
1484.23	34.4587
1485.79	32.0973
1487.36	30.1914
1488.92	28.1112
1490.48	25.6233
1492.04	23.1564
1493.61	20.9946
1495.17	19.0958
1496.73	17.3133
1498.29	15.5844
1499.85	14.024
1501.41	12.6062
1502.97	11.5379
1504.53	11.653
1506.09	10.7624
1507.65	9.03106
1509.2	8.29145
1510.76	7.76372
1512.32	7.93643
1513.88	7.59088
1515.43	7.33041
1516.99	7.78031
1518.55	8.47536
1520.1	9.53354
1521.66	9.70491
1523.22	10.5884
1524.77	11.863
1526.33	14.0752
1527.88	15.8718
1529.44	16.8639
1530.99	18.1521
1532.54	19.8723
1534.1	21.1639
1535.65	21.9345
1537.21	23.1311
1538.76	24.5694
1540.31	25.2581
1541.86	26.8981
1543.42	27.6659
1544.97	30.2696
1546.52	32.2489
1548.07	33.9151
1549.62	35.2802
1551.17	36.9921
1552.72	38.6431
1554.27	39.9128
1555.82	41.6074
1557.37	42.9843
1558.92	44.5926
1560.47	46.1502
1562.02	47.229
1563.56	48.8526
1565.11	49.5511
1566.66	50.3038
1568.21	50.9547
1569.75	51.8777
1571.3	52.6307
1572.85	53.9005
1574.39	54.9712
1575.94	56.2127
1577.49	56.7565
1579.03	57.7166
1580.57	58.9842
1582.12	60.5989
1583.66	61.4422
1585.21	61.8848
1586.75	63.2885
1588.3	64.0953
1589.84	65.7259
1591.38	67.1297
1592.92	69.9907
1594.47	71.9201
1596.01	72.5259
1597.55	73.2594
1599.09	73.8878
1600.63	74.3039
1602.17	74.8742
1603.71	74.5856
1605.25	73.9392
1606.79	73.7901
1608.33	74.3029
1609.87	74.3331
1611.41	73.582
1612.95	73.8412
1614.49	73.132
1616.03	73.0337
1617.57	72.154
1619.1	72.2647
1620.64	72.5658
1622.18	72.7304
1623.72	72.8968
1625.25	73.7015
1626.79	73.6247
1628.32	74.2786
1629.86	74.7444
1631.39	74.8328
1632.93	75.6113
1634.46	75.8126
1636	76.2399
1637.53	76.8472
1639.07	77.663
1640.6	79.1589
1642.13	81.3732
1643.67	82.5724
1645.2	83.8965
1646.73	84.43
1648.26	86.1537
1649.8	87.6445
1651.33	88.8721
1652.86	90.2907
1654.39	90.7054
1655.92	92.1875
1657.45	93.9328
1658.98	95.3086
1660.51	95.396
1662.04	94.909
1663.57	95.8966
1665.1	95.8814
1666.63	95.8251
1668.16	94.7587
1669.68	93.9911
1671.21	91.9366
1672.74	89.955
1674.27	88.022
1675.79	84.6208
1677.32	81.8008
1678.85	80.279
1680.37	78.0362
1681.9	75.9627
1683.42	74.0768
1684.95	71.0252
1686.47	67.3152
1688	64.1303
1689.52	61.6805
1691.05	57.1906
1692.57	55.2489
1694.09	52.7985
1695.62	50.3822
1697.14	48.0633
1698.66	44.7989
1700.18	42.1786
1701.71	39.0802
1703.23	36.1779
1704.75	33.1635
1706.27	30.7716
1707.79	28.8023
1709.31	27.1198
1710.83	26.1424
1712.35	24.5531
1713.87	22.8848
1715.39	21.2438
1716.91	19.2701
1718.43	18.3137
1719.95	16.1699
1721.47	14.941
1722.99	13.3114
1724.5	13.2519
1726.02	12.6079
1727.54	11.708
1729.06	11.6514
1730.57	11.6918
1732.09	11.5918
1733.61	11.1417
1735.12	9.62114
1736.64	8.88086
1738.15	8.33899
1739.67	8.21764
1741.18	7.16275
1742.7	7.25572
1744.21	7.31615
1745.72	7.45713
1747.24	6.92631
1748.75	6.15699
1750.26	5.44866
1751.77	5.66976
1753.29	6.39983
1754.8	6.9381
1756.31	6.06166
1757.82	5.58605
1759.33	4.85355
1760.84	3.72664
1762.36	3.53663
1763.87	3.70648
1765.38	3.67816
1766.89	3.09179
1768.4	3.968
1769.91	3.72631
1771.41	3.04753
1772.92	3.28323
1774.43	2.59567
1775.94	2.68029
1777.45	3.06769
1778.95	3.30812
1780.46	3.01257
1781.97	3.80922
1783.48	3.40157
1784.98	2.76122
1786.49	2.50364
1787.99	1.7521
1789.5	2.01678
1791.01	1.76549
1792.51	1.74945
1794.01	2.06851
1795.52	1.57773
1797.02	2.10612
1798.53	1.96819
1800.03	2.1823
1801.53	2.20302
1803.04	1.9729
1804.54	2.86376
1806.04	2.5088
1807.54	1.79582
1809.05	1.54337
1810.55	1.29051
1812.05	1.73667
1813.55	1.21761
1815.05	0.84713
1816.55	0.623083
1818.05	0.632425
1819.55	0.522226
1821.05	0.35051
1822.55	0.462766
1824.05	0.0843207
1825.55	-0.56102
1827.05	-0.474913
1828.55	-0.403488
1830.04	-0.324901
1831.54	-0.66484
1833.04	-0.240725
1834.54	-0.29796
1836.03	-0.227779
1837.53	0.0442416
1839.03	0.350531
1840.52	0.826316
1842.02	1.03361
1843.51	0.962744
1845.01	0.947532
1846.5	0.985721
1848	1.56752
1849.49	0.729376
1850.99	0.191033
1852.48	0.683645
1853.97	0.828677
1855.47	1.51221
1856.96	1.30829
1858.45	0.88052
1859.94	0.909244
1861.44	1.16242
1862.93	0.73249
1864.42	0.284998
1865.91	-0.167398
1867.4	0.402896
1868.89	1.03376
1870.38	1.19688
1871.87	1.80072
1873.36	1.54368
1874.85	1.40572
1876.34	1.23268
1877.83	1.19531
1879.32	1.64777
1880.81	1.29252
1882.3	0.908813
1882.57	0.813284
1884.07	0.829102
1885.56	0.550672
1887.06	0.35321
1888.55	0.745363
1890.04	1.32384
1891.54	1.70227
1893.03	2.09431
1894.52	1.67379
1896.02	2.29745
1897.51	2.04391
1899	2.44137
1900.49	3.94586
1901.98	3.74956
1903.47	3.73858
1904.96	3.98279
1906.45	4.34163
1907.94	4.57994
1909.43	4.52692
1910.92	4.64991
1912.41	4.88952
1913.9	4.96008
1915.39	4.89694
1916.88	5.00904
1918.37	5.12831
1919.85	5.30335
1921.34	5.20969
1922.83	4.87466
1924.32	5.23171
1925.8	6.28979
1927.29	6.21794
1928.78	6.19801
1930.26	6.11493
1931.75	6.47677
1933.23	6.11161
1934.72	6.22954
1936.2	5.6172
1937.69	5.65717
1939.17	6.66666
1940.66	6.72737
1942.14	7.06342
1943.63	6.17867
1945.11	5.57928
1946.59	5.71761
1948.07	5.65918
1949.56	5.22677
1951.04	5.18945
1952.52	5.5144
1954	5.55288
1955.48	5.00368
1956.96	4.93306
1958.45	4.7906
1959.93	4.88123
1961.41	4.86518
1962.89	4.88767
1964.37	4.62176
1965.85	4.3242
1967.32	4.42665
1968.8	4.57621
1970.28	4.71359
1971.76	4.5195
1973.24	4.92573
1974.72	5.12546
1976.19	5.0009
1977.67	5.61509
1979.15	5.65632
1980.63	5.78903
1982.1	5.86951
1983.58	6.49953
1985.05	6.8208
1986.53	7.05898
1988	7.59264
1989.48	8.01124
1990.95	8.7769
1992.43	8.68693
1993.9	9.58226
1995.38	9.99472
1996.85	10.5276
1998.32	11.2744
1999.8	11.7649
2001.27	11.9561
2002.74	12.7042
2004.22	12.8641
2005.69	12.8134
2007.16	12.7985
2008.63	12.8075
2010.1	12.3442
2011.57	12.8414
2013.04	13.1292
2014.51	13.4506
2015.98	13.8536
2017.45	13.7767
2018.92	13.5591
2020.39	13.4625
2021.86	12.7732
2023.33	12.1928
2024.8	12.4962
2026.27	12.2179
2027.74	11.5335
2029.2	10.36
2030.67	10.2623
2032.14	10.1627
2033.61	10.0733
2035.07	10.0041
2036.54	9.80007
2038.01	10.2435
2039.47	10.188
2040.94	10.3362
2042.4	10.3562
2043.87	10.064
2045.33	10.7273
2046.8	10.5353
2048.26	10.799
2049.72	11.2182
2051.19	11.3067
2052.65	11.2944
2054.12	11.5696
2055.58	11.8007
2057.04	12.2177
2058.5	12.1323
2059.97	12.3277
2061.43	12.8756
2062.89	12.6542
2064.35	12.7011
2065.81	12.5307
2067.27	12.8895
2068.73	12.8215
2070.19	13.062
2071.65	13.4857
2073.11	13.5881
2074.57	13.7037
2076.03	14.3642
2077.49	14.6207
2078.95	14.8267
2080.41	15.4013
2081.87	15.3374
2083.32	16.0533
2084.78	16.9589
2086.24	17.8593
2087.7	18.3716
2089.15	18.1979
2090.61	18.3262
2092.07	18.6505
2093.52	18.824
2094.98	19.5636
2096.43	19.7936
2097.89	19.7867
2099.34	19.3044
2100.8	19.3107
2102.25	19.2893
2103.71	19.5499
2105.16	19.9084
2106.61	20.2519
2108.07	20.5651
2109.52	20.4718
2110.97	21.5307
2112.43	21.3098
2113.88	21.2678
2115.33	21.3608
2116.78	22.179
2118.23	22.8263
2119.68	22.8995
2121.13	23.2469
2122.59	23.5214
2124.04	23.757
2125.49	23.9078
2126.94	24.1966
2128.39	24.9741
2129.83	25.6544
2131.28	25.7866
2132.73	26.3314
2134.18	26.517
2135.63	26.1292
2137.08	26.9228
2138.53	26.895
2139.97	27.4891
2141.42	28.3197
2142.87	28.9314
2144.31	29.033
2145.76	30.1394
2147.21	30.7144
2148.65	32.2647
2150.1	33.7533
2151.54	35.3419
2152.99	36.4762
2154.43	36.9536
2155.88	38.2196
2157.32	39.3458
2158.77	40.1413
2160.21	41.2563
2161.65	42.1752
2163.1	42.9405
2164.54	43.498
2165.98	43.7975
2167.43	44.0164
2168.87	43.9353
2170.31	44.318
2171.75	45.0819
2173.19	45.5868
2174.64	45.3753
2176.07	46.0049
2177.52	46.2533
2178.96	46.6111
2180.4	46.3165
2181.84	45.797
2183.28	45.9665
2184.72	44.9342
2186.15	44.1366
2187.59	43.7947
2189.03	43.4288
2190.47	42.6511
2191.91	41.7536
2193.35	41.0213
2194.78	40.4819
2196.22	40.0503
2197.66	38.5843
2199.09	37.7584
2200.53	36.8975
2201.97	35.3761
2203.4	34.4128
2204.84	33.6916
2206.27	31.9182
2207.71	30.7809
2209.14	30.3394
2210.58	29.3
2212.01	28.7547
2213.45	27.7461
2214.88	26.7835
2216.31	25.6114
2217.75	25.7212
2219.18	25.1851
2220.61	24.6683
2222.05	24.0752
2223.48	23.279
2224.91	22.5612
2226.34	22.2876
2227.78	22.1471
2229.21	21.7408
2230.64	21.1435
2232.07	21.8141
2233.5	21.172
2234.93	20.6801
2236.36	21.0409
2237.79	21.065
2239.22	20.8436
2240.65	21.123
2242.08	21.2527
2243.5	21.4486
2244.93	21.1656
2246.36	20.2373
2247.79	20.8201
2249.22	20.4923
2250.64	20.0251
2252.07	19.3471
2253.5	18.5814
2254.92	18.4551
2256.35	17.9498
2257.78	17.8629
2259.2	17.4975
2260.63	17.9008
2262.05	18.2607
2263.48	17.7575
2264.9	17.1774
2266.33	16.8114
2267.75	16.2318
2269.18	15.7574
2270.6	16.1215
2272.02	16.0681
2273.45	17.464
2274.87	18.0861
2276.29	17.9019
2277.71	17.601
2279.14	17.7397
2280.56	17.2497
2281.98	17.3107
2283.4	17.2315
2284.82	16.8485
2286.24	16.7845
2287.66	16.5273
2289.08	16.7526
2290.5	16.9933
2291.92	15.9543
2293.34	16.1815
2294.76	15.9196
2296.18	15.7764
2297.6	15.3316
2299.02	15.8021
2300.44	15.7665
2301.86	16.3218
2303.27	17.0799
2304.69	16.6781
2306.11	16.9675
2307.53	17.1979
2308.94	17.1249
2310.36	17.3702
2311.78	17.0607
2313.19	17.374
2314.61	17.2373
2316.02	16.0903
2317.44	15.6458
2318.85	15.5283
2320.27	14.81
2321.68	14.2082
2323.1	13.7622
2324.51	12.9844
2325.92	12.8092
2327.34	12.9785
2328.75	12.4887
2330.16	11.9865
2331.58	12.6735
2332.99	12.6845
2334.4	11.4497
2335.81	10.2245
2337.23	10.0463
2338.64	9.90156
2340.05	10.1624
2341.46	10.3782
2342.87	10.4242
2344.28	10.6085
2345.69	9.55583
2347.1	8.70438
2348.51	8.5939
2349.92	8.26225
2351.33	7.86164
2352.74	8.34565
2354.15	8.41895
2355.55	7.96067
2356.96	7.71666
2358.37	7.06257
2359.78	6.552
2361.19	6.87812
2362.59	5.74594
2364	6.0228
2365.41	5.51391
2366.81	6.23867
2368.22	6.1734
2369.62	6.47501
2371.03	6.46189
2372.44	6.93205
2373.84	7.17986
2375.24	6.99607
2376.65	7.0025
2378.05	6.67705
2379.46	7.35975
2380.86	6.66313
2382.26	6.70539
2383.67	6.5962
2385.07	6.32275
2386.47	6.21061
2387.88	6.1338
2389.28	5.82954
2390.68	5.39915
2392.08	5.58343
2393.48	5.59837
2394.89	6.0235
2396.29	6.19952
2397.69	6.3121
2399.09	6.14786
2400.49	6.23981
2401.89	6.18523
2403.29	5.98107
2404.69	5.07035
2406.09	4.71559
2407.48	5.32193
2408.88	5.18693
2410.28	5.25632
2411.68	5.46574
2413.08	5.49064
2414.48	5.6765
2415.87	6.26599
2417.27	6.07843
2418.67	5.88976
2420.06	5.64346
2421.46	6.05318
2422.86	5.68698
2424.25	5.42628
2425.65	5.27508
2427.04	4.90699
2428.44	4.66099
2429.83	4.20253
2431.23	4.40738
2432.62	3.87075
2434.02	4.00435
2435.41	3.94448
2436.81	4.27228
2438.2	3.96969
2439.59	4.45676
2440.99	4.50239
2442.38	4.35042
2443.77	3.74993
2445.16	3.28579
2446.56	3.00256
2447.95	3.05089
2449.34	2.79641
2450.73	1.7582
2452.12	2.556
2453.51	2.34065
2454.9	2.80563
2456.29	1.87602
2457.68	1.75263
2459.07	2.40328
2460.46	2.6842
2461.85	3.08503
2463.24	3.35862
2464.63	2.91516
2466.02	3.1351
2467.4	3.12825
2468.79	3.46184
2470.18	2.76024
2471.57	2.69895
2472.95	2.93457
2474.34	2.23339
2475.73	2.24574
2477.12	2.88868
2478.5	3.19554
2479.89	3.02982
2481.27	2.67311
2482.66	2.76424
2484.04	2.68567
2485.43	2.38932
2486.81	1.3919
2488.2	1.36354
2489.58	0.967399
2490.97	0.868285
2492.35	0.408299
2493.73	1.10524
2495.12	1.19613
2496.5	0.768772
2497.88	0.538128
2499.27	1.52807
2500.65	1.82362
2502.03	1.74102
2503.41	1.26637
2504.79	1.09513
2506.17	1.21643
2507.56	1.11694
2508.94	0.776903
2510.32	0.969418
2511.7	0.541466
2513.08	0.0817308
2514.46	0.414487
2515.84	0.485108
2517.22	0.142343
2518.59	0.198112
2519.97	0.535268
2521.35	1.42244
2522.73	1.40494
2524.11	1.68102
2525.49	1.28061
2526.86	2.34465
2528.24	2.62552
2529.62	2.52249
2530.99	3.0416
2532.37	3.75849
2533.75	3.95507
2535.12	4.52308
2536.5	4.36404
2537.88	5.15574
2539.25	4.68738
2540.63	5.52015
2542	5.33148
2543.38	4.97926
2544.75	4.71775
2546.12	4.44548
2547.5	4.02771
2548.87	3.6757
2550.24	3.88304
2551.62	4.11731
2552.99	4.04231
2554.36	3.58721
2555.74	3.55286
2557.11	3.96004
2558.48	3.90589
2559.85	4.78468
2561.22	5.02723
2562.59	5.10209
2563.96	4.20203
2565.34	4.52361
2566.71	4.43165
2568.08	5.21693
2569.45	4.30973
2570.82	4.18929
2572.18	4.217
2573.55	4.64378
2574.92	4.94746
2576.29	4.68715
2577.66	5.09092
2579.03	4.87215
2580.4	4.1504
2581.77	4.06983
2583.13	4.24172
2584.5	4.07517
2585.87	3.77709
2587.23	3.86069
2588.6	3.69728
2589.97	3.77752
2591.33	4.33162
2592.7	4.70975
2594.06	4.84722
2595.43	4.95601
2596.79	4.93079
2598.16	4.61802
2599.52	4.785
2600.89	4.40236
2602.25	3.80638
2603.62	3.17172
2604.98	3.80084
2606.34	3.86753
2607.71	3.54637
2609.07	3.52234
2610.43	3.12617
2611.79	2.67951
2613.16	2.75967
2614.52	2.34013
2615.88	2.46823
2617.24	2.63298
2618.6	1.96866
2619.96	1.57208
2621.32	1.3863
2622.68	1.24714
2624.04	1.37231
2625.4	1.51671
2626.76	1.59364
2628.12	1.83993
2629.48	2.17481
2630.84	2.41073
2632.2	2.88362
2633.56	4.36958
2634.92	4.88785
2636.28	5.40827
2637.63	5.28904
2638.99	5.36327
2640.35	5.58013
2641.71	5.84775
2643.06	5.48535
2644.42	5.97534
2645.77	5.9016
2647.13	5.21684
2648.49	5.42442
2649.84	5.79182
2651.2	5.96245
2652.55	5.88951
2653.91	5.96697
2655.26	5.91421
2656.62	5.95905
2657.97	6.12914
2659.33	6.92872
2660.68	6.11584
2662.03	5.41665
2663.39	4.97921
2664.74	5.04874
2666.09	5.08925
2667.44	5.85391
2668.8	5.99032
2670.15	6.28004
2671.5	6.68041
2672.85	7.01856
2674.2	6.97963
2675.55	7.18989
2676.91	7.17538
2678.26	7.06448
2679.61	6.47723
2680.96	6.38142
2682.31	5.86718
2683.66	6.2689
2685	6.60285
2686.35	7.03608
2687.7	7.72946
2689.05	8.59568
2690.4	9.58968
2691.75	10.353
2693.1	10.7848
2694.44	11.2999
2695.79	12.2685
2697.14	12.4519
2698.49	12.6857
2699.83	13.6297
2701.18	13.9862
2702.52	14.3887
2703.87	14.305
2705.22	14.6955
2706.56	15.3254
2707.91	15.952
2709.25	16.573
2710.6	17.201
2711.94	18.0284
2713.29	17.7425
2714.63	18.2117
2715.97	18.9818
2717.32	19.2466
2718.66	18.7744
2720.01	19.1291
2721.35	19.2033
2722.69	19.2069
2724.03	19.2728
2725.38	19.4045
2726.72	19.5548
2728.06	19.206
2729.4	19.2524
2730.74	19.5817
2732.08	19.9264
2733.42	20.172
2734.76	19.8463
2736.1	18.9997
2737.44	18.7846
2738.78	18.8127
2740.12	18.4203
2741.46	18.7167
2742.8	17.7452
2744.14	17.5793
2745.48	16.9016
2746.82	16.6709
2748.16	16.6241
2749.49	16.8376
2750.83	16.7155
2752.17	16.8176
2753.51	16.3109
2754.84	15.6548
2756.18	15.3618
2757.52	15.3093
2758.85	14.9885
2760.19	14.0776
2761.53	13.8479
2762.86	13.8917
2764.2	13.2967
2765.53	13.7463
2766.87	14.032
2768.2	12.9519
2769.54	12.754
2770.87	12.2439
2772.2	11.9927
2773.54	11.863
2774.87	12.1578
2776.2	12.1967
2777.54	11.5702
2778.87	10.7527
2780.2	10.6169
2781.53	10.9788
2782.87	10.8991
2784.2	9.92654
2785.53	9.94795
2786.86	9.98372
2788.19	9.69055
2789.52	10.0846
2790.85	9.93201
2792.18	9.66166
2793.51	9.77511
2794.84	10.034
2796.17	9.53062
2797.5	9.2953
2798.83	9.40195
2800.16	9.52063
2801.49	8.99124
2802.82	9.44561
2804.15	10.1496
2805.47	10.7226
2806.8	10.9121
2808.13	10.7535
2809.46	10.5692
2810.78	11.0406
2812.11	11.1726
2813.44	11.9058
2814.76	12.4588
2816.09	12.9108
2817.42	13.0154
2818.74	13.3753
2820.07	14.2276
2821.39	15.2854
2822.72	16.3374
2824.04	18.4217
2825.37	19.4245
2826.69	20.5855
2828.02	21.827
2829.34	23.8068
2830.66	25.7326
2831.99	28.0639
2833.31	29.4817
2834.63	30.8844
2835.96	33.4732
2837.28	35.9095
2838.6	38.2744
2839.92	41.6209
2841.24	45.1889
2842.57	48.874
2843.89	52.5872
2845.21	57.911
2846.53	63.0587
2847.85	67.925
2849.17	72.0151
2850.49	77.8148
2851.81	83.961
2853.13	89.547
2854.45	95.7695
2855.77	101.895
2857.09	107.606
2858.41	112.564
2859.72	118.583
2861.04	124.167
2862.36	129.076
2863.68	134.183
2865	140.096
2866.31	146.179
2867.63	150.145
2868.95	155.344
2870.26	159.342
2871.58	162.949
2872.9	166.643
2874.21	168.962
2875.53	172.736
2876.84	175.712
2878.16	178.843
2879.47	181.741
2880.79	184.107
2882.1	186.108
2883.42	188.164
2884.73	190.19
2886.05	193.008
2887.36	195.603
2888.67	197.337
2889.99	199.745
2891.3	202.135
2892.61	204.182
2893.92	206.166
2895.24	209.12
2896.55	212.19
2897.86	214.788
2899.17	217
2900.48	221.533
2901.79	225.676
2903.11	230.695
2904.42	235.371
2905.73	241.399
2907.04	247.776
2908.35	254.908
2909.66	261.482
2910.97	268.046
2912.27	273.736
2913.58	280.704
2914.89	288.376
2916.2	296.31
2917.51	302.093
2918.82	308.48
2920.13	314.154
2921.43	319.614
2922.74	324.369
2924.05	328.212
2925.35	332.349
2926.66	335.335
2927.97	337.53
2929.27	339.563
2930.58	341.923
2931.89	341.668
2933.19	339.821
2934.5	340.056
2935.8	338.478
2937.11	337.045
2938.41	334.529
2939.72	330.965
2941.02	328.271
2942.32	324.024
2943.63	319.817
2944.93	315.344
2946.24	309.895
2947.54	304.46
2948.84	298.978
2950.14	292.985
2951.45	287.498
2952.75	281.472
2954.05	275.644
2955.35	269.811
2956.65	264.524
2957.95	257.8
2959.26	251.713
2960.56	246.038
2961.86	240.254
2963.16	234.283
2964.46	228.229
2965.76	224.004
2967.06	218.255
2968.36	213.882
2969.66	208.856
2970.96	204.869
2972.25	200.552
2973.55	195.627
2974.85	191.371
2976.15	186.879
2977.45	182.749
2978.74	178.836
2980.04	174.265
2981.34	168.804
2982.64	163.947
2983.93	159.011
2985.23	153.618
2986.52	148.471
2987.82	143.34
2989.12	137.728
2990.41	132.93
2991.71	127.816
2993	122.283
2994.3	117.358
2995.59	112.308
2996.89	106.524
2998.18	101.902
2999.48	98.0302
3000.77	92.9174
3002.06	88.5151
3003.36	83.6567
3004.65	79.1529
3005.94	74.9156
3007.23	70.7955
3008.53	67.2154
3009.82	63.6393
3011.11	60.0422
3012.4	57.29
3013.69	53.8833
3014.99	51.2705
3016.28	49.3731
3017.57	47.3341
3018.86	45.3822
3020.15	43.1198
3021.44	41.7597
3022.73	39.4527
3024.02	37.7579
3025.31	37.1488
3026.6	36.294
3027.89	35.6495
3029.18	34.735
3030.46	35.1249
3031.75	34.3672
3033.04	34.8558
3034.33	34.9897
3035.62	35.0231
3036.9	35.1656
3038.19	35.217
3039.48	36.3006
3040.76	36.2048
3042.05	36.9072
3043.34	37.5064
3044.62	37.8563
3045.91	39.1176
3047.19	40.1582
3048.48	40.8404
3049.77	41.5409
3051.05	42.5516
3052.34	43.1511
3053.62	43.4272
3054.9	44.0151
3056.19	43.1687
3057.47	43.0059
3058.76	42.4201
3060.04	41.8164
3061.32	41.1933
3062.61	40.5303
3063.89	40.3958
3065.17	39.1499
3066.45	38.2706
3067.74	36.8573
3069.02	35.601
3070.3	34.9861
3071.58	34.3297
3072.86	33.5681
3074.14	31.8429
3075.42	30.3607
3076.7	28.7315
3077.99	27.4684
3079.26	26.5694
3080.54	25.4604
3081.82	24.1101
3083.1	23.2678
3084.38	21.689
3085.66	20.0432
3086.94	18.5909
3088.22	17.5426
3089.5	16.5847
3090.78	15.1321
3092.05	13.9033
3093.33	12.8833
3094.61	12.4097
3095.89	11.4307
3097.16	11.5225
3098.44	11.0825
3099.72	9.98684
3100.99	9.44012
3102.27	8.22371
3103.54	8.01513
3104.82	7.64688
3106.1	7.52618
3107.37	7.16054
3108.65	6.57968
3109.92	6.41343
3111.2	5.74956
3112.47	5.70228
3113.74	5.19639
3115.02	4.73305
3116.29	3.8823
3117.56	3.66036
3118.84	3.06208
3120.11	2.25333
3121.38	2.10472
3122.66	1.37127
3123.93	1.4958
3125.2	1.27916
3126.47	1.16146
3127.74	0.82402
3129.01	0.026683
3130.29	0.0956135
3131.56	-0.0267226
3132.83	0.431698
3134.1	0.794469
3135.37	0.595981
3136.64	0.630111
3137.91	0.295616
3139.18	0.858268
3140.45	1.40312
3141.72	2.12883
3142.99	2.41684
3144.26	2.75212
3145.52	3.06116
3146.79	3.47994
3148.06	5.07751
3149.33	6.04639
