#Acq. time (s)=	45
#Accumulations=	2
#Range (cm-¹)=	200...3150
#Windows=	2
#Auto scanning=	Off
#Autofocus=	Off
#Macrospot=	Off
#AutoExposure=	Off
#Spike filter=	Multiple accum.
#Delay time (s)=	0
#Binning=	1
#Readout mode=	Signal
#DeNoise=	Off
#ICS correction=	On
#Dark correction=	Off
#Inst. Process=	Off
#Detector Gain=	Best Dynamic Range
#Detector ADC=	20 kHz       
#Detector temperature (°C)=	-69.85
#Instrument=	LabRAM HR Evol
#Detector=	Synapse
#Objective=	x100
#Grating=	600 gr/mm
#ND Filter=	100%
#Laser (nm)=	532 
#Hole=	100.021
#Range=	Auto
#Laser Pol.=	No
#Raman. Pol.=	No
#Laser Pol. (°)=	-0.0007625
#Raman Pol. (°)=	89.9995
#Collection=	Microscope
#StageXY=	Marzhauser
#StageZ=	Marzhauser
#X (µm)=	4765.5
#Y (µm)=	-7731.1
#Z (µm)=	584.55
#Full time(mm:ss)=	3:18
#Project=	
#Sample=	
#Site=	
#Title=	Thy_30_10_19_2x_45s_532 nm_x100_100%_600 gr_mm
#Remark=	
#Date=	30.06.2022 12:49
#Acquired=	30.06.2022 12:49:45
#Base:Fit=	10.08.2022 09:58:11
#Base:Sub=	10.08.2022 09:58:44
#Filter:Polynom=	16.08.2022 10:22:53
#AxisType[0]=Intens
#AxisUnit[0]=Cnt
#AxisType[1]=Spectr
#AxisUnit[1]=1/cm
200.533	7.32043
202.348	9.77085
204.162	9.62656
205.976	9.61669
207.792	9.27345
209.605	8.86181
211.418	8.67606
213.23	8.29849
215.044	8.92684
216.856	8.60618
218.667	9.04733
220.478	9.1509
222.289	9.00678
224.102	9.47604
225.912	9.36645
227.721	10.0326
229.531	10.3652
231.34	10.5437
233.148	10.874
234.956	10.9518
236.766	10.8309
238.574	11.1295
240.381	11.6014
242.188	10.6098
243.994	10.1954
245.801	9.61588
247.606	8.94695
249.412	8.45068
251.217	8.03518
253.024	8.2698
254.828	7.45485
256.632	7.33399
258.436	6.84461
260.239	6.79977
262.042	6.86031
263.845	7.00318
265.647	5.68332
267.449	5.21063
269.25	3.29326
271.052	3.30358
272.852	2.87566
274.653	3.17733
276.453	2.84714
278.253	2.63563
280.052	2.08597
281.852	0.693832
283.65	1.25945
285.449	0.808909
287.247	0.282737
289.044	0.708422
290.842	1.18435
292.639	1.91408
294.436	2.47186
296.232	2.92281
298.028	4.29044
299.821	5.45017
301.617	6.51878
303.412	7.06613
305.206	8.23948
307	8.24166
308.794	9.77727
310.588	9.82759
312.381	9.63178
314.172	10.9069
315.964	11.8001
317.756	12.3888
319.548	13.1076
321.34	13.9806
323.131	14.3995
324.921	15.2868
326.71	16.2426
328.5	16.2174
330.29	16.9746
332.079	17.0105
333.868	17.4311
335.654	17.5371
337.443	18.08
339.231	18.254
341.018	18.7896
342.804	18.8065
344.591	17.7477
346.377	17.7738
348.163	17.2061
349.947	15.5472
351.733	14.8654
353.518	14.3702
355.303	13.7045
357.085	13.0663
358.869	13.3921
360.653	13.1245
362.435	12.9582
364.218	12.2413
366.001	11.1685
367.781	10.7931
369.563	10.4591
371.345	9.63928
373.124	9.7454
374.905	9.27223
376.686	9.90233
378.464	10.0321
380.244	9.96267
382.022	10.4603
383.801	10.1937
385.58	11.3414
387.357	11.6754
389.135	11.2748
390.911	10.9917
392.689	11.0669
394.466	11.3967
396.241	11.3584
398.018	11.8612
399.792	11.2423
401.568	11.0605
403.341	12.3258
405.117	11.7541
406.889	11.4772
408.664	12.7524
410.436	13.4134
412.21	14.1537
413.981	15.5125
415.755	16.5362
417.525	15.7861
419.298	16.9756
421.068	16.6841
422.84	16.2805
424.609	15.6662
426.38	15.7664
428.149	14.9945
429.919	14.4574
431.688	13.7189
433.455	13.2688
435.225	14.2245
436.992	13.4309
438.76	13.5271
440.527	13.4455
442.293	13.5507
444.06	12.3559
445.826	12.2821
447.593	11.6127
449.357	10.8304
451.122	10.3996
452.888	9.53441
454.651	10.1805
456.415	10.7125
458.18	11.0351
459.942	12.37
461.705	12.7928
463.469	13.7488
465.23	14.9689
466.991	15.1341
468.752	16.3233
470.515	17.1836
472.275	18.8098
474.035	19.3176
475.797	18.8922
477.556	19.1083
479.315	20.5276
481.073	21.0955
482.834	21.8009
484.592	22.851
486.349	24.0869
488.106	24.9369
489.863	25.1556
491.622	26.4328
493.378	27.4397
495.134	29.1329
496.889	30.8312
498.645	31.7238
500.401	33.1341
502.156	34.1907
503.91	34.6959
505.664	33.862
507.417	33.7931
509.171	33.4525
510.923	32.6352
512.678	31.8419
514.43	32.4272
516.182	32.5607
517.933	33.3332
519.684	32.9547
521.435	32.4783
523.186	32.4451
524.936	31.7056
526.686	30.9157
528.435	29.9046
530.184	29.5226
531.933	28.0975
533.682	28.136
535.43	26.5435
537.18	26.6581
538.927	25.2906
540.674	24.6935
542.421	24.9731
544.167	24.6804
545.913	23.9256
547.659	22.8608
549.403	21.3397
551.148	20.3444
552.893	18.5827
554.637	17.8613
556.381	15.9631
558.125	14.8176
559.868	14.4161
561.611	11.8931
563.354	10.5686
565.097	9.73977
566.839	9.46134
568.581	8.40273
570.322	8.1263
572.063	7.49306
573.802	5.91276
575.542	5.28917
577.283	4.78694
579.022	5.39973
580.762	4.78134
582.501	4.01296
584.24	3.66144
585.976	3.10143
587.714	2.88363
589.452	2.15571
591.19	1.27448
592.927	0.402325
594.663	-0.092201
596.398	0.358088
598.134	0.134708
599.87	0.714853
601.605	1.62255
603.338	2.61099
605.073	3.13442
606.808	3.01544
608.542	4.56274
610.274	5.39958
612.007	6.26558
613.74	7.17864
615.473	8.0796
617.204	8.52056
618.936	9.11841
620.668	9.82325
622.397	10.7979
624.128	12.5469
625.859	13.266
627.588	14.7298
629.318	15.791
631.048	15.7137
632.775	15.4667
634.505	16.2022
636.233	16.9286
637.96	17.6055
639.688	19.0582
641.416	19.9795
643.142	20.2516
644.869	21.2487
646.594	21.9622
648.32	21.732
650.045	22.8099
651.771	23.7992
653.496	24.3703
655.219	24.63
656.944	24.6277
658.667	24.9827
660.391	25.7971
662.113	27.563
663.837	27.1516
665.558	26.7837
667.281	26.2085
669.002	26.7666
670.724	27.4583
672.444	27.0768
674.166	26.9181
675.885	27.0269
677.606	27.9265
679.325	28.1976
681.045	28.5103
682.763	28.4195
684.483	28.9687
686.2	29.9167
687.917	30.0449
689.636	30.5812
691.352	31.0661
693.07	30.6201
694.786	31.2605
696.501	31.5225
698.219	32.8958
699.933	33.2233
701.65	33.4235
703.364	33.771
705.078	34.0499
706.793	34.9366
708.506	35.4651
710.219	35.9055
711.934	36.1222
713.646	36.2211
715.358	36.2928
717.071	36.5606
718.782	37.8913
720.493	38.6391
722.204	39.4474
723.916	41.1448
725.626	41.9765
727.336	42.3945
729.045	43.7191
730.756	45.419
732.464	46.5326
734.173	47.0026
735.881	47.6978
737.59	49.2378
739.297	50.0293
741.004	51.6196
742.711	53.747
744.417	55.9087
746.125	57.5476
747.831	59.5204
749.537	60.3838
751.242	62.9011
752.946	64.6687
754.651	66.0285
756.357	67.0974
758.061	67.6672
759.764	70.0648
761.467	71.9492
763.17	73.0074
764.872	73.14
766.575	73.4277
768.276	74.7132
769.978	75.772
771.679	76.541
773.382	77.2481
775.083	79.0705
776.783	79.8008
778.483	81.004
780.182	82.0479
781.882	82.8596
783.581	82.7644
785.279	82.4155
786.978	82.7439
788.676	83.053
790.373	83.5437
792.071	83.2126
793.768	83.131
795.464	83.3104
797.161	83.3728
798.857	83.084
800.552	82.8631
802.248	82.5368
803.941	82.3438
805.636	83.0243
807.33	82.3003
809.024	82.1065
810.718	82.0985
812.412	82.2362
814.105	82.9528
815.798	84.0642
817.49	83.0886
819.183	83.9197
820.873	84.7466
822.564	86.3039
824.256	87.2361
825.947	87.5014
827.637	88.3185
829.328	88.6839
831.016	89.2177
832.705	89.0943
834.395	88.7261
836.084	88.8375
837.772	87.862
839.459	87.2637
841.147	86.0113
842.835	85.1867
844.522	84.6027
846.209	82.9971
847.894	81.7371
849.581	80.8577
851.267	79.0792
852.953	78.6626
854.637	76.7929
856.322	75.9328
858.007	74.158
859.689	73.1027
861.374	72.0622
863.058	71.6355
864.739	69.5578
866.423	68.2625
868.106	67.5292
869.787	66.783
871.469	65.7232
873.151	64.7804
874.831	63.7039
876.512	61.1372
878.193	60.7706
879.872	59.7994
881.553	59.0241
883.231	56.9311
884.911	56.162
886.591	54.8582
888.268	53.6154
889.947	53.2495
891.623	51.5116
893.302	53.0212
894.978	53.5525
896.656	54.5136
898.331	55.5609
900.008	55.1303
901.683	54.7803
903.359	54.7957
905.033	54.5734
906.709	55.0319
908.383	55.2488
910.058	54.6746
911.731	55.0355
913.405	54.634
915.078	54.3637
916.752	53.0504
918.423	52.7777
920.096	51.5335
921.768	51.1674
923.438	51.2673
925.111	50.936
926.781	50.5775
928.452	50.4565
930.122	49.7487
931.791	48.944
933.462	48.8124
935.13	47.7621
936.799	48.348
938.468	47.928
940.136	47.7115
941.803	47.0656
943.472	46.8446
945.139	45.8746
946.805	44.5815
948.473	43.9161
950.139	45.0309
951.804	45.8917
953.471	45.208
955.136	46.3499
956.801	46.5953
958.465	46.0087
960.131	46.2061
961.794	47.0975
963.458	47.7871
965.12	48.0138
966.785	48.6417
968.447	50.0393
970.109	50.8917
971.771	52.3655
973.432	53.7411
975.095	55.0207
976.756	56.8608
978.417	57.9918
980.077	59.6598
981.737	59.7498
983.396	60.6342
985.057	62.4755
986.716	62.3822
988.375	63.7231
990.033	64.8533
991.691	64.8771
993.349	65.4254
995.006	65.05
996.663	64.8681
998.32	65.4387
999.976	65.8525
1001.63	66.3746
1003.29	66.7942
1004.95	68.1271
1006.6	67.5363
1008.26	66.9198
1009.91	66.7734
1011.56	67.0791
1013.22	66.0078
1014.87	66.5618
1016.53	66.322
1018.18	65.223
1019.83	64.3692
1021.48	62.6397
1023.14	61.417
1024.79	60.4991
1026.44	59.4897
1028.09	59.9747
1029.74	59.7142
1031.39	59.8044
1033.04	60.082
1034.69	59.3796
1036.34	58.624
1037.99	58.0131
1039.64	56.4984
1041.29	56.1114
1042.94	55.314
1044.58	54.2039
1046.23	53.7782
1047.88	53.0872
1049.52	52.5039
1051.17	51.7526
1052.82	51.5552
1054.46	50.5553
1056.11	48.8855
1057.75	48.4159
1059.4	47.2418
1061.04	45.2126
1062.69	44.4158
1064.33	43.1995
1065.98	41.3005
1067.62	38.5792
1069.26	36.8365
1070.9	36.6087
1072.55	35.5978
1074.19	33.6885
1075.83	33.1315
1077.47	32.1658
1079.11	32.0922
1080.76	31.713
1082.4	30.9288
1084.04	29.3308
1085.68	29.0879
1087.32	28.8739
1088.95	27.4636
1090.59	27.3935
1092.23	28.1031
1093.87	27.88
1095.51	27.4765
1097.15	28.0273
1098.78	27.3898
1100.42	27.0339
1102.06	26.1732
1103.69	26.522
1105.33	28.1139
1106.97	28.1397
1108.6	28.5773
1110.24	28.2437
1111.87	27.7214
1113.51	28.6364
1115.14	28.8426
1116.77	28.342
1118.41	27.2249
1120.04	26.314
1121.67	25.6076
1123.31	24.4903
1124.94	23.3829
1126.57	23.1701
1128.2	22.266
1129.83	21.8724
1131.47	20.7228
1133.1	19.7656
1134.72	18.1676
1136.36	16.7936
1137.98	15.4921
1139.62	14.5194
1141.24	12.4716
1142.87	11.8524
1144.5	11.653
1146.13	10.5213
1147.76	8.73664
1149.38	8.13866
1151.01	8.07266
1152.64	7.07836
1154.27	5.44472
1155.89	4.4971
1157.52	3.97557
1159.14	3.12979
1160.77	2.56076
1162.39	2.0483
1164.02	1.3736
1165.64	1.32584
1167.27	1.62261
1168.89	0.623266
1170.51	0.632874
1172.14	2.18221
1173.76	2.43756
1175.38	2.44921
1177	2.50432
1178.63	2.41899
1180.25	3.54234
1181.87	4.30136
1183.49	5.53333
1185.11	7.63192
1186.73	8.50889
1188.35	7.32388
1189.97	8.77284
1191.59	9.43446
1193.21	10.6529
1194.83	11.1533
1196.45	11.1812
1198.07	11.9691
1199.68	13.2519
1201.3	15.3467
1202.92	17.5906
1204.53	19.4957
1206.15	21.6935
1207.77	22.4429
1209.38	25.0766
1211	27.3879
1212.62	29.4324
1214.23	32.1196
1215.84	34.4189
1217.46	36.9074
1219.07	38.541
1220.69	40.9749
1222.3	43.2084
1223.91	46.7053
1225.53	47.7064
1227.14	48.8713
1228.75	50.438
1230.36	52.8428
1231.97	55.8086
1233.59	57.8553
1235.2	59.9579
1236.81	61.6385
1238.42	64.4995
1240.03	66.8986
1241.64	69.5522
1243.25	71.4462
1244.85	72.7449
1246.46	74.9466
1248.07	76.3071
1249.68	77.8649
1251.29	79.801
1252.9	80.1814
1254.5	80.1801
1256.11	81.5735
1257.72	82.2355
1259.32	84.1666
1260.93	85.2468
1262.54	86.4433
1264.14	87.6092
1265.75	88.8581
1267.35	89.6726
1268.96	90.4072
1270.56	91.8474
1272.16	91.4668
1273.77	92.1448
1275.37	93.3109
1276.97	93.5473
1278.57	94.5495
1280.18	95.5694
1281.78	95.6105
1283.38	96.4954
1284.98	96.6738
1286.58	96.9908
1288.18	97.2152
1289.78	98.3338
1291.38	98.1351
1292.99	98.3671
1294.58	97.7702
1296.18	96.0214
1297.78	95.6755
1299.38	95.8847
1300.98	97.3345
1302.58	97.3034
1304.17	97.2025
1305.77	97.0201
1307.37	97.6009
1308.97	99.8161
1310.56	99.8708
1312.16	100.086
1313.76	99.6107
1315.35	99.9109
1316.95	99.9842
1318.54	100.459
1320.14	99.9174
1321.73	100.187
1323.32	98.5076
1324.92	97.2965
1326.51	96.7138
1328.1	94.9968
1329.7	93.5063
1331.29	91.8664
1332.88	91.3709
1334.47	90.1338
1336.07	88.8858
1337.66	87.9428
1339.25	86.1769
1340.84	84.3289
1342.43	82.7631
1344.02	81.1638
1345.61	79.4808
1347.2	77.2562
1348.79	75.091
1350.37	72.7725
1351.96	70.7892
1353.55	69.9353
1355.14	66.8898
1356.73	63.4346
1358.31	61.3636
1359.9	59.5944
1361.49	57.8959
1363.07	56.4267
1364.66	52.7042
1366.25	50.4171
1367.83	48.7281
1369.42	46.8795
1371	43.7959
1372.59	41.3874
1374.17	39.6003
1375.75	38.5905
1377.34	38.7464
1378.92	38.5961
1380.5	37.7653
1382.09	35.0082
1383.67	33.9921
1385.25	33.9431
1386.83	32.6627
1388.42	32.5799
1390	32.1701
1391.58	32.1489
1393.16	32.0481
1394.74	31.0284
1396.32	29.5721
1397.9	29.3629
1399.48	29.1209
1401.06	28.4978
1402.64	27.9032
1404.21	28.5316
1405.79	28.9976
1407.37	29.2643
1408.95	30.5809
1410.53	32.152
1412.1	34.1383
1413.68	35.4129
1415.26	38.1714
1416.83	40.2895
1418.41	41.7764
1419.98	44.9014
1421.56	47.8631
1423.13	52.3275
1424.71	56.8084
1426.28	61.6696
1427.86	66.427
1429.43	70.6014
1431	75.0453
1432.58	80.0884
1434.15	83.4043
1435.72	87.504
1437.29	91.3242
1438.87	95.0317
1440.44	98.0746
1442.01	99.3745
1443.58	100.625
1445.15	102.857
1446.72	104.095
1448.29	103.798
1449.86	102.609
1451.43	102.877
1453	102.356
1454.57	100.871
1456.14	98.7752
1457.71	96.3084
1459.27	93.3113
1460.84	90.2834
1462.41	88.5308
1463.98	85.5368
1465.54	81.3225
1467.11	77.9011
1468.67	72.9365
1470.24	67.2086
1471.81	61.9468
1473.37	55.6482
1474.94	49.5431
1476.5	45.1401
1478.07	39.4741
1479.63	34.9302
1481.19	30.7072
1482.76	25.5487
1484.32	21.6928
1485.88	18.1991
1487.45	15.3161
1489.01	12.8931
1490.57	10.4995
1492.13	8.23241
1493.69	5.78886
1495.26	3.32023
1496.82	2.51142
1498.38	1.81708
1499.94	1.65894
1501.5	0.964467
1503.06	1.53299
1504.62	1.59628
1506.17	2.67821
1507.73	3.27274
1509.29	2.88119
1510.85	2.98776
1512.41	1.8817
1513.97	2.0044
1515.52	1.88596
1517.08	1.96387
1518.64	2.72912
1520.19	2.20633
1521.75	3.04757
1523.31	3.97622
1524.86	5.17657
1526.42	5.95767
1527.97	6.75871
1529.52	8.41083
1531.08	10.1079
1532.63	11.5149
1534.19	12.691
1535.74	13.0121
1537.29	14.0694
1538.85	15.86
1540.4	18.7388
1541.95	20.2919
1543.5	21.9137
1545.06	23.7757
1546.61	24.7432
1548.16	26.4816
1549.71	28.4457
1551.26	29.8936
1552.81	32.5058
1554.36	36.2429
1555.91	38.6102
1557.46	40.0444
1559.01	41.4631
1560.56	42.8899
1562.11	45.8654
1563.65	47.8031
1565.2	50.2328
1566.75	52.2482
1568.29	53.5695
1569.84	54.3541
1571.39	55.3172
1572.94	57.0688
1574.48	58.5958
1576.03	59.5851
1577.57	61.7827
1579.12	62.8554
1580.66	65.4454
1582.21	67.3193
1583.75	68.8505
1585.3	68.3447
1586.84	68.3006
1588.38	69.794
1589.93	70.4508
1591.47	71.3761
1593.01	72.1534
1594.55	73.8442
1596.1	75.1496
1597.64	74.8424
1599.18	74.7737
1600.72	75.2734
1602.26	76.0542
1603.8	75.825
1605.34	75.3642
1606.88	75.6517
1608.42	75.7265
1609.96	76.1397
1611.5	76.6429
1613.04	76.9301
1614.58	78.3367
1616.12	80.2162
1617.65	81.7787
1619.19	81.5228
1620.73	82.7173
1622.27	84.4796
1623.8	86.2572
1625.34	88.545
1626.87	90.7246
1628.41	92.9987
1629.95	95.707
1631.48	97.9973
1633.02	99.8636
1634.55	101.376
1636.09	104.273
1637.62	107.956
1639.15	111.496
1640.69	114.476
1642.22	117.588
1643.76	120.104
1645.29	122.416
1646.82	125.163
1648.35	128.767
1649.88	131.152
1651.42	132.479
1652.95	135.282
1654.48	136.914
1656.01	137.212
1657.54	138.364
1659.07	137.731
1660.6	136.764
1662.13	135.772
1663.66	134.394
1665.19	133.643
1666.72	130.761
1668.24	128.348
1669.77	125.999
1671.3	122.845
1672.83	117.761
1674.35	113.374
1675.88	109.546
1677.41	105.374
1678.93	100.082
1680.46	95.0302
1681.99	90.251
1683.51	85.5399
1685.04	80.9207
1686.56	76.054
1688.09	70.7342
1689.61	64.8927
1691.13	59.7543
1692.66	55.5003
1694.18	50.9613
1695.71	46.8138
1697.23	43.1479
1698.75	39.806
1700.27	36.6931
1701.8	33.6152
1703.32	30.4152
1704.84	27.8518
1706.36	25.1134
1707.88	23.0234
1709.4	21.414
1710.92	20.1486
1712.44	19.1579
1713.96	18.5769
1715.48	17.6019
1717	16.4929
1718.52	15.3486
1720.04	14.3135
1721.56	12.8524
1723.07	13.0148
1724.59	12.6187
1726.11	11.7036
1727.63	11.9586
1729.14	12.1987
1730.66	10.9987
1732.18	10.5411
1733.69	10.7299
1735.21	10.5814
1736.72	10.7448
1738.24	10.7334
1739.75	9.79314
1741.27	10.2949
1742.78	9.37332
1744.3	9.25812
1745.81	8.93172
1747.32	8.03525
1748.84	7.4546
1750.35	7.21056
1751.86	6.61581
1753.37	5.84142
1754.89	5.26334
1756.4	4.83741
1757.91	4.37943
1759.42	4.14567
1760.93	4.15857
1762.44	3.37479
1763.95	2.54731
1765.46	1.80117
1766.97	1.2715
1768.48	1.18657
1769.99	0.957594
1771.5	0.842048
1773.01	0.527446
1774.52	0.784938
1776.03	0.713982
1777.53	0.503382
1779.04	0.521352
1780.55	0.381624
1782.06	0.884983
1783.56	1.56438
1785.07	1.8595
1786.57	2.07809
1788.08	2.30492
1789.59	2.38094
1791.09	1.86512
1792.6	1.49585
1794.1	1.50222
1795.6	1.49326
1797.11	1.73147
1798.61	2.11798
1800.12	1.84597
1801.62	2.42486
1803.12	2.60642
1804.63	2.68633
1806.13	2.87743
1807.63	3.27861
1809.13	3.5027
1810.63	3.44953
1812.14	3.60909
1813.64	3.42828
1815.14	3.07325
1816.64	3.31077
1818.14	3.21985
1819.64	3.02297
1821.14	3.18256
1822.64	3.08252
1824.14	3.02685
1825.63	3.23659
1827.13	3.63275
1828.63	3.29413
1830.13	2.85974
1831.63	3.12331
1833.12	3.55036
1834.62	4.37634
1836.12	4.01653
1837.62	3.66711
1839.11	3.61339
1840.61	3.79875
1842.1	4.68969
1843.6	5.45087
1845.09	5.60344
1846.59	5.65401
1848.08	6.38365
1849.58	6.73675
1851.07	7.40656
1852.57	8.37558
1854.06	8.87375
1855.55	9.31986
1857.04	10.2185
1858.54	10.4484
1860.03	10.5062
1861.52	10.5943
1863.01	10.5333
1864.5	10.2563
1866	10.0068
1867.49	10.1971
1868.98	10.1652
1870.47	10.1441
1871.96	10.1791
1873.45	10.73
1874.94	11.5333
1876.43	11.7093
1877.92	11.4329
1879.41	11.3047
1880.89	11.654
1882.38	12.0633
1882.48	12.391
1883.97	12.9587
1885.47	13.6989
1886.96	13.613
1888.46	13.2578
1889.95	14.2433
1891.44	14.9895
1892.94	15.2188
1894.43	14.9953
1895.92	15.327
1897.41	15.0374
1898.9	15.3111
1900.4	15.8328
1901.89	15.8563
1903.38	16.278
1904.87	16.9649
1906.36	17.5646
1907.85	18.2249
1909.34	17.8018
1910.83	19.0485
1912.32	19.2411
1913.81	19.9252
1915.29	20.2037
1916.78	19.3227
1918.27	19.4907
1919.76	19.9051
1921.25	19.958
1922.74	19.5466
1924.22	19.8507
1925.71	20.3855
1927.2	20.2434
1928.68	19.8756
1930.17	19.5823
1931.65	18.723
1933.14	18.2963
1934.63	18.296
1936.11	17.8159
1937.59	17.971
1939.08	17.8328
1940.56	18.2084
1942.05	18.0618
1943.53	18.1304
1945.01	18.7413
1946.5	19.7207
1947.98	19.5948
1949.46	18.9721
1950.94	19.823
1952.43	20.0547
1953.91	20.8887
1955.39	20.826
1956.87	21.6658
1958.35	21.5048
1959.83	21.5239
1961.31	20.975
1962.79	20.7992
1964.27	21.7665
1965.75	21.4255
1967.23	21.3494
1968.71	21.1165
1970.19	21.9613
1971.67	21.8116
1973.14	22.0297
1974.62	22.7622
1976.1	22.2743
1977.58	22.5734
1979.05	22.8928
1980.53	22.646
1982.01	22.4377
1983.48	22.3942
1984.96	22.3138
1986.43	20.8362
1987.91	20.7591
1989.38	20.2418
1990.86	20.3012
1992.33	20.9016
1993.81	20.6896
1995.28	20.7164
1996.76	20.7011
1998.23	21.1249
1999.7	21.0223
2001.18	20.6992
2002.65	21.2902
2004.12	21.4639
2005.59	21.3608
2007.06	22.3963
2008.54	22.6342
2010.01	22.4215
2011.48	22.9719
2012.95	23.221
2014.42	23.594
2015.89	23.541
2017.36	24.2896
2018.83	25.0755
2020.3	25.1582
2021.77	25.5032
2023.24	25.9916
2024.71	26.6594
2026.17	26.3696
2027.64	26.3947
2029.11	27.6772
2030.58	27.6521
2032.04	27.5846
2033.51	28.09
2034.98	28.4083
2036.45	28.6984
2037.91	28.8707
2039.38	29.1263
2040.84	29.5241
2042.31	29.2785
2043.77	29.8508
2045.24	29.8554
2046.7	30.0922
2048.17	30.7143
2049.63	30.4382
2051.1	30.2511
2052.56	29.3725
2054.02	29.6015
2055.48	29.7436
2056.95	30.1318
2058.41	29.8855
2059.87	30.6521
2061.33	32.0879
2062.8	32.2942
2064.26	32.9813
2065.72	33.4544
2067.18	34.3726
2068.64	34.9131
2070.1	34.7302
2071.56	35.2702
2073.02	35.7121
2074.48	36.3509
2075.94	37.7077
2077.4	38.2745
2078.86	39.3537
2080.31	40.4115
2081.77	40.9628
2083.23	41.3811
2084.69	42.6501
2086.14	43.6416
2087.6	44.1155
2089.06	44.5294
2090.52	45.6339
2091.97	46.0382
2093.43	47.1881
2094.88	48.4171
2096.34	49.2126
2097.79	50.1622
2099.25	50.9914
2100.7	52.0143
2102.16	53.7862
2103.61	54.4758
2105.07	55.9832
2106.52	58.0122
2107.97	59.4999
2109.43	61.6702
2110.88	63.4592
2112.33	66.2452
2113.78	68.1938
2115.24	70.2158
2116.69	72.6357
2118.14	74.51
2119.59	76.6231
2121.04	78.9718
2122.49	80.5972
2123.94	83.1921
2125.39	85.7441
2126.84	88.4746
2128.29	91.0545
2129.74	93.9211
2131.19	96.7878
2132.64	100.33
2134.09	103.117
2135.54	105.551
2136.98	108.78
2138.43	112.013
2139.88	115.075
2141.33	118.009
2142.77	120.443
2144.22	123.625
2145.67	126.716
2147.11	129.646
2148.56	132.97
2150.01	135.383
2151.45	137.652
2152.9	140.008
2154.34	142.027
2155.79	143.189
2157.23	144.942
2158.67	146.464
2160.12	147.162
2161.56	148.736
2163	150.191
2164.45	151.379
2165.89	153.402
2167.33	154.127
2168.78	155.542
2170.22	155.934
2171.66	155.213
2173.1	155.86
2174.54	156.407
2175.98	156.458
2177.42	156.22
2178.86	156.062
2180.3	154.791
2181.74	154.158
2183.18	152.619
2184.62	151.963
2186.06	150.579
2187.5	148.674
2188.94	146.264
2190.38	144.216
2191.82	142.315
2193.25	139.892
2194.69	136.898
2196.13	134.436
2197.57	131.61
2199	128.745
2200.44	126.745
2201.88	123.839
2203.31	121.422
2204.75	118.695
2206.18	115.79
2207.62	113.348
2209.05	110.692
2210.49	107.962
2211.92	105.137
2213.36	102.518
2214.79	99.2065
2216.22	96.7353
2217.66	93.7931
2219.09	90.8
2220.52	88.3214
2221.96	85.5871
2223.39	83.4637
2224.82	80.9297
2226.25	78.262
2227.68	75.5908
2229.11	73.1546
2230.55	71.5838
2231.98	69.253
2233.41	68.1451
2234.84	66.5885
2236.27	65.4387
2237.7	63.9612
2239.12	62.117
2240.55	60.5989
2241.98	58.1441
2243.41	57.4248
2244.84	57.391
2246.27	56.3682
2247.7	56.0056
2249.12	55.2902
2250.55	54.2196
2251.98	53.7933
2253.41	52.9194
2254.83	52.3688
2256.26	51.7132
2257.68	50.5469
2259.11	49.0116
2260.54	49.1276
2261.96	49.4851
2263.39	49.3587
2264.81	48.7725
2266.24	47.7005
2267.66	47.1654
2269.08	46.4908
2270.51	46.1283
2271.93	46.0632
2273.35	45.845
2274.78	45.8025
2276.2	45.5124
2277.62	45.0653
2279.04	44.469
2280.47	43.1828
2281.89	42.7252
2283.31	41.9349
2284.73	40.4654
2286.15	39.1739
2287.57	37.6124
2288.99	36.0381
2290.41	34.4491
2291.83	32.8398
2293.25	31.6329
2294.67	30.924
2296.09	29.7803
2297.51	28.5236
2298.93	27.7923
2300.35	27.6214
2301.76	28.0137
2303.18	27.5977
2304.6	28.7005
2306.02	27.9831
2307.44	27.8808
2308.85	27.9227
2310.27	27.8575
2311.69	27.1478
2313.1	26.991
2314.52	27.5249
2315.93	27.5354
2317.35	26.7099
2318.76	26.7816
2320.18	25.9913
2321.59	25.9697
2323.01	26.3033
2324.42	25.9241
2325.83	26.656
2327.25	27.0716
2328.66	27.3755
2330.07	27.9753
2331.49	28.2642
2332.9	27.6037
2334.31	27.1783
2335.72	25.8853
2337.13	24.9286
2338.55	24.916
2339.96	24.5136
2341.37	24.5686
2342.78	23.8096
2344.19	23.603
2345.6	22.8206
2347.01	21.6027
2348.42	20.5339
2349.83	19.4869
2351.24	18.7466
2352.65	18.471
2354.05	17.0374
2355.46	15.6401
2356.87	14.9185
2358.28	14.0607
2359.69	13.5915
2361.09	13.3449
2362.5	12.6749
2363.91	13.0688
2365.31	13.0572
2366.72	12.5354
2368.13	12.2909
2369.53	12.9558
2370.94	13.081
2372.34	13.015
2373.75	13.5223
2375.15	13.7683
2376.56	12.6001
2377.96	13.7026
2379.37	14.0252
2380.77	13.8954
2382.17	13.7697
2383.58	14.8355
2384.98	15.3875
2386.38	15.5854
2387.79	14.9324
2389.19	15.8121
2390.59	16.0103
2391.99	16.1862
2393.39	16.4886
2394.8	16.3575
2396.2	16.694
2397.6	16.3287
2399	15.8593
2400.4	15.6624
2401.8	15.1436
2403.2	15.5997
2404.6	15.8492
2406	15.3995
2407.4	16.0389
2408.79	16.3465
2410.19	16.539
2411.59	16.3659
2412.99	16.292
2414.39	16.4615
2415.78	16.0342
2417.18	15.6138
2418.58	16.051
2419.98	16.1596
2421.37	16.1296
2422.77	15.9492
2424.16	15.0931
2425.56	14.7201
2426.96	15.0344
2428.35	14.8232
2429.74	14.3022
2431.14	14.2646
2432.53	13.5671
2433.93	13.6657
2435.32	13.0119
2436.72	12.5633
2438.11	12.3161
2439.5	12.3333
2440.9	12.2851
2442.29	12.9711
2443.68	13.0717
2445.07	12.5733
2446.47	12.2524
2447.86	12.32
2449.25	11.5859
2450.64	11.2361
2452.03	11.197
2453.42	10.7556
2454.81	10.058
2456.2	9.62645
2457.59	9.59403
2458.98	9.7358
2460.37	9.45197
2461.76	9.12242
2463.15	9.48024
2464.54	9.07093
2465.93	8.56027
2467.32	8.96117
2468.7	9.49177
2470.09	10.0726
2471.48	10.3024
2472.87	10.5307
2474.25	10.3918
2475.64	10.3671
2477.03	10.3253
2478.41	9.93494
2479.8	9.62121
2481.18	9.17185
2482.57	9.23316
2483.95	8.56745
2485.34	8.36444
2486.72	8.00857
2488.11	8.13913
2489.49	7.90176
2490.88	7.69178
2492.26	7.55427
2493.65	6.69635
2495.03	6.13074
2496.41	6.30152
2497.79	5.33399
2499.18	4.62267
2500.56	4.57838
2501.94	3.08724
2503.32	2.49669
2504.7	2.37693
2506.09	2.59273
2507.47	2.16525
2508.85	2.07383
2510.23	1.87756
2511.61	1.45648
2512.99	0.297668
2514.37	-0.28923
2515.75	-0.386324
2517.13	-0.476644
2518.51	-0.0938523
2519.89	-0.0975136
2521.26	0.196053
2522.64	0.264158
2524.02	0.72882
2525.4	0.198516
2526.78	0.333702
2528.15	0.983118
2529.53	1.27084
2530.91	1.15505
2532.28	1.92833
2533.66	1.98131
2535.04	2.95253
2536.41	4.00544
2537.79	4.05342
2539.16	3.74946
2540.54	3.68507
2541.91	3.67309
2543.29	3.63652
2544.66	4.1316
2546.04	3.9751
2547.41	3.53735
2548.78	4.04446
2550.16	4.34023
2551.53	4.42542
2552.9	4.48372
2554.27	4.87967
2555.65	4.3404
2557.02	4.63076
2558.39	4.4919
2559.76	4.32027
2561.13	3.98291
2562.51	3.83676
2563.88	3.85209
2565.25	4.26516
2566.62	3.17968
2567.99	3.37825
2569.36	3.43056
2570.73	3.24828
2572.1	3.95556
2573.47	4.00019
2574.84	3.16643
2576.2	2.77188
2577.57	3.13959
2578.94	3.1367
2580.31	2.37734
2581.68	2.6294
2583.05	2.87387
2584.41	3.20857
2585.78	2.79993
2587.15	3.32157
2588.51	2.84663
2589.88	2.48662
2591.24	2.27669
2592.61	1.81826
2593.98	1.2447
2595.34	1.53859
2596.71	0.962758
2598.07	0.580289
2599.44	0.0533901
2600.8	0.163177
2602.16	-0.0980996
2603.53	-0.368372
2604.89	-1.73884
2606.26	-2.61411
2607.62	-3.01815
2608.98	-2.87612
2610.34	-3.27687
2611.71	-2.95664
2613.07	-2.71648
2614.43	-2.95716
2615.79	-3.07536
2617.15	-2.51639
2618.52	-2.6875
2619.88	-2.63378
2621.24	-2.85324
2622.6	-2.64741
2623.96	-2.98623
2625.32	-2.40143
2626.68	-2.12196
2628.04	-1.75102
2629.4	-1.37069
2630.75	-0.771821
2632.11	-1.23896
2633.47	-0.419596
2634.83	-0.357874
2636.19	0.233608
2637.55	0.262491
2638.9	0.831922
2640.26	1.73036
2641.62	1.59949
2642.98	1.5705
2644.33	2.27599
2645.69	2.22617
2647.04	2.10019
2648.4	2.0503
2649.76	2.77993
2651.11	2.57571
2652.47	2.37792
2653.82	2.62464
2655.18	2.48627
2656.53	1.86985
2657.88	2.03002
2659.24	1.98707
2660.59	1.53651
2661.95	1.29423
2663.3	1.10639
2664.65	1.00279
2666	1.25097
2667.36	0.598445
2668.71	0.841556
2670.06	0.734566
2671.41	0.47789
2672.76	0.292834
2674.12	0.783743
2675.47	0.868154
2676.82	0.829382
2678.17	0.97216
2679.52	1.31783
2680.87	0.683519
2682.22	0.496191
2683.57	0.564203
2684.92	0.738119
2686.27	0.983937
2687.62	0.96821
2688.97	1.05538
2690.31	1.50259
2691.66	1.5134
2693.01	2.31941
2694.36	2.58262
2695.71	3.25284
2697.05	3.52366
2698.4	3.51033
2699.75	3.16761
2701.09	4.52836
2702.44	4.45119
2703.78	4.20507
2705.13	4.87413
2706.48	5.60455
2707.82	6.02038
2709.17	5.12926
2710.51	5.49354
2711.86	5.73641
2713.2	5.77882
2714.54	6.22531
2715.89	6.72628
2717.23	7.52905
2718.57	7.58423
2719.92	7.89901
2721.26	8.81007
2722.6	8.59092
2723.95	9.39333
2725.29	9.63189
2726.63	9.7834
2727.97	10.1499
2729.31	10.4622
2730.65	10.6496
2732	10.7092
2733.34	10.6723
2734.68	10.8652
2736.02	11.1084
2737.36	11.196
2738.7	11.0451
2740.04	10.1388
2741.38	9.48236
2742.72	8.94535
2744.05	8.76164
2745.39	8.24886
2746.73	7.49541
2748.07	6.7616
2749.41	6.314
2750.75	5.93408
2752.08	5.91625
2753.42	5.74822
2754.76	5.60708
2756.09	5.38162
2757.43	4.9797
2758.77	4.30243
2760.1	3.46731
2761.44	2.97869
2762.78	2.85814
2764.11	2.32156
2765.44	2.12798
2766.78	1.67696
2768.11	2.028
2769.45	1.25693
2770.78	1.06551
2772.12	0.955075
2773.45	0.353077
2774.78	0.156016
2776.12	-0.370176
2777.45	-0.285066
2778.78	-0.605063
2780.12	-0.424632
2781.45	-0.274733
2782.78	0.363205
2784.11	0.237396
2785.44	-0.269201
2786.78	0.295381
2788.11	1.0137
2789.44	0.787936
2790.77	0.95925
2792.1	0.972353
2793.43	1.42672
2794.76	1.362
2796.09	1.36322
2797.42	1.40912
2798.75	1.39172
2800.08	1.11325
2801.4	1.09418
2802.73	1.29417
2804.06	1.26273
2805.39	0.496222
2806.72	-0.125866
2808.05	0.231338
2809.37	0.264212
2810.7	0.0731589
2812.03	-0.408222
2813.35	-1.02507
2814.68	-1.35312
2816.01	-0.829618
2817.33	0.399827
2818.66	1.56041
2819.98	2.66144
2821.31	4.94521
2822.63	6.89681
2823.96	8.85295
2825.28	11.4229
2826.61	14.4507
2827.93	18.2347
2829.25	21.8066
2830.58	25.2062
2831.9	28.89
2833.23	32.812
2834.55	37.5366
2835.87	41.8915
2837.19	46.3039
2838.52	50.4107
2839.84	55.1883
2841.16	60.6839
2842.48	65.9428
2843.8	71.0795
2845.12	77.1595
2846.44	84.3494
2847.77	91.0777
2849.08	98.4642
2850.4	106.453
2851.73	114.923
2853.05	123.51
2854.36	131.949
2855.68	139.491
2857	146.916
2858.32	155.38
2859.64	163.05
2860.96	170.749
2862.28	177.705
2863.59	184.614
2864.91	191.708
2866.23	198.703
2867.55	205.303
2868.86	210.985
2870.18	216.833
2871.5	221.742
2872.81	226.437
2874.13	231.039
2875.44	235.243
2876.76	239.764
2878.07	243.834
2879.39	247.918
2880.7	252.505
2882.02	256.096
2883.33	259.773
2884.65	262.992
2885.96	266.611
2887.28	270.979
2888.59	274.323
2889.9	277.149
2891.21	280.997
2892.53	284.327
2893.84	288.283
2895.15	292.276
2896.46	295.586
2897.78	299.816
2899.09	304.527
2900.4	309.89
2901.71	315.874
2903.02	321.694
2904.33	328.483
2905.64	337.271
2906.95	346.306
2908.26	355.525
2909.57	364.987
2910.88	375.821
2912.19	386.614
2913.5	396.422
2914.81	407.405
2916.12	417.91
2917.43	427.509
2918.73	436.597
2920.04	445.355
2921.35	453.58
2922.66	460.924
2923.96	468.565
2925.27	474.29
2926.58	479.636
2927.88	483.501
2929.19	487.35
2930.5	490.231
2931.8	492.247
2933.11	493.171
2934.41	492.689
2935.72	491.877
2937.02	489.027
2938.33	485.933
2939.63	483.27
2940.94	479.209
2942.24	473.576
2943.54	466.714
2944.85	459.712
2946.15	451.653
2947.45	443.113
2948.76	435.127
2950.06	425.846
2951.36	417.386
2952.66	408.156
2953.97	398.28
2955.27	388.511
2956.57	379.114
2957.87	369.566
2959.17	359.605
2960.47	349.234
2961.77	339.597
2963.07	331.483
2964.37	323.106
2965.67	315.28
2966.97	307.568
2968.27	299.538
2969.57	292.362
2970.87	284.838
2972.17	276.854
2973.47	268.794
2974.77	260.686
2976.07	253.467
2977.36	245.749
2978.66	237.756
2979.96	230.043
2981.26	222.266
2982.55	214.532
2983.85	206.258
2985.15	197.918
2986.44	189.848
2987.74	181.912
2989.03	173.937
2990.33	166.169
2991.63	158.575
2992.92	150.989
2994.21	143.954
2995.51	137.013
2996.8	130.93
2998.1	124.488
2999.39	117.739
3000.69	111.588
3001.98	106.083
3003.27	100.952
3004.57	95.6136
3005.86	89.5856
3007.15	83.9861
3008.44	78.9547
3009.74	74.7083
3011.03	69.8396
3012.32	65.8488
3013.61	61.6856
3014.9	58.2699
3016.19	55.7766
3017.48	53.2208
3018.78	51.0952
3020.07	48.489
3021.36	45.9058
3022.65	44.0997
3023.94	41.9143
3025.23	40.7506
3026.51	40.3529
3027.8	39.3111
3029.09	38.0195
3030.38	38.0164
3031.67	37.2313
3032.96	36.7986
3034.24	36.6469
3035.53	35.8232
3036.82	36.7111
3038.11	37.0018
3039.39	37.4975
3040.68	38.3151
3041.97	38.3332
3043.25	38.4081
3044.54	38.455
3045.83	39.3066
3047.11	39.434
3048.4	39.5539
3049.68	39.9428
3050.97	41.1438
3052.25	41.9557
3053.54	41.4391
3054.82	42.4747
3056.11	42.3165
3057.39	42.509
3058.67	43.0124
3059.96	42.979
3061.24	42.5873
3062.52	42.0542
3063.81	41.2952
3065.09	39.9903
3066.37	39.3755
3067.65	37.4425
3068.94	35.9813
3070.22	34.4737
3071.5	33.1254
3072.78	31.7468
3074.06	30.1566
3075.34	28.64
3076.62	27.3742
3077.9	25.5948
3079.18	24.2552
3080.46	22.7737
3081.74	21.3633
3083.02	19.4844
3084.3	17.7535
3085.58	16.4613
3086.86	14.9908
3088.14	13.5137
3089.42	12.7847
3090.69	11.9714
3091.97	11.1076
3093.25	10.739
3094.53	10.445
3095.8	9.80792
3097.08	9.39387
3098.36	8.95124
3099.63	8.09177
3100.91	8.30316
3102.19	7.45705
3103.46	6.91638
3104.74	6.82539
3106.01	5.74233
3107.29	5.41845
3108.56	4.83902
3109.84	5.24122
3111.11	5.01264
3112.39	4.67764
3113.66	4.40389
3114.94	4.46793
3116.21	3.83055
3117.48	3.16053
3118.76	3.32614
3120.03	2.70284
3121.3	2.72592
3122.57	2.45873
3123.85	1.75927
3125.12	1.54976
3126.39	1.9131
3127.66	1.37065
3128.93	1.00544
3130.21	1.0506
3131.48	0.536788
3132.75	0.936508
3134.02	0.506653
3135.29	0.572019
3136.56	0.333
3137.83	-0.0389941
3139.1	-0.0649708
3140.37	-0.543897
3141.64	-0.648006
3142.91	-0.411681
3144.17	-0.221937
3145.44	0.00176448
3146.71	0.577598
3147.98	1.43951
3149.25	1.90149
