#Acq. time (s)=	45
#Accumulations=	2
#Range (cm-¹)=	200...3150
#Windows=	2
#Auto scanning=	Off
#Autofocus=	Off
#Macrospot=	Off
#AutoExposure=	Off
#Spike filter=	Multiple accum.
#Delay time (s)=	0
#Binning=	1
#Readout mode=	Signal
#DeNoise=	Off
#ICS correction=	On
#Dark correction=	Off
#Inst. Process=	Off
#Detector Gain=	Best Dynamic Range
#Detector ADC=	20 kHz       
#Detector temperature (°C)=	-69.85
#Instrument=	LabRAM HR Evol
#Detector=	Synapse
#Objective=	x100
#Grating=	600 gr/mm
#ND Filter=	100%
#Laser (nm)=	532 
#Hole=	100.021
#Range=	Auto
#Laser Pol.=	No
#Raman. Pol.=	No
#Laser Pol. (°)=	-0.0007625
#Raman Pol. (°)=	89.9995
#Collection=	Microscope
#StageXY=	Marzhauser
#StageZ=	Marzhauser
#X (µm)=	8998.5
#Y (µm)=	-3064.3
#Z (µm)=	-54.65
#Full time(mm:ss)=	3:19
#Project=	
#Sample=	
#Site=	
#Title=	Thy_00_07_23_2x_45s_532 nm_x100_100%_600 gr_mm
#Remark=	
#Date=	28.06.2022 11:49
#Acquired=	28.06.2022 11:49:37
#Base:Fit=	10.08.2022 10:07:56
#Base:Sub=	10.08.2022 10:08:40
#Filter:Polynom=	16.08.2022 10:26:06
#AxisType[0]=Intens
#AxisUnit[0]=Cnt
#AxisType[1]=Spectr
#AxisUnit[1]=1/cm
200.407	5.15973
202.221	9.87517
204.035	13.0448
205.849	14.4159
207.665	16.168
209.478	18.0171
211.291	19.9042
213.104	20.9985
214.916	21.9701
216.73	21.7415
218.541	22.2645
220.352	21.8063
222.163	23.0403
223.973	22.3427
225.785	22.3103
227.595	21.525
229.404	21.1615
231.213	18.8101
233.022	17.4137
234.83	16.4396
236.638	15.5113
238.448	14.7508
240.255	13.6601
242.062	13.1137
243.868	12.2995
245.675	12.2183
247.48	11.2797
249.286	10.61
251.091	10.6121
252.896	9.36189
254.702	8.85185
256.506	8.39601
258.31	7.04211
260.113	4.90033
261.916	4.06625
263.719	4.84216
265.521	4.70168
267.323	4.79675
269.125	5.12879
270.926	3.87633
272.727	4.54152
274.527	2.15824
276.328	2.90119
278.127	4.60183
279.927	5.00129
281.726	4.35081
283.525	5.36702
285.323	5.50957
287.121	6.85054
288.919	7.67657
290.716	8.86269
292.513	10.985
294.31	13.3631
296.104	15.9071
297.9	17.8315
299.696	18.819
301.491	20.1535
303.286	20.9192
305.081	22.3171
306.875	23.606
308.669	24.0425
310.463	25.9555
312.256	27.5317
314.047	28.5582
315.839	29.2653
317.631	29.4245
319.423	29.8648
321.215	29.1779
323.006	30.7699
324.794	31.9749
326.585	32.215
328.375	32.2769
330.165	31.6684
331.954	32.9006
333.741	32.4747
335.53	31.9273
337.318	31.9771
339.106	31.4762
340.894	30.5761
342.679	29.3954
344.466	29.807
346.253	28.3469
348.039	28.1727
349.823	28.4525
351.608	28.3501
353.393	28.3503
355.176	27.3583
356.961	26.4531
358.745	22.7565
360.529	20.5918
362.31	19.6888
364.093	18.2354
365.876	19.69
367.657	20.5763
369.439	21.4641
371.221	23.16
373	26.1051
374.781	28.5144
376.56	33.2355
378.34	37.8336
380.12	44.1954
381.898	49.2802
383.677	52.5109
385.456	56.6249
387.233	60.381
389.011	64.2771
390.787	67.9354
392.565	71.4173
394.34	75.0301
396.117	78.5866
397.894	80.6887
399.668	83.7082
401.444	84.6551
403.217	85.67
404.993	85.0945
406.766	85.6813
408.54	85.9513
410.312	85.0492
412.086	85.5185
413.858	84.8035
415.631	82.4377
417.402	81.1183
419.174	79.494
420.944	78.3647
422.716	74.8457
424.486	73.4342
426.257	70.652
428.025	66.5708
429.794	62.5102
431.564	58.8069
433.332	53.674
435.101	48.2103
436.868	45.5342
438.637	43.5655
440.403	39.1319
442.169	36.1986
443.937	33.3446
445.703	29.9281
447.468	26.4603
449.234	27.6293
450.999	27.9005
452.765	28.3375
454.528	28.0188
456.292	29.0887
458.057	32.1732
459.819	33.9149
461.582	38.2891
463.344	41.0834
465.107	44.965
466.868	46.2047
468.629	47.7532
470.392	48.1484
472.152	50.083
473.912	52.5845
475.672	55.1635
477.433	56.4546
479.192	57.6058
480.951	59.9887
482.709	61.7208
484.469	63.7532
486.226	63.8467
487.984	64.5736
489.74	66.2398
491.499	67.2846
493.255	68.2978
495.011	69.493
496.767	69.7165
498.522	69.926
500.277	71.1188
502.033	70.1025
503.788	69.2722
505.541	68.9743
507.295	68.0149
509.048	66.2869
510.801	64.2187
512.553	62.6252
514.308	59.4627
516.06	57.6841
517.811	56.0438
519.562	54.4324
521.313	53.092
523.063	53.0577
524.814	54.1459
526.563	52.5919
528.313	50.0055
530.062	48.247
531.811	45.9872
533.559	43.926
535.308	41.7938
537.055	41.2847
538.803	39.2959
540.55	37.995
542.297	36.4636
544.043	36.3328
545.789	35.7139
547.535	34.4394
549.281	32.906
551.026	30.1607
552.771	29.0094
554.515	28.6796
556.259	28.4548
558.003	28.9253
559.747	29.1565
561.49	30.3336
563.233	30.4251
564.975	29.83
566.717	31.8673
568.459	33.4694
570.2	33.8965
571.942	34.2621
573.68	32.2034
575.421	31.9415
577.161	32.2769
578.901	31.1597
580.64	30.9569
582.379	30.7084
584.118	29.7891
585.855	29.8533
587.593	29.1652
589.331	28.6798
591.068	29.1762
592.805	28.899
594.54	28.1441
596.277	26.0977
598.013	25.0781
599.749	24.0469
601.484	22.4922
603.217	19.7315
604.952	18.6512
606.687	17.1995
608.421	15.605
610.153	14.6125
611.886	12.6476
613.619	11.1001
615.35	10.1514
617.083	8.76523
618.815	7.48431
620.547	7.58219
622.276	6.82571
624.008	6.88672
625.738	6.16213
627.467	3.9606
629.197	2.75432
630.927	2.61514
632.655	1.90926
634.384	1.71227
636.113	0.429892
637.839	1.30976
639.568	0.154995
641.293	1.41593
643.021	1.49948
644.748	2.12873
646.473	3.34036
648.2	4.20251
649.924	4.44042
651.65	4.85658
653.376	4.94744
655.099	4.7306
656.824	4.25573
658.546	3.50096
660.271	3.84233
661.993	5.48537
663.716	4.97792
665.438	4.08891
667.161	5.05671
668.881	4.99047
670.604	5.11888
672.324	5.1018
674.045	5.33616
675.765	5.91782
677.486	5.76111
679.204	5.30239
680.925	4.62587
682.643	5.07251
684.361	6.40213
686.08	7.56328
687.797	7.97096
689.516	8.96804
691.232	11.0386
692.95	11.2805
694.666	11.2694
696.382	12.7682
698.099	13.4108
699.813	14.5946
701.528	14.0296
703.244	14.2192
704.958	14.4952
706.673	14.9019
708.387	15.6269
710.099	16.3321
711.814	16.7417
713.526	16.8636
715.238	18.7133
716.949	20.4824
718.663	21.0939
720.374	22.675
722.084	24.6458
723.796	25.726
725.506	26.863
727.216	29.8722
728.925	31.7523
730.636	33.3498
732.345	36.2384
734.053	37.5515
735.761	39.6839
737.471	40.7129
739.178	42.6986
740.885	45.9622
742.592	48.013
744.298	50.395
746.006	53.8788
747.712	54.3044
749.417	55.6884
751.122	59.3547
752.827	62.3771
754.532	65.0397
756.236	66.7065
757.942	68.2567
759.645	70.6296
761.348	72.3907
763.051	72.8866
764.753	72.9147
766.456	73.4177
768.158	74.5343
769.859	74.3296
771.56	73.844
773.261	73.094
774.964	72.7033
776.664	71.2367
778.364	69.501
780.064	67.7218
781.763	66.7331
783.462	65.3777
785.16	63.553
786.859	60.1402
788.557	58.8127
790.255	57.413
791.952	56.0105
793.649	55.4481
795.346	53.2593
797.042	50.6513
798.738	49.7927
800.434	49.0873
802.127	47.3249
803.823	45.4196
805.517	45.5548
807.212	44.6367
808.906	42.4812
810.6	41.2024
812.293	41.2118
813.987	42.1531
815.68	41.9945
817.372	42.7896
819.064	43.4929
820.754	45.1837
822.446	46.8399
824.137	50.1014
825.828	52.1757
827.519	53.9335
829.209	56.0353
830.897	58.3006
832.587	58.6056
834.276	60.2119
835.966	61.5761
837.654	62.3978
839.341	63.1779
841.029	62.3543
842.717	62.7779
844.404	62.9063
846.091	61.6301
847.776	60.2358
849.463	59.799
851.149	59.368
852.833	57.3176
854.519	55.6993
856.204	54.5163
857.889	53.2256
859.572	51.6407
861.256	50.0631
862.94	48.8613
864.622	46.7493
866.305	45.1114
867.988	43.8388
869.669	41.3921
871.351	39.8562
873.033	38.4951
874.713	36.0259
876.395	34.0146
878.074	31.9592
879.755	29.2805
881.435	28.1964
883.114	27.59
884.794	26.06
886.471	24.7943
888.15	24.5903
889.829	23.8973
891.506	21.7748
893.184	20.6002
894.861	20.1325
896.538	21.8771
898.214	21.7586
899.891	23.5955
901.566	25.4858
903.242	28.0084
904.916	28.8235
906.592	29.5339
908.266	30.6594
909.941	30.352
911.614	32.1134
913.288	33.0082
914.961	33.283
916.635	32.5806
918.306	33.8314
919.979	35.5252
921.651	35.5671
923.321	35.398
924.994	35.3581
926.664	35.403
928.336	34.0236
930.005	33.1491
931.674	32.4088
933.345	31.6001
935.014	29.772
936.682	29.3987
938.352	30.3207
940.019	30.2142
941.687	29.093
943.356	28.2276
945.022	27.2575
946.689	26.8185
948.357	25.3086
950.022	24.9511
951.688	24.9649
953.355	24.3429
955.02	22.9616
956.684	19.6052
958.348	16.7902
960.014	13.5204
961.678	11.839
963.341	12.2503
965.004	13.7225
966.669	14.4882
968.331	15.969
969.993	17.3951
971.655	18.3589
973.316	20.3472
974.979	21.5882
976.64	24.6699
978.3	25.8022
979.961	27.7948
981.62	29.0714
983.28	30.2291
984.941	29.7777
986.6	29.8293
988.259	27.47
989.917	28.0709
991.575	28.4296
993.233	29.5527
994.89	30.6795
996.547	31.4967
998.204	33.2223
999.86	35.2998
1001.52	36.7126
1003.17	37.4975
1004.83	38.2063
1006.49	39.8262
1008.14	38.6374
1009.79	39.667
1011.45	40.1177
1013.1	41.5736
1014.76	42.2353
1016.41	42.4082
1018.06	41.7614
1019.72	43.9727
1021.37	44.0963
1023.02	43.2297
1024.67	42.1999
1026.32	43.3564
1027.97	43.4764
1029.62	42.3906
1031.27	40.9832
1032.92	38.8105
1034.57	37.1732
1036.22	34.2843
1037.87	31.3456
1039.52	29.3702
1041.17	28.9105
1042.82	29.0461
1044.47	31.2419
1046.11	32.219
1047.76	32.3905
1049.41	32.2216
1051.06	33.0373
1052.7	33.2748
1054.35	32.22
1055.99	32.756
1057.64	31.3413
1059.28	30.7562
1060.93	28.7194
1062.57	27.8681
1064.22	27.0043
1065.86	26.0083
1067.5	27.8164
1069.15	28.8517
1070.79	29.6479
1072.43	33.42
1074.08	35.8831
1075.72	38.5266
1077.36	40.1521
1079	41.5884
1080.64	42.4785
1082.28	42.224
1083.92	42.7072
1085.56	44.8208
1087.2	46.5592
1088.84	48.0761
1090.48	49.2812
1092.12	53.3753
1093.76	55.3418
1095.39	58.316
1097.03	59.9304
1098.67	62.1845
1100.31	64.6273
1101.94	67.4107
1103.58	68.8971
1105.22	69.9506
1106.85	71.7115
1108.49	72.8313
1110.12	71.5978
1111.76	70.3911
1113.39	70.2573
1115.03	68.8241
1116.66	69.2023
1118.29	68.2234
1119.93	68.5711
1121.56	67.1992
1123.19	67.1033
1124.82	65.6574
1126.46	64.977
1128.09	62.9022
1129.72	62.2387
1131.35	61.8573
1132.98	61.6087
1134.61	59.3557
1136.24	57.5421
1137.87	56.4044
1139.5	54.3437
1141.13	53.0836
1142.76	51.5977
1144.39	50.61
1146.01	49.4171
1147.64	48.7884
1149.27	47.713
1150.9	44.6771
1152.53	42.5931
1154.15	40.6316
1155.78	37.0555
1157.4	33.3219
1159.03	29.8257
1160.65	26.5349
1162.28	23.6278
1163.9	20.9934
1165.53	19.8464
1167.15	19.7827
1168.78	18.7054
1170.4	18.258
1172.02	17.5232
1173.65	17.1501
1175.27	17.0944
1176.89	16.7556
1178.51	16.3926
1180.14	17.0729
1181.76	16.0611
1183.38	15.2467
1185	14.9253
1186.62	14.2163
1188.24	14.6122
1189.86	13.3583
1191.48	13.2296
1193.1	14.0997
1194.71	16.3532
1196.33	17.897
1197.95	20.8982
1199.57	22.4113
1201.19	24.8591
1202.8	27.7785
1204.42	31.6152
1206.04	33.8186
1207.65	38.0256
1209.27	41.6594
1210.88	46.0027
1212.5	50.6409
1214.12	55.6215
1215.73	58.5624
1217.35	63.4307
1218.96	66.6952
1220.57	71.3525
1222.19	75.8955
1223.8	79.9664
1225.41	84.501
1227.03	87.8871
1228.64	91.8467
1230.25	94.3211
1231.86	96.8498
1233.47	99.2513
1235.08	100.798
1236.69	102.148
1238.31	103.978
1239.92	105.702
1241.52	107.249
1243.13	107.849
1244.74	109.279
1246.35	111.491
1247.96	111.043
1249.57	111.257
1251.18	110.608
1252.78	109.26
1254.39	108.334
1256	107.493
1257.6	106.351
1259.21	104.466
1260.82	102.456
1262.42	99.497
1264.03	98.0032
1265.63	96.4491
1267.24	95.7307
1268.84	94.1439
1270.45	92.4055
1272.05	91.6478
1273.65	93.3835
1275.26	94.5563
1276.86	94.7889
1278.46	96.2808
1280.06	97.4972
1281.67	99.2019
1283.27	102.259
1284.87	104.021
1286.47	107.886
1288.07	111.296
1289.67	113.887
1291.27	117.155
1292.87	121.132
1294.47	125.445
1296.07	127.625
1297.67	132.213
1299.27	135.864
1300.87	141.158
1302.47	146.626
1304.06	150.788
1305.66	156.075
1307.26	160.152
1308.85	165.181
1310.45	170.005
1312.05	174.557
1313.64	179.556
1315.24	183.873
1316.83	187.036
1318.43	190.84
1320.02	192.579
1321.62	194.044
1323.21	194.933
1324.8	195.962
1326.4	196.599
1327.99	196.593
1329.59	198.455
1331.18	197.387
1332.77	196.052
1334.36	195.932
1335.95	195.451
1337.54	193.92
1339.14	191.978
1340.73	190.733
1342.32	188.631
1343.91	186.519
1345.5	183.55
1347.09	180.747
1348.67	177.599
1350.26	175.207
1351.85	173.19
1353.44	171.727
1355.03	168.615
1356.62	165.653
1358.2	162.588
1359.79	160.173
1361.38	156.904
1362.96	154.537
1364.55	151.955
1366.14	150.838
1367.72	147.822
1369.31	146.1
1370.89	143.638
1372.48	141.207
1374.06	141.153
1375.64	139.153
1377.23	138.978
1378.81	137.752
1380.39	136.701
1381.98	135.974
1383.56	134.74
1385.14	134.156
1386.72	133.068
1388.3	132.602
1389.89	130.74
1391.47	128.238
1393.05	126.645
1394.63	122.388
1396.21	120.531
1397.79	118.968
1399.37	115.864
1400.95	114.828
1402.52	113.594
1404.1	113.35
1405.68	113.853
1407.26	114.208
1408.84	114.628
1410.42	115.423
1411.99	116.532
1413.57	119.358
1415.15	122.331
1416.72	124.374
1418.3	127.732
1419.87	130.984
1421.45	135.413
1423.02	140.126
1424.6	145.361
1426.17	149.938
1427.75	154.984
1429.32	160.879
1430.89	166.332
1432.47	172.873
1434.04	178.531
1435.61	183.786
1437.18	188.649
1438.76	194.313
1440.33	199.207
1441.9	204.062
1443.47	208.634
1445.04	212.711
1446.61	215.56
1448.18	217.52
1449.75	217.282
1451.32	217.205
1452.89	218.077
1454.46	215.789
1456.03	213.716
1457.6	210.361
1459.16	207.337
1460.73	204.119
1462.3	198.18
1463.87	193.286
1465.43	187.266
1467	179.293
1468.56	171.69
1470.13	163.394
1471.7	155.09
1473.26	146.353
1474.83	140.339
1476.39	132.235
1477.96	124.594
1479.52	117.703
1481.08	109.826
1482.65	103.606
1484.21	95.7263
1485.77	89.0631
1487.34	82.9919
1488.9	76.6092
1490.46	70.782
1492.02	66.6415
1493.58	63.0149
1495.15	58.6946
1496.71	55.8724
1498.27	53.1532
1499.83	52.5626
1501.39	49.5732
1502.95	48.1488
1504.51	47.2312
1506.07	46.5065
1507.63	46.2626
1509.18	44.8875
1510.74	45.7678
1512.3	45.2013
1513.86	45.8923
1515.41	46.5838
1516.97	47.5268
1518.53	47.9207
1520.08	49.0032
1521.64	50.1318
1523.2	51.4527
1524.75	52.1595
1526.31	53.5934
1527.86	54.5409
1529.42	57.1998
1530.97	59.5624
1532.52	61.3446
1534.08	62.8793
1535.63	64.9231
1537.19	67.4581
1538.74	68.9617
1540.29	71.7163
1541.84	75.3277
1543.4	76.769
1544.95	79.9849
1546.5	83.3452
1548.05	86.376
1549.6	90.8142
1551.15	95.9678
1552.7	100.939
1554.25	104.936
1555.8	108.363
1557.35	113.154
1558.9	117.348
1560.45	121.764
1562	125.119
1563.54	129.382
1565.09	133.587
1566.64	137.692
1568.19	142.562
1569.73	146.838
1571.28	150.28
1572.83	154.476
1574.37	157.007
1575.92	161.319
1577.47	164.095
1579.01	166.515
1580.56	169.473
1582.1	171.448
1583.64	172.571
1585.19	174.813
1586.73	176.714
1588.28	178.835
1589.82	180.116
1591.36	179.597
1592.9	179.508
1594.45	178.272
1595.99	177.331
1597.53	177.368
1599.07	175.916
1600.61	173.882
1602.15	172.423
1603.69	170.164
1605.23	167.713
1606.77	164.645
1608.31	162.731
1609.85	160.89
1611.39	158.527
1612.93	156.876
1614.47	155.355
1616.01	154.617
1617.55	154.023
1619.08	152.305
1620.62	150.783
1622.16	150.159
1623.7	148.762
1625.23	148.82
1626.77	149.286
1628.3	148.56
1629.84	148.99
1631.37	149.488
1632.91	149.871
1634.44	150.882
1635.98	151.078
1637.51	151.734
1639.05	153.381
1640.58	154.333
1642.11	156.924
1643.65	158.125
1645.18	158.787
1646.71	159.504
1648.24	161.132
1649.78	163.091
1651.31	162.374
1652.84	163.474
1654.37	162.546
1655.9	163.889
1657.43	163.23
1658.96	163.238
1660.49	163.151
1662.02	161.874
1663.55	159.352
1665.08	157.141
1666.61	155
1668.14	150.941
1669.66	147.648
1671.19	143.387
1672.72	140.458
1674.25	136.742
1675.77	132.227
1677.3	128.084
1678.83	124.519
1680.35	120.164
1681.88	116.101
1683.4	111.938
1684.93	108.62
1686.45	102.655
1687.98	98.1923
1689.5	93.504
1691.03	89.3291
1692.55	85.0032
1694.07	79.7196
1695.6	74.8823
1697.12	69.4964
1698.64	65.3436
1700.17	60.8775
1701.69	57.2203
1703.21	52.7138
1704.73	48.176
1706.25	45.8128
1707.77	43.0346
1709.29	40.006
1710.81	36.678
1712.33	35.4397
1713.85	33.7179
1715.37	31.616
1716.89	29.3696
1718.41	28.2642
1719.93	26.7584
1721.45	25.6815
1722.97	25.731
1724.49	24.7666
1726	22.9756
1727.52	21.8192
1729.04	21.1631
1730.55	20.9706
1732.07	21.1509
1733.59	20.4907
1735.1	19.9487
1736.62	19.3249
1738.13	17.9935
1739.65	16.7348
1741.16	15.4585
1742.68	13.9129
1744.19	12.8047
1745.7	12.4244
1747.22	12.2283
1748.73	11.9716
1750.24	10.5073
1751.76	9.76306
1753.27	9.01597
1754.78	8.65876
1756.29	7.82142
1757.8	6.95869
1759.31	6.14123
1760.83	4.61973
1762.34	3.85489
1763.85	4.18465
1765.36	3.52459
1766.87	2.90373
1768.38	1.98312
1769.89	0.971631
1771.39	0.486413
1772.9	-0.152998
1774.41	-1.00935
1775.92	-2.02066
1777.43	-2.12711
1778.94	-2.82885
1780.44	-2.65255
1781.95	-1.74442
1783.46	-1.28695
1784.96	-1.55863
1786.47	-0.90078
1787.97	0.168664
1789.48	0.45671
1790.99	0.737383
1792.49	1.39105
1794	2.45418
1795.5	3.46883
1797	3.33513
1798.51	3.70141
1800.01	3.46921
1801.51	3.59838
1803.02	3.83552
1804.52	4.14367
1806.02	5.03107
1807.53	5.19513
1809.03	5.19531
1810.53	4.73481
1812.03	5.27842
1813.53	5.84628
1815.03	5.76112
1816.53	6.73883
1818.03	7.40384
1819.53	8.53587
1821.03	8.54427
1822.53	7.76857
1824.03	6.9626
1825.53	6.76793
1827.03	7.55248
1828.53	7.51579
1830.02	7.56925
1831.52	6.89445
1833.02	7.26855
1834.52	6.70802
1836.01	6.96752
1837.51	6.87053
1839.01	6.87375
1840.5	6.73452
1842	6.52004
1843.49	6.51996
1844.99	6.48494
1846.48	6.49745
1847.98	6.5064
1849.47	6.61568
1850.97	7.50862
1852.46	7.95981
1853.95	7.69029
1855.45	7.58684
1856.94	8.10521
1858.43	7.85421
1859.93	7.74002
1861.42	7.55573
1862.91	7.81821
1864.4	8.41259
1865.89	8.83348
1867.38	8.70414
1868.87	9.16531
1870.36	8.48333
1871.85	7.99243
1873.34	8.30067
1874.83	7.74461
1876.32	7.32343
1877.81	7.6212
1879.3	8.13201
1880.79	7.63262
1882.28	7.32063
1882.52	7.29564
1884.02	6.2575
1885.51	6.96186
1887.01	6.5463
1888.5	6.12607
1889.99	5.9997
1891.49	5.09966
1892.98	4.71051
1894.47	4.17567
1895.97	4.02293
1897.46	3.44689
1898.95	3.02401
1900.44	2.58349
1901.93	1.57375
1903.42	1.29929
1904.91	1.0332
1906.4	0.849706
1907.89	0.281865
1909.38	0.534651
1910.87	1.37623
1912.36	1.89962
1913.85	1.57398
1915.34	1.69105
1916.83	2.60321
1918.32	3.41695
1919.8	3.42489
1921.29	3.83951
1922.78	4.56177
1924.27	4.29382
1925.75	3.75283
1927.24	4.1454
1928.73	4.51425
1930.21	4.32882
1931.7	5.17414
1933.18	5.65083
1934.67	5.77196
1936.15	6.9052
1937.64	6.80617
1939.12	7.44914
1940.61	7.33479
1942.09	6.85758
1943.57	6.75635
1945.06	7.47149
1946.54	7.67084
1948.02	7.31466
1949.51	7.9931
1950.99	8.18392
1952.47	8.69233
1953.95	7.60497
1955.43	7.61473
1956.91	6.91437
1958.4	6.87124
1959.88	7.96497
1961.36	7.7623
1962.84	7.28842
1964.32	6.3007
1965.8	5.88716
1967.27	5.74162
1968.75	4.9584
1970.23	3.69047
1971.71	2.76535
1973.19	3.16106
1974.67	2.23237
1976.14	2.55754
1977.62	2.19922
1979.1	2.53701
1980.58	2.78519
1982.05	3.43646
1983.53	3.23262
1985	3.01145
1986.48	2.17148
1987.95	2.92657
1989.43	3.32315
1990.9	3.80881
1992.38	2.59039
1993.85	2.65786
1995.33	3.53667
1996.8	3.81894
1998.27	3.28989
1999.75	4.199
2001.22	5.02139
2002.69	4.03401
2004.16	4.2432
2005.64	5.01752
2007.11	4.9954
2008.58	5.30348
2010.05	6.19439
2011.52	6.51481
2012.99	7.05667
2014.46	6.31472
2015.93	5.90942
2017.4	6.94636
2018.87	6.88192
2020.34	6.96853
2021.81	7.17108
2023.28	7.47432
2024.75	6.72042
2026.22	7.03574
2027.69	6.50424
2029.15	7.21888
2030.62	7.08275
2032.09	7.42754
2033.56	7.53024
2035.02	7.41452
2036.49	6.16362
2037.96	5.99512
2039.42	6.38318
2040.89	5.9284
2042.35	5.71641
2043.82	6.28254
2045.28	6.53726
2046.75	5.91541
2048.21	5.22558
2049.67	5.6888
2051.14	6.10354
2052.6	6.80984
2054.07	6.72036
2055.53	6.75278
2056.99	7.36007
2058.45	7.57241
2059.92	8.65769
2061.38	9.57757
2062.84	9.2607
2064.3	9.87943
2065.76	9.5324
2067.22	11.1759
2068.68	10.5283
2070.14	10.4687
2071.6	11.0668
2073.06	11.4559
2074.52	11.3378
2075.98	11.4944
2077.44	11.5469
2078.9	11.7841
2080.36	12.328
2081.82	11.6843
2083.27	11.6007
2084.73	11.1453
2086.19	11.0104
2087.65	10.3378
2089.1	10.1936
2090.56	9.32959
2092.02	8.23475
2093.47	7.87283
2094.93	6.92801
2096.38	5.91456
2097.84	5.27006
2099.29	5.44927
2100.75	5.05677
2102.2	5.22698
2103.66	4.62774
2105.11	4.43476
2106.56	4.06147
2108.02	3.88318
2109.47	2.46068
2110.92	1.41135
2112.38	1.21265
2113.83	1.23246
2115.28	1.69374
2116.73	0.969074
2118.18	0.833823
2119.63	0.887693
2121.09	2.02407
2122.54	1.84717
2123.99	2.76778
2125.44	2.74393
2126.89	2.68643
2128.34	3.36578
2129.79	3.93117
2131.23	3.83786
2132.68	4.55693
2134.13	5.2401
2135.58	5.83301
2137.03	6.27454
2138.48	6.01484
2139.92	6.23743
2141.37	6.1471
2142.82	7.15514
2144.27	8.27712
2145.71	8.49718
2147.16	9.41871
2148.6	10.0659
2150.05	9.73208
2151.49	10.3215
2152.94	11.1709
2154.38	11.007
2155.83	11.4689
2157.27	11.6507
2158.72	11.2884
2160.16	10.0764
2161.6	9.93157
2163.05	9.13354
2164.49	9.29827
2165.93	9.68565
2167.38	9.11297
2168.82	9.1891
2170.26	8.10987
2171.7	8.63623
2173.14	8.8069
2174.58	8.31723
2176.03	7.24525
2177.47	7.61625
2178.91	6.93491
2180.35	7.04833
2181.79	5.70896
2183.23	5.59909
2184.67	6.47479
2186.1	5.79655
2187.54	6.15582
2188.98	5.70354
2190.42	5.4012
2191.86	5.01408
2193.3	4.66799
2194.73	3.50285
2196.17	3.58455
2197.61	3.2009
2199.05	3.29747
2200.48	2.89983
2201.92	3.28621
2203.35	3.86444
2204.79	3.92867
2206.22	4.54281
2207.66	4.01591
2209.1	3.84516
2210.53	3.48232
2211.97	3.7905
2213.4	4.71159
2214.83	5.6066
2216.27	6.42124
2217.7	6.70456
2219.13	7.66435
2220.57	8.05199
2222	8.20251
2223.43	8.96167
2224.86	9.82244
2226.29	9.41852
2227.72	8.79751
2229.16	8.74246
2230.59	8.31502
2232.02	8.51447
2233.45	8.8505
2234.88	8.49322
2236.31	8.44967
2237.74	8.69299
2239.17	8.27482
2240.6	8.65505
2242.03	9.16641
2243.45	10.4999
2244.88	9.52094
2246.31	9.60282
2247.74	9.82537
2249.17	9.89765
2250.59	9.62572
2252.02	9.70346
2253.45	9.48162
2254.87	9.0988
2256.3	8.72403
2257.73	8.11429
2259.15	8.2368
2260.58	7.11395
2262	6.47157
2263.43	7.17322
2264.85	7.15128
2266.28	7.00906
2267.7	7.14748
2269.13	6.74764
2270.55	7.09716
2271.97	7.26592
2273.4	8.38322
2274.82	7.7032
2276.24	7.70042
2277.67	8.4585
2279.09	8.34111
2280.51	8.35844
2281.93	8.6107
2283.35	9.15291
2284.77	8.36877
2286.2	9.38865
2287.62	9.31594
2289.04	10.0582
2290.46	9.69576
2291.88	8.3555
2293.3	7.42556
2294.72	6.67562
2296.13	6.89852
2297.55	6.14772
2298.97	6.06569
2300.39	6.54695
2301.81	6.4838
2303.23	6.45808
2304.64	6.12858
2306.06	6.47914
2307.48	6.11813
2308.89	6.62295
2310.31	6.26428
2311.73	6.56049
2313.14	6.32927
2314.56	4.76581
2315.98	4.55485
2317.39	4.64237
2318.81	4.2072
2320.22	2.89523
2321.64	3.14309
2323.05	2.45367
2324.46	2.17687
2325.88	1.55096
2327.29	1.81506
2328.7	2.20278
2330.12	1.31213
2331.53	1.83607
2332.94	2.06239
2334.35	2.57994
2335.77	2.03164
2337.18	1.31455
2338.59	1.71274
2340	1.90668
2341.41	2.26378
2342.82	2.18121
2344.23	1.58427
2345.64	1.52771
2347.05	2.0499
2348.46	2.35526
2349.87	1.9152
2351.28	1.67023
2352.69	1.72016
2354.1	1.17767
2355.51	0.626024
2356.91	1.25366
2358.32	0.599834
2359.73	0.163192
2361.14	-1.09627
2362.54	-0.770938
2363.95	-0.719293
2365.36	-0.187223
2366.76	-0.0576274
2368.17	-0.80565
2369.58	-0.303511
2370.98	-0.834607
2372.39	-0.901161
2373.79	-1.14976
2375.2	-0.573433
2376.6	-0.980823
2378	-1.0096
2379.41	-0.123692
2380.81	-0.000289567
2382.22	-0.48387
2383.62	-1.512
2385.02	-1.46974
2386.43	-1.30307
2387.83	-1.72893
2389.23	-1.60134
2390.63	-1.88843
2392.03	-0.630627
2393.44	-1.20779
2394.84	-1.13303
2396.24	-0.55447
2397.64	-1.47263
2399.04	-1.42696
2400.44	-1.623
2401.84	0.131514
2403.24	0.643087
2404.64	1.00959
2406.04	1.58959
2407.44	2.50514
2408.84	4.25264
2410.23	4.83224
2411.63	5.0557
2413.03	5.79486
2414.43	6.6711
2415.83	6.87331
2417.22	6.90125
2418.62	7.4499
2420.02	7.37472
2421.41	7.32416
2422.81	7.04573
2424.21	6.78225
2425.6	7.24284
2427	7.75866
2428.39	7.92373
2429.79	7.96625
2431.18	8.02543
2432.58	8.59844
2433.97	8.08122
2435.36	8.4385
2436.76	8.48788
2438.15	9.0171
2439.54	8.72577
2440.94	8.60303
2442.33	8.61056
2443.72	8.76004
2445.12	8.6892
2446.51	8.2152
2447.9	8.75709
2449.29	7.88242
2450.68	6.903
2452.07	6.10351
2453.46	6.36656
2454.85	7.44979
2456.24	6.99233
2457.64	7.60525
2459.02	6.84183
2460.41	6.84268
2461.8	6.81526
2463.19	6.7658
2464.58	7.10202
2465.97	7.13526
2467.36	6.60046
2468.75	7.23587
2470.13	7.68403
2471.52	8.17651
2472.91	8.16647
2474.3	8.64638
2475.68	9.4685
2477.07	8.90126
2478.45	9.3431
2479.84	8.89144
2481.23	8.25266
2482.61	7.96303
2484	7.47719
2485.38	7.16239
2486.77	7.05578
2488.15	7.14272
2489.54	6.50185
2490.92	6.38892
2492.3	6.43471
2493.69	6.86592
2495.07	6.77164
2496.45	6.2196
2497.84	5.43627
2499.22	5.58613
2500.6	5.13439
2501.98	5.62704
2503.36	5.35898
2504.75	4.92183
2506.13	3.87553
2507.51	4.08586
2508.89	4.12334
2510.27	5.07308
2511.65	4.82881
2513.03	5.0825
2514.41	4.95688
2515.79	5.56159
2517.17	5.86771
2518.55	5.63518
2519.93	6.26484
2521.3	6.26437
2522.68	6.84606
2524.06	7.20462
2525.44	6.49093
2526.82	7.17309
2528.19	7.12796
2529.57	8.20366
2530.95	8.68839
2532.32	9.32933
2533.7	9.51039
2535.08	8.86058
2536.45	8.90729
2537.83	8.99731
2539.2	9.61423
2540.58	9.96706
2541.95	10.379
2543.33	10.5165
2544.7	10.1889
2546.08	10.6546
2547.45	11.3893
2548.82	11.832
2550.2	12.0274
2551.57	11.3528
2552.94	10.814
2554.32	11.413
2555.69	11.0777
2557.06	10.795
2558.43	11.1327
2559.8	12.0003
2561.18	12.1363
2562.55	11.3184
2563.92	10.2379
2565.29	10.3566
2566.66	10.3421
2568.03	10.5159
2569.4	9.93608
2570.77	10.102
2572.14	9.45039
2573.51	9.42542
2574.88	9.5422
2576.25	10.4852
2577.61	9.85313
2578.98	9.49462
2580.35	8.71484
2581.72	8.53449
2583.09	8.33539
2584.45	7.83632
2585.82	7.99443
2587.19	7.85143
2588.55	8.16151
2589.92	7.39998
2591.29	8.31965
2592.65	7.80224
2594.02	8.20717
2595.38	9.79666
2596.75	10.4199
2598.11	10.4392
2599.48	10.2407
2600.84	10.2793
2602.21	10.4131
2603.57	10.7236
2604.93	11.1622
2606.3	10.6484
2607.66	11.7562
2609.02	11.9187
2610.39	12.0355
2611.75	11.7246
2613.11	12.362
2614.47	12.7972
2615.83	12.1514
2617.19	12.1064
2618.56	11.7923
2619.92	10.984
2621.28	11.6873
2622.64	12.0384
2624	12.0765
2625.36	11.6433
2626.72	12.0742
2628.08	11.7189
2629.44	10.2567
2630.8	9.00434
2632.15	8.69969
2633.51	8.90226
2634.87	8.46908
2636.23	7.66546
2637.59	7.6688
2638.94	7.6684
2640.3	7.55568
2641.66	7.29686
2643.02	6.55707
2644.37	5.81723
2645.73	5.29246
2647.09	5.45836
2648.44	5.2491
2649.8	5.09728
2651.15	5.29577
2652.51	5.23329
2653.86	5.54004
2655.22	5.70687
2656.57	5.42837
2657.93	4.51148
2659.28	5.37819
2660.63	6.41766
2661.99	7.627
2663.34	8.67003
2664.69	9.22185
2666.05	9.75181
2667.4	10.063
2668.75	11.4546
2670.1	12.1587
2671.45	12.3121
2672.81	12.4193
2674.16	12.3087
2675.51	13.635
2676.86	12.9721
2678.21	13.5211
2679.56	13.6122
2680.91	14.1076
2682.26	14.1546
2683.61	14.3635
2684.96	14.8051
2686.31	15.3141
2687.66	14.4775
2689	14.5258
2690.35	14.8672
2691.7	16.0394
2693.05	15.9771
2694.4	15.6365
2695.74	15.7755
2697.09	15.3719
2698.44	15.9827
2699.79	16.2406
2701.13	16.8147
2702.48	16.8598
2703.83	17.4697
2705.17	18.3107
2706.52	18.3272
2707.86	18.599
2709.21	18.6789
2710.55	19.1961
2711.9	19.8585
2713.24	20.3293
2714.58	20.7125
2715.93	20.7879
2717.27	20.7152
2718.62	21.1931
2719.96	20.8804
2721.3	21.3573
2722.65	21.76
2723.99	21.7807
2725.33	23.0731
2726.67	23.9097
2728.01	24.3921
2729.35	23.8341
2730.7	24.3402
2732.04	25.0449
2733.38	24.8207
2734.72	24.0792
2736.06	24.3711
2737.4	24.0164
2738.74	23.741
2740.08	23.0287
2741.42	21.7201
2742.76	20.1641
2744.1	19.4715
2745.43	19.3025
2746.77	18.3166
2748.11	17.8809
2749.45	17.951
2750.79	17.3908
2752.12	16.6695
2753.46	15.8386
2754.8	14.676
2756.14	14.5395
2757.47	14.4908
2758.81	13.6932
2760.14	11.7914
2761.48	10.1693
2762.81	8.91356
2764.15	8.58477
2765.49	8.25808
2766.82	7.30141
2768.16	7.21467
2769.49	6.81901
2770.82	5.91726
2772.16	5.39449
2773.49	5.12104
2774.82	4.76196
2776.16	5.0976
2777.49	4.13628
2778.82	3.91677
2780.16	3.81436
2781.49	3.3373
2782.82	3.27318
2784.15	2.75912
2785.48	2.58931
2786.82	2.73685
2788.15	3.51576
2789.48	4.33107
2790.81	4.33724
2792.14	4.31074
2793.47	3.75247
2794.8	4.07422
2796.13	4.03903
2797.46	4.71698
2798.79	4.80461
2800.12	4.82548
2801.44	4.42515
2802.77	4.34318
2804.1	5.49489
2805.43	5.63213
2806.76	4.76658
2808.08	4.40074
2809.41	3.74038
2810.74	5.53451
2812.07	5.84849
2813.39	6.67343
2814.72	7.69885
2816.05	8.19618
2817.37	9.07183
2818.7	9.97178
2820.02	11.415
2821.35	12.9231
2822.67	14.8372
2824	17.1554
2825.32	19.5562
2826.65	21.5066
2827.97	24.6387
2829.3	27.5295
2830.62	31.2399
2831.94	34.913
2833.26	38.4651
2834.59	42.1752
2835.91	45.9673
2837.23	50.4274
2838.56	55.6424
2839.88	60.7971
2841.2	66.9797
2842.52	73.9271
2843.84	80.4482
2845.16	88.8146
2846.48	95.6333
2847.8	103.031
2849.12	112.194
2850.45	120.532
2851.77	129.896
2853.08	139.932
2854.4	148.524
2855.72	158.117
2857.04	167.121
2858.36	176.483
2859.68	185.753
2861	194.748
2862.32	204.402
2863.63	214.044
2864.95	223.306
2866.27	232.593
2867.59	241.025
2868.9	249.772
2870.22	258.264
2871.54	265.734
2872.85	271.955
2874.17	279.592
2875.48	286.463
2876.8	295.126
2878.11	301.137
2879.43	308.802
2880.74	315.028
2882.06	321.699
2883.37	328.238
2884.69	334.363
2886	340.359
2887.31	346.256
2888.63	352.254
2889.94	358.27
2891.25	364.432
2892.57	369.491
2893.88	375.335
2895.19	381.379
2896.5	387.278
2897.82	393.57
2899.13	398.767
2900.44	405.243
2901.75	412.065
2903.06	419.628
2904.37	426.027
2905.68	434.188
2906.99	443.631
2908.3	451.841
2909.61	459.75
2910.92	467.561
2912.23	475.923
2913.54	484.847
2914.85	492.681
2916.16	499.195
2917.46	506.134
2918.77	512.408
2920.08	517.58
2921.39	523.878
2922.7	527.708
2924	530.969
2925.31	533.495
2926.62	536.198
2927.92	538.854
2929.23	539.238
2930.54	539.726
2931.84	538.628
2933.15	536.426
2934.45	533.244
2935.76	529.325
2937.06	525.317
2938.37	519.713
2939.67	515.308
2940.98	508.683
2942.28	502.656
2943.58	495.01
2944.89	488.808
2946.19	481.037
2947.49	472.823
2948.8	463.666
2950.1	455.124
2951.4	446.425
2952.7	438.318
2954.01	429.336
2955.31	420.332
2956.61	411.594
2957.91	402.104
2959.21	394.332
2960.51	386.066
2961.81	377.299
2963.11	368.722
2964.41	360.82
2965.71	353.107
2967.01	344.802
2968.31	336.996
2969.61	328.881
2970.91	321.355
2972.21	313.55
2973.51	305.317
2974.81	296.864
2976.1	288.442
2977.4	279.722
2978.7	270.345
2980	261.119
2981.29	252.803
2982.59	243.731
2983.89	234.618
2985.18	224.58
2986.48	215.28
2987.78	205.135
2989.07	195.986
2990.37	186.652
2991.66	177.914
2992.96	168.807
2994.25	158.704
2995.55	149.692
2996.84	139.712
2998.14	129.792
2999.43	120.502
3000.73	111.593
3002.02	103.76
3003.31	95.3072
3004.61	87.3377
3005.9	78.6367
3007.19	71.7558
3008.48	64.746
3009.77	58.1592
3011.07	51.9835
3012.36	45.2516
3013.65	40.2416
3014.94	35.4783
3016.23	31.4353
3017.52	27.3943
3018.81	23.2297
3020.1	19.6883
3021.4	16.1352
3022.68	13.4642
3023.97	11.4108
3025.26	8.90961
3026.55	6.69635
3027.84	4.35884
3029.13	3.14981
3030.42	1.50083
3031.71	0.423444
3033	-0.434513
3034.28	-0.360072
3035.57	-0.495357
3036.86	0.69111
3038.15	2.1791
3039.43	2.45226
3040.72	3.47934
3042.01	5.24452
3043.29	6.71917
3044.58	8.63176
3045.87	10.1211
3047.15	10.7355
3048.44	12.4812
3049.72	13.2799
3051.01	15.5561
3052.29	16.7757
3053.58	17.727
3054.86	18.8053
3056.15	19.2182
3057.43	20.1104
3058.71	20.0317
3060	21.0704
3061.28	20.6046
3062.56	20.3394
3063.84	20.3445
3065.13	20.0556
3066.41	19.8159
3067.69	18.9251
3068.97	18.0104
3070.26	17.8302
3071.54	17.2388
3072.82	16.6295
3074.1	15.8714
3075.38	14.5873
3076.66	12.9853
3077.94	12.0438
3079.22	9.97131
3080.5	8.65986
3081.78	6.98343
3083.06	5.12643
3084.34	3.53728
3085.62	2.37783
3086.9	2.45023
3088.18	1.29499
3089.45	0.244932
3090.73	-0.542095
3092.01	-1.31966
3093.29	-0.843652
3094.56	-1.19998
3095.84	-0.590671
3097.12	-0.0764387
3098.4	0.803756
3099.67	1.16094
3100.95	2.32293
3102.22	3.33796
3103.5	3.64082
3104.78	5.17314
3106.05	6.73798
3107.33	8.05679
3108.6	10.0924
3109.88	11
3111.15	12.6952
3112.43	14.0906
3113.7	15.4938
3114.97	17.2873
3116.25	18.6832
3117.52	20.3177
3118.79	22.3021
3120.07	23.9131
3121.34	25.924
3122.61	27.4463
3123.88	29.7378
3125.16	30.4664
3126.43	32.3006
3127.7	34.1876
3128.97	35.9499
3130.24	38.1584
3131.51	40.13
3132.79	41.7918
3134.06	44.4788
3135.33	45.4644
3136.6	47.4296
3137.87	49.02
3139.14	50.6082
3140.41	52.6349
3141.67	54.5221
3142.94	56.1486
3144.21	57.7862
3145.48	59.1144
3146.75	60.0842
3148.02	60.5399
3149.29	60.9685
