#Acq. time (s)=	45
#Accumulations=	2
#Range (cm-¹)=	200...3150
#Windows=	2
#Auto scanning=	Off
#Autofocus=	Off
#Macrospot=	Off
#AutoExposure=	Off
#Spike filter=	Multiple accum.
#Delay time (s)=	0
#Binning=	1
#Readout mode=	Signal
#DeNoise=	Off
#ICS correction=	On
#Dark correction=	Off
#Inst. Process=	Off
#Detector Gain=	Best Dynamic Range
#Detector ADC=	20 kHz       
#Detector temperature (°C)=	-70.08
#Instrument=	LabRAM HR Evol
#Detector=	Synapse
#Objective=	x100
#Grating=	600 gr/mm
#ND Filter=	100%
#Laser (nm)=	532 
#Hole=	100.021
#Range=	Auto
#Laser Pol.=	No
#Raman. Pol.=	No
#Laser Pol. (°)=	-0.0007625
#Raman Pol. (°)=	89.9995
#Collection=	Microscope
#StageXY=	Marzhauser
#StageZ=	Marzhauser
#X (µm)=	-5916.5
#Y (µm)=	2865.3
#Z (µm)=	-223.5
#Full time(mm:ss)=	3:18
#Project=	
#Sample=	
#Site=	
#Title=	Thy_20_09_37_2x_45s_532 nm_x100_100%_600 gr_mm
#Remark=	
#Date=	29.06.2022 13:15
#Acquired=	29.06.2022 13:15:32
#Base:Fit=	10.08.2022 09:52:02
#Base:Fit=	10.08.2022 09:52:12
#Base:Sub=	10.08.2022 09:54:21
#Filter:Polynom=	16.08.2022 10:24:04
#AxisType[0]=Intens
#AxisUnit[0]=Cnt
#AxisType[1]=Spectr
#AxisUnit[1]=1/cm
200.523	21.7287
202.339	23.1984
204.154	22.4334
205.967	22.1965
207.781	21.0236
209.596	20.0782
211.409	19.3377
213.222	18.3623
215.034	16.5647
216.848	15.8245
218.659	14.9194
220.47	13.9946
222.281	12.5374
224.091	11.5515
225.903	11.8089
227.713	10.9446
229.522	9.56447
231.331	8.97131
233.14	7.9476
234.948	7.08775
236.756	6.22374
238.566	5.13341
240.373	5.68138
242.18	4.84977
243.986	4.22287
245.792	3.27326
247.598	2.46356
249.403	1.9422
251.208	1.51534
253.013	1.57565
254.818	0.878888
256.624	0.103248
258.427	0.685789
260.231	0.547216
262.034	0.71738
263.836	0.70764
265.638	1.3903
267.44	1.99152
269.242	2.1963
271.043	2.9122
272.844	3.32203
274.645	3.34935
276.445	4.91597
278.245	6.21319
280.044	7.77223
281.843	8.14844
283.642	8.61416
285.44	8.86522
287.238	10.0756
289.036	10.9453
290.833	11.47
292.63	11.0316
294.425	11.2863
296.221	11.4106
298.017	11.6753
299.813	12.3296
301.608	12.8915
303.403	12.9782
305.198	13.8314
306.992	14.4327
308.786	14.4704
310.579	14.3733
312.371	14.8094
314.163	15.3805
315.956	15.9465
317.748	14.468
319.54	14.1133
321.331	14.0243
323.122	13.1934
324.911	12.4777
326.701	11.696
328.491	11.0681
330.281	10.9828
332.071	9.25934
333.857	8.46111
335.646	7.55054
337.434	8.0733
339.222	7.47105
341.008	7.14666
342.795	6.5962
344.582	6.38198
346.369	6.39332
348.153	6.35219
349.939	5.99123
351.724	6.52275
353.51	6.18138
355.292	6.41999
357.077	6.16838
358.861	5.61922
360.643	6.0839
362.426	6.29264
364.21	6.23719
365.99	7.38672
367.773	7.10763
369.555	7.45559
371.335	6.77751
373.116	7.64252
374.897	7.26479
376.676	8.30928
378.456	7.15982
380.236	7.97545
382.014	7.86689
383.793	7.88312
385.57	9.08309
387.349	9.48139
389.127	10.2419
390.903	11.5483
392.681	11.5797
394.456	12.3462
396.233	11.7516
398.007	12.2106
399.784	11.8539
401.56	12.1073
403.333	11.1041
405.108	10.8253
406.881	9.63909
408.656	9.61391
410.428	9.09313
412.202	8.39879
413.973	7.58404
415.746	7.44779
417.517	8.10695
419.29	7.54351
421.06	7.63106
422.831	7.83879
424.601	7.47792
426.37	7.51275
428.141	6.47308
429.909	6.66906
431.679	6.7793
433.447	7.14681
435.216	6.45351
436.983	6.12767
438.75	6.09761
440.519	6.22219
442.285	6.44714
444.052	7.03492
445.818	7.70545
447.583	8.43222
449.349	9.1469
451.114	8.90184
452.878	9.85683
454.643	10.6013
456.407	10.805
458.169	11.3582
459.934	11.8419
461.696	12.4686
463.458	12.8121
465.222	14.1669
466.983	13.7664
468.744	15.6021
470.507	16.5144
472.267	17.0026
474.027	18.5509
475.787	19.1015
477.548	20.5909
479.307	22.6423
481.065	22.957
482.823	23.4819
484.583	23.9056
486.341	24.1596
488.098	23.6419
489.855	23.9694
491.612	23.6553
493.37	23.8955
495.126	23.228
496.881	22.9439
498.636	22.518
500.391	22.3596
502.148	22.78
503.902	23.7169
505.656	24.2453
507.409	23.6728
509.162	23.7234
510.915	23.1781
512.668	22.6943
514.42	22.4335
516.174	22.7827
517.925	23.0783
519.676	23.0094
521.427	22.5135
523.178	22.7007
524.928	22.1293
526.678	21.9184
528.427	21.7022
530.176	21.8893
531.925	22.1244
533.673	21.2858
535.422	21.0633
537.169	20.845
538.917	20.5453
540.664	21.2406
542.411	20.5254
544.157	20.1057
545.903	18.7115
547.649	18.6043
549.395	17.4467
551.14	17.0578
552.884	17.3825
554.629	17.1314
556.373	17.3622
558.117	16.6411
559.86	16.0491
561.603	15.0023
563.346	14.5406
565.089	14.7578
566.831	14.0304
568.573	12.6734
570.314	11.483
572.053	10.7282
573.794	9.31278
575.534	8.44326
577.274	8.35819
579.014	7.62728
580.754	7.39223
582.493	6.84356
584.23	6.59562
585.968	6.6623
587.706	6.96865
589.444	7.72437
591.181	7.83346
592.919	7.56627
594.653	7.06491
596.39	6.75944
598.126	7.52741
599.862	7.53474
601.595	8.07553
603.33	9.37667
605.065	10.2067
606.8	11.8062
608.532	12.3073
610.266	13.5893
611.999	14.5259
613.732	16.0308
615.463	16.8456
617.196	18.1862
618.928	19.0208
620.66	19.0709
622.389	20.0801
624.12	20.6543
625.851	21.137
627.58	21.0204
629.31	20.9914
631.04	21.7295
632.767	21.5798
634.497	22.5344
636.223	22.4756
637.952	23.2894
639.68	23.8234
641.406	23.8286
643.134	23.6467
644.861	23.0432
646.586	24.017
648.312	23.8688
650.037	25.2929
651.762	26.319
653.486	26.4471
655.211	26.0375
656.936	26.3991
658.659	26.6341
660.383	27.0617
662.105	27.2304
663.829	27.4028
665.55	27.7796
667.273	28.3292
668.994	28.3931
670.716	27.7357
672.436	28.2076
674.158	29.2465
675.877	29.5982
677.598	31.098
679.317	32.4874
681.035	32.9613
682.755	34.1682
684.473	35.628
686.192	36.3853
687.909	38.025
689.628	40.078
691.344	40.9403
693.06	41.2756
694.778	41.3408
696.493	42.3747
698.211	43.1994
699.925	43.3243
701.64	43.6905
703.356	44.684
705.07	45.7582
706.783	46.3504
708.498	46.5997
710.211	47.0818
711.924	47.7443
713.638	47.8194
715.35	48.7064
717.061	49.5317
718.774	50.6822
720.485	52.0103
722.196	52.6124
723.906	53.6447
725.618	54.5011
727.328	54.7875
729.037	55.0483
730.746	56.1928
732.456	57.4245
734.165	58.0547
735.873	59.2243
737.58	59.1985
739.289	59.0798
740.997	58.9725
742.703	59.6244
744.41	59.8486
746.116	61.0019
747.823	61.541
749.529	62.3508
751.234	63.5045
752.938	63.7945
754.643	64.7646
756.347	64.9287
758.051	67.148
759.756	68.0405
761.459	68.8615
763.162	70.6822
764.865	70.5143
766.567	70.5604
768.269	71.6675
769.97	72.0734
771.671	72.8417
773.372	73.5715
775.073	74.9964
776.773	75.5218
778.473	76.024
780.174	77.6835
781.874	77.842
783.573	78.3825
785.271	78.1451
786.97	78.3353
788.668	78.5633
790.365	78.8563
792.063	78.9466
793.76	79.2132
795.456	80.0937
797.153	79.9762
798.847	80.4283
800.543	80.6264
802.238	81.1935
803.933	82.2011
805.628	81.9634
807.322	82.0183
809.017	81.9908
810.71	80.95
812.404	80.517
814.097	81.6099
815.79	82.6137
817.483	83.257
819.173	83.5302
820.865	82.7895
822.556	81.9378
824.248	82.4812
825.939	82.3537
827.629	82.6493
829.318	81.9273
831.008	81.6738
832.697	81.3197
834.387	80.6284
836.076	79.8424
837.765	79.2597
839.451	78.3443
841.139	77.4841
842.827	77.0482
844.514	75.624
846.2	74.7911
847.886	73.6178
849.573	72.8356
851.259	71.3769
852.943	70.5391
854.629	69.465
856.314	68.5552
857.997	67.7688
859.682	67.5057
861.366	66.4213
863.05	64.5782
864.732	62.9105
866.415	60.4878
868.098	59.1583
869.779	58.1579
871.461	57.5891
873.141	57.581
874.823	56.3482
876.505	55.164
878.184	53.6064
879.865	51.8374
881.545	51.0893
883.223	51.126
884.903	49.4437
886.581	49.3848
888.26	49.2297
889.937	48.6711
891.616	47.6106
893.294	47.0628
894.97	46.9218
896.648	47.4804
898.323	48.1971
900	48.0373
901.675	47.1694
903.351	46.3999
905.026	46.0677
906.701	46.3477
908.375	46.3047
910.05	45.4874
911.723	44.3279
913.398	43.4992
915.07	44.0339
916.742	44.1526
918.415	44.1569
920.087	44.3359
921.76	44.7961
923.43	44.6454
925.103	45.3885
926.773	44.7756
928.443	44.0502
930.114	43.4817
931.783	42.7891
933.454	42.9815
935.123	42.8962
936.791	43.4725
938.461	42.9081
940.128	42.2487
941.796	42.3229
943.464	42.2962
945.131	41.1984
946.797	40.4044
948.465	39.7671
950.131	39.9821
951.797	40.4291
953.462	40.5318
955.128	39.9472
956.793	38.488
958.457	35.9966
960.121	34.495
961.786	33.3469
963.45	31.778
965.113	31.8033
966.775	30.5709
968.44	29.3671
970.102	29.083
971.763	28.2093
973.425	27.6253
975.086	26.9002
976.748	27.5202
978.409	27.4866
980.069	28.0213
981.729	28.2323
983.388	27.3131
985.048	26.6768
986.708	26.8859
988.367	25.163
990.025	24.3852
991.683	23.1886
993.341	22.5861
994.998	22.569
996.655	23.8153
998.312	23.5834
999.969	23.1549
1001.62	23.0582
1003.28	22.4788
1004.94	23.0004
1006.59	22.2475
1008.25	21.72
1009.9	20.7515
1011.56	20.06
1013.21	20.1591
1014.86	20.0991
1016.52	20.892
1018.17	19.8594
1019.82	18.7696
1021.48	17.7766
1023.13	17.6337
1024.78	17.9685
1026.43	18.361
1028.08	18.2122
1029.73	18.704
1031.38	18.5332
1033.03	18.4309
1034.68	17.282
1036.33	16.0094
1037.98	15.057
1039.63	13.5202
1041.28	13.3934
1042.93	13.3059
1044.57	14.0323
1046.22	14.1982
1047.87	14.883
1049.52	14.5819
1051.16	13.9948
1052.81	14.6486
1054.45	15.1019
1056.1	15.5251
1057.75	16.1594
1059.39	15.6847
1061.04	15.8019
1062.68	15.3307
1064.32	14.3148
1065.97	14.0333
1067.61	12.8593
1069.25	12.6157
1070.9	12.5547
1072.54	13.3764
1074.18	12.7764
1075.82	12.2789
1077.47	12.7585
1079.11	11.9372
1080.75	11.4097
1082.39	11.9689
1084.03	12.0457
1085.67	11.9725
1087.31	11.8322
1088.95	11.5226
1090.59	11.7157
1092.22	11.7173
1093.86	11.9793
1095.5	11.5602
1097.14	11.4562
1098.78	12.4911
1100.41	11.693
1102.05	11.7923
1103.69	11.9035
1105.32	12.0669
1106.96	12.0429
1108.59	12.1168
1110.23	11.9569
1111.86	12.3053
1113.5	12.6098
1115.13	12.456
1116.77	11.4337
1118.4	12.2096
1120.03	12.1686
1121.67	11.1675
1123.3	10.4171
1124.93	9.6613
1126.56	9.9615
1128.19	8.86695
1129.83	8.2996
1131.46	7.97551
1133.09	7.69269
1134.72	7.82543
1136.35	7.10728
1137.98	7.33103
1139.61	7.83934
1141.24	6.74407
1142.86	7.18038
1144.49	6.61325
1146.12	6.0926
1147.75	6.14223
1149.38	5.77435
1151	5.89184
1152.63	5.2481
1154.26	3.25825
1155.88	2.45506
1157.51	3.13921
1159.14	3.89898
1160.76	3.44484
1162.39	4.21849
1164.01	4.29339
1165.63	4.04458
1167.26	3.48547
1168.88	4.17504
1170.51	5.15568
1172.13	4.17513
1173.75	4.67919
1175.38	5.04652
1177	4.71383
1178.62	5.663
1180.24	5.8451
1181.86	5.66752
1183.48	6.30239
1185.1	7.10024
1186.72	7.86744
1188.34	8.95917
1189.96	10.0412
1191.58	10.5394
1193.2	11.5316
1194.82	12.1329
1196.44	12.5403
1198.06	12.8206
1199.68	13.52
1201.29	12.9131
1202.91	13.8043
1204.53	14.9439
1206.14	17.0996
1207.76	18.7556
1209.38	19.6452
1210.99	20.6855
1212.61	21.718
1214.22	22.873
1215.84	24.4753
1217.45	25.9559
1219.07	27.3172
1220.68	27.8148
1222.29	28.4253
1223.91	30.1594
1225.52	31.3736
1227.13	32.5434
1228.74	33.8992
1230.36	34.3418
1231.97	35.3061
1233.58	37.1736
1235.19	36.3854
1236.8	36.7774
1238.41	36.5831
1240.02	37.4201
1241.63	38.2305
1243.24	38.6394
1244.85	40.606
1246.46	42.2282
1248.07	43.3679
1249.67	44.685
1251.28	44.8353
1252.89	45.4335
1254.5	47.4437
1256.1	49.1742
1257.71	50.4781
1259.32	51.9916
1260.92	53.1589
1262.53	54.7098
1264.13	56.113
1265.74	56.599
1267.34	57.9026
1268.95	58.1852
1270.55	58.7518
1272.15	58.9925
1273.76	60.1046
1275.36	60.7866
1276.97	60.4378
1278.57	60.1909
1280.17	60.9163
1281.77	62.1356
1283.37	63.1937
1284.97	63.1665
1286.58	63.1493
1288.18	63.2474
1289.78	63.6093
1291.38	63.235
1292.98	63.6049
1294.58	64.3546
1296.18	64.5142
1297.78	63.7617
1299.37	64.1003
1300.97	64.1572
1302.57	65.2329
1304.17	65.1568
1305.77	65.2064
1307.36	65.3023
1308.96	64.5567
1310.55	65.1702
1312.15	65.533
1313.75	64.6461
1315.34	62.6131
1316.94	63.5264
1318.53	65.3376
1320.13	67.0685
1321.72	66.7833
1323.32	66.3991
1324.91	68.1351
1326.5	67.5397
1328.1	66.8006
1329.69	67.0626
1331.28	67.0476
1332.87	67.9505
1334.47	67.8774
1336.06	67.7748
1337.65	67.676
1339.24	66.4163
1340.83	66.2814
1342.42	66.429
1344.01	65.8202
1345.6	64.4608
1347.19	63.9258
1348.78	61.9537
1350.37	61.0801
1351.96	60.0168
1353.54	59.8239
1355.13	58.9508
1356.72	57.6083
1358.31	57.0746
1359.89	56.1215
1361.48	54.9979
1363.07	53.7878
1364.65	52.7097
1366.24	51.8365
1367.82	51.4426
1369.41	50.9649
1370.99	49.3345
1372.58	48.7222
1374.16	47.8915
1375.75	46.9718
1377.33	46.9654
1378.91	47.6952
1380.5	46.7167
1382.08	45.8302
1383.66	45.5736
1385.25	45.352
1386.83	45.2602
1388.41	45.3746
1389.99	44.9539
1391.57	44.0023
1393.15	43.3042
1394.73	42.2043
1396.31	41.6719
1397.89	40.5666
1399.47	39.7468
1401.05	38.4545
1402.63	38.235
1404.21	38.0451
1405.78	36.8221
1407.36	36.2673
1408.94	36.4124
1410.52	35.9516
1412.1	36.3018
1413.67	36.8165
1415.25	38.2048
1416.82	39.0201
1418.4	39.3965
1419.98	41.1424
1421.55	41.5519
1423.13	42.1884
1424.7	43.6232
1426.28	45.2027
1427.85	47.2416
1429.42	49.7287
1431	51.7583
1432.57	53.6325
1434.14	54.327
1435.71	55.8102
1437.29	57.2708
1438.86	58.7601
1440.43	60.8028
1442	61.9523
1443.57	62.2249
1445.14	63.2511
1446.71	64.1857
1448.28	65.77
1449.85	66.55
1451.42	66.355
1452.99	66.0904
1454.56	67.1482
1456.13	67.5649
1457.7	67.1824
1459.26	65.2893
1460.83	65.124
1462.4	64.4213
1463.97	62.9401
1465.54	61.3394
1467.1	59.3648
1468.67	56.9878
1470.23	54.7705
1471.8	52.14
1473.36	49.3787
1474.93	46.2912
1476.49	43.9293
1478.06	41.8861
1479.62	39.82
1481.19	37.8648
1482.75	35.0978
1484.31	32.8246
1485.88	29.8497
1487.44	28.8492
1489	27.7385
1490.56	26.5549
1492.13	25.418
1493.69	23.9587
1495.25	21.912
1496.81	20.9649
1498.37	20.1169
1499.93	19.2444
1501.49	19.5835
1503.05	19.3071
1504.61	19.7771
1506.17	19.7034
1507.73	19.2323
1509.28	18.7929
1510.84	18.2207
1512.4	18.0514
1513.96	18.0725
1515.52	18.0084
1517.07	18.813
1518.63	19.883
1520.19	20.5927
1521.74	20.9216
1523.3	22.7608
1524.85	23.9762
1526.41	25.6498
1527.96	26.3232
1529.52	26.8512
1531.07	28.4264
1532.63	30.1725
1534.18	30.0922
1535.73	30.2792
1537.29	30.9665
1538.84	31.9336
1540.39	32.2722
1541.94	33.5041
1543.5	34.532
1545.05	35.1937
1546.6	36.0838
1548.15	37.6314
1549.7	39.0055
1551.25	39.7705
1552.8	40.5947
1554.35	42.7209
1555.9	44.1805
1557.45	46.1478
1559	46.5542
1560.55	47.7087
1562.1	49.1001
1563.65	50.0809
1565.19	52.9189
1566.74	54.229
1568.29	55.6386
1569.83	57.4053
1571.38	59.2206
1572.93	60.3698
1574.47	63.1168
1576.02	64.3607
1577.56	65.2571
1579.11	66.4565
1580.66	67.4575
1582.2	69.5061
1583.74	70.7714
1585.29	71.3659
1586.83	71.7995
1588.38	71.7516
1589.92	72.1842
1591.46	72.2626
1593.01	72.4098
1594.55	72.8088
1596.09	72.8918
1597.63	72.5541
1599.17	72.105
1600.71	71.7733
1602.25	71.2507
1603.79	70.5926
1605.34	68.631
1606.88	66.7691
1608.41	65.6854
1609.95	65.1506
1611.49	63.7471
1613.03	64.3336
1614.57	63.2317
1616.11	62.0519
1617.65	61.5384
1619.18	61.1882
1620.72	60.717
1622.26	60.142
1623.79	60.4301
1625.33	60.0707
1626.87	58.459
1628.4	58.5333
1629.94	59.129
1631.48	59.8688
1633.01	59.9569
1634.55	61.127
1636.08	61.6202
1637.61	62.643
1639.15	63.7213
1640.68	64.771
1642.21	66.5424
1643.75	68.0607
1645.28	69.6987
1646.81	70.129
1648.34	70.5534
1649.88	71.7783
1651.41	72.4835
1652.94	71.7969
1654.47	72.7837
1656	73.2996
1657.53	74.1454
1659.06	74.5552
1660.59	73.5717
1662.12	72.0786
1663.65	70.8543
1665.18	69.4189
1666.71	68.6009
1668.24	67.6416
1669.76	66.2365
1671.29	65.0199
1672.82	62.8419
1674.35	61.143
1675.87	59.4174
1677.4	56.8956
1678.93	55.0284
1680.45	52.4999
1681.98	50.3928
1683.5	48.3842
1685.03	46.9855
1686.55	44.4762
1688.08	41.6944
1689.6	39.0798
1691.13	35.4975
1692.65	33.4235
1694.17	31.5137
1695.7	29.3196
1697.22	26.951
1698.74	25.1097
1700.27	23.3875
1701.79	20.3728
1703.31	18.765
1704.83	17.6924
1706.35	16.6551
1707.87	15.7316
1709.39	15.2112
1710.91	14.954
1712.43	13.1533
1713.95	12.4317
1715.47	12.0619
1716.99	10.8965
1718.51	10.5876
1720.03	10.0006
1721.55	9.27145
1723.07	8.66599
1724.58	8.91787
1726.1	8.69507
1727.62	8.18646
1729.13	7.99057
1730.65	7.88563
1732.17	7.49365
1733.68	8.06508
1735.2	7.66467
1736.72	7.45857
1738.23	7.49709
1739.74	6.83046
1741.26	6.69263
1742.77	6.78834
1744.29	5.95289
1745.8	5.38544
1747.32	4.77791
1748.83	4.63003
1750.34	4.97849
1751.85	4.79286
1753.37	4.30533
1754.88	3.8067
1756.39	3.59708
1757.9	3.09932
1759.41	2.4149
1760.92	2.20985
1762.44	1.57022
1763.95	1.27774
1765.46	1.06611
1766.96	1.39424
1768.47	1.89654
1769.98	1.62848
1771.49	1.1773
1773	1.06966
1774.51	0.632327
1776.02	0.225568
1777.53	-0.0854641
1779.03	0.609478
1780.54	0.835741
1782.05	1.16217
1783.55	1.37196
1785.06	1.66149
1786.57	1.1846
1788.07	1.08196
1789.58	2.02026
1791.08	2.3123
1792.59	2.44822
1794.09	2.93942
1795.6	2.49235
1797.1	2.39901
1798.61	2.53984
1800.11	2.62383
1801.61	2.34784
1803.12	2.78613
1804.62	2.59384
1806.12	2.84457
1807.62	3.6773
1809.12	3.65489
1810.63	2.82193
1812.13	2.92247
1813.63	2.56
1815.13	2.50965
1816.63	2.79769
1818.13	2.68523
1819.63	2.46808
1821.13	2.69782
1822.63	2.16529
1824.13	2.24439
1825.63	2.18154
1827.13	2.31884
1828.62	2.39826
1830.12	1.88995
1831.62	2.07399
1833.12	2.08081
1834.61	2.01756
1836.11	2.13089
1837.61	2.57309
1839.1	2.91686
1840.6	2.95869
1842.09	3.00397
1843.59	2.6552
1845.09	2.04714
1846.58	2.06298
1848.08	2.27211
1849.57	2.55416
1851.06	3.1649
1852.56	3.76874
1854.05	4.20425
1855.54	4.12505
1857.04	3.46378
1858.53	3.63534
1860.02	3.87871
1861.51	3.57979
1863.01	3.50545
1864.5	3.35535
1865.99	2.68693
1867.48	2.67983
1868.97	2.30237
1870.46	2.29052
1871.95	2.01119
1873.44	2.43843
1874.93	2.81961
1876.42	2.89699
1877.91	2.90994
1879.4	2.03383
1880.89	1.81298
1882.37	1.6223
1882.46	1.77685
1883.95	1.59181
1885.45	1.82032
1886.94	1.92595
1888.43	1.49161
1889.93	0.842051
1891.42	0.274397
1892.91	0.0991424
1894.41	-0.204953
1895.9	-0.250835
1897.39	0.182035
1898.88	0.346746
1900.37	0.269527
1901.86	0.45315
1903.36	0.526367
1904.85	0.613078
1906.34	0.801402
1907.83	1.33978
1909.32	1.01243
1910.81	1.27499
1912.29	1.68431
1913.78	1.68965
1915.27	1.57522
1916.76	2.02678
1918.25	2.81717
1919.74	3.13992
1921.23	3.05293
1922.71	3.32407
1924.2	3.32637
1925.69	3.26209
1927.17	3.83229
1928.66	3.40659
1930.15	3.36999
1931.63	4.11204
1933.12	4.55414
1934.6	4.46063
1936.09	4.48274
1937.57	4.7756
1939.06	4.74517
1940.54	4.69894
1942.02	4.71209
1943.51	5.16927
1944.99	4.96875
1946.47	5.40261
1947.96	5.69771
1949.44	5.53054
1950.92	5.15094
1952.4	4.82897
1953.88	4.92715
1955.37	5.06734
1956.85	5.24196
1958.33	4.85707
1959.81	4.93917
1961.29	5.05923
1962.77	4.24598
1964.25	4.22101
1965.73	4.48211
1967.21	4.2186
1968.69	4.11553
1970.16	4.28438
1971.64	4.45462
1973.12	4.51964
1974.6	4.92663
1976.08	5.19476
1977.55	4.10073
1979.03	3.79993
1980.51	4.12607
1981.98	4.09542
1983.46	4.05683
1984.94	4.36679
1986.41	3.65995
1987.89	3.09728
1989.36	2.80375
1990.84	2.79212
1992.31	2.74176
1993.79	2.25054
1995.26	1.90777
1996.73	1.99255
1998.21	1.51751
1999.68	1.56558
2001.15	1.29987
2002.63	0.13079
2004.1	0.288298
2005.57	0.37662
2007.04	0.25776
2008.51	0.053177
2009.99	0.185979
2011.46	-0.0867214
2012.93	-0.00883634
2014.4	0.133177
2015.87	0.916555
2017.34	1.37282
2018.81	1.61036
2020.28	2.12018
2021.75	2.40148
2023.21	2.48497
2024.68	2.1538
2026.15	2.82541
2027.62	3.15647
2029.09	3.29094
2030.56	3.98676
2032.02	4.02949
2033.49	4.31001
2034.96	4.87993
2036.42	5.03728
2037.89	5.92288
2039.36	5.91928
2040.82	6.20676
2042.29	7.07085
2043.75	7.52337
2045.22	7.73893
2046.68	8.53305
2048.14	8.43608
2049.61	7.83898
2051.07	7.88377
2052.54	9.09995
2054	9.34668
2055.46	9.46557
2056.93	9.06747
2058.39	8.64989
2059.85	8.68873
2061.31	8.16813
2062.77	7.18213
2064.23	7.19397
2065.7	6.97245
2067.16	6.70117
2068.62	6.87177
2070.08	6.55969
2071.54	6.60466
2073	6.70949
2074.46	6.30721
2075.92	6.52766
2077.38	6.83848
2078.83	6.9867
2080.29	7.13173
2081.75	7.07637
2083.21	7.41126
2084.67	7.32197
2086.12	7.59599
2087.58	7.17147
2089.04	7.7508
2090.49	8.21462
2091.95	8.32124
2093.41	7.75274
2094.86	7.284
2096.32	7.73846
2097.77	8.2817
2099.23	9.13289
2100.68	9.11638
2102.14	9.49501
2103.59	10.8058
2105.05	10.3371
2106.5	11.0538
2107.95	11.365
2109.41	11.4426
2110.86	11.8188
2112.31	11.7824
2113.76	12.8802
2115.21	13.8444
2116.67	14.3154
2118.12	14.9057
2119.57	15.9998
2121.02	15.8308
2122.47	16.5336
2123.92	17.5312
2125.37	17.609
2126.82	18.2629
2128.27	18.6024
2129.72	18.6542
2131.17	19.2054
2132.62	19.2386
2134.07	19.7723
2135.51	20.7426
2136.96	22.452
2138.41	23.4318
2139.86	24.5986
2141.31	25.4236
2142.75	26.2554
2144.2	27.5183
2145.65	27.6312
2147.09	27.844
2148.54	27.8082
2149.98	28.6131
2151.43	29.3844
2152.87	29.0938
2154.32	29.2537
2155.76	30.1386
2157.21	30.165
2158.65	31.1042
2160.1	31.4248
2161.54	32.2348
2162.98	32.3072
2164.43	31.9959
2165.87	31.9894
2167.31	32.7699
2168.75	33.3372
2170.2	33.4809
2171.64	33.1549
2173.08	33.6145
2174.52	33.4306
2175.96	33.5197
2177.4	32.8054
2178.84	33.2948
2180.28	32.5258
2181.72	32.8589
2183.16	33.3988
2184.6	33.9431
2186.04	34.1171
2187.48	33.7962
2188.92	32.8061
2190.36	32.3567
2191.79	32.074
2193.23	31.5496
2194.67	31.5605
2196.11	31.3774
2197.54	30.4143
2198.98	30.263
2200.42	29.4386
2201.85	28.9111
2203.29	28.6926
2204.72	28.5333
2206.16	28.0703
2207.59	27.0726
2209.03	27.2372
2210.46	27.0566
2211.9	25.9774
2213.33	25.141
2214.77	24.1701
2216.2	22.3626
2217.63	20.4418
2219.07	20.0623
2220.5	19.7377
2221.93	19.1742
2223.36	17.9605
2224.8	17.2616
2226.23	17.1659
2227.66	16.3798
2229.09	15.7208
2230.52	15.0015
2231.95	13.3601
2233.39	12.3947
2234.81	11.793
2236.25	10.9842
2237.67	10.7147
2239.1	10.3099
2240.53	9.92403
2241.96	10.0206
2243.39	9.74987
2244.82	9.70657
2246.25	8.9437
2247.68	8.40933
2249.1	8.29905
2250.53	8.20556
2251.96	7.85205
2253.38	8.68417
2254.81	8.71372
2256.24	8.5193
2257.66	8.26355
2259.09	7.47617
2260.51	7.43778
2261.94	7.73103
2263.36	7.63342
2264.79	7.45435
2266.21	7.11879
2267.64	7.16207
2269.06	7.38156
2270.49	7.96126
2271.91	8.54949
2273.33	9.48571
2274.76	9.7961
2276.18	9.79645
2277.6	10.3275
2279.02	10.5961
2280.44	11.056
2281.87	10.9923
2283.29	10.9115
2284.71	11.6513
2286.13	11.6704
2287.55	12.5029
2288.97	13.2291
2290.39	13.511
2291.81	12.9528
2293.23	12.5125
2294.65	12.1112
2296.07	12.6023
2297.49	12.9022
2298.91	12.6645
2300.33	12.9377
2301.74	12.6629
2303.16	12.5452
2304.58	13.0458
2306	13.1739
2307.41	12.8585
2308.83	12.6457
2310.25	12.2642
2311.66	12.0473
2313.08	12.1519
2314.5	11.3459
2315.91	11.2084
2317.33	10.5769
2318.74	10.5381
2320.16	10.394
2321.57	9.97147
2322.98	9.70689
2324.4	9.74881
2325.81	9.25921
2327.23	8.80134
2328.64	8.42787
2330.05	7.71645
2331.46	7.7783
2332.88	7.37448
2334.29	7.19233
2335.7	6.94538
2337.11	7.01245
2338.52	7.42382
2339.94	7.51714
2341.35	7.46374
2342.76	7.28977
2344.17	7.64859
2345.58	6.70046
2346.99	6.9479
2348.4	7.06123
2349.81	6.49889
2351.22	6.52913
2352.62	6.65947
2354.03	6.66232
2355.44	6.31054
2356.85	5.94948
2358.26	5.91766
2359.67	5.06272
2361.07	4.61709
2362.48	4.20165
2363.89	3.86521
2365.29	3.48888
2366.7	3.76981
2368.11	3.49977
2369.51	2.1902
2370.92	1.64776
2372.32	1.21387
2373.73	0.491503
2375.13	0.371036
2376.54	-0.297024
2377.94	-0.637384
2379.35	-0.671967
2380.75	-0.744036
2382.15	-0.853064
2383.56	-0.528074
2384.96	-1.29259
2386.36	-0.667126
2387.76	-0.616173
2389.17	-0.588179
2390.57	-0.18521
2391.97	0.879293
2393.37	1.41117
2394.77	1.53931
2396.17	2.39148
2397.58	2.77993
2398.98	2.95539
2400.38	2.96035
2401.78	3.05328
2403.18	3.17671
2404.58	4.05954
2405.97	3.99025
2407.37	4.5839
2408.77	5.21777
2410.17	5.73617
2411.57	5.64456
2412.97	5.49991
2414.37	5.92865
2415.76	5.90197
2417.16	7.04659
2418.56	6.95278
2419.95	6.49583
2421.35	6.67024
2422.75	6.91322
2424.14	6.8535
2425.54	7.04476
2426.93	7.25774
2428.33	7.13733
2429.72	7.05309
2431.12	6.78446
2432.51	5.9724
2433.91	5.68443
2435.3	5.68433
2436.7	5.72778
2438.09	5.26994
2439.48	5.38705
2440.88	5.84808
2442.27	5.69286
2443.66	5.45075
2445.05	6.0141
2446.44	6.22787
2447.84	6.72306
2449.23	6.80053
2450.62	7.22561
2452.01	7.40634
2453.4	7.57661
2454.79	8.0714
2456.18	8.87603
2457.57	8.4201
2458.96	8.53046
2460.35	9.55293
2461.74	9.39458
2463.13	8.97144
2464.52	9.17137
2465.91	9.46232
2467.29	9.00535
2468.68	9.08522
2470.07	9.05251
2471.46	8.42301
2472.85	8.37506
2474.23	8.81295
2475.62	7.88471
2477.01	7.6572
2478.39	7.25676
2479.78	6.37057
2481.16	5.70637
2482.55	5.58656
2483.93	5.58703
2485.32	5.42479
2486.7	5.37954
2488.09	4.19069
2489.47	4.0028
2490.86	4.52489
2492.24	4.62423
2493.62	4.13461
2495.01	4.02182
2496.39	3.63831
2497.77	2.83944
2499.15	2.24826
2500.54	1.83934
2501.92	1.72163
2503.3	1.86694
2504.68	1.54229
2506.06	1.33357
2507.45	0.710322
2508.83	0.981238
2510.21	0.325862
2511.59	0.96623
2512.97	1.0834
2514.35	1.80119
2515.73	1.71079
2517.11	1.39218
2518.48	1.22929
2519.86	1.81372
2521.24	1.34613
2522.62	1.14225
2524	1.45926
2525.38	1.23213
2526.75	1.01251
2528.13	1.19456
2529.51	1.39185
2530.89	1.52645
2532.26	1.67337
2533.64	2.35411
2535.02	1.95364
2536.39	1.8817
2537.77	2.33813
2539.14	2.67688
2540.52	2.26321
2541.89	2.38339
2543.27	2.71491
2544.64	2.58095
2546.01	2.85067
2547.39	2.48838
2548.76	2.3618
2550.14	2.76357
2551.51	3.4385
2552.88	3.67919
2554.25	3.46781
2555.63	4.17566
2557	4.01876
2558.37	4.42883
2559.74	4.45712
2561.11	4.11599
2562.49	4.15653
2563.86	4.67605
2565.23	4.6423
2566.6	4.42302
2567.97	4.51738
2569.34	4.6649
2570.71	4.74409
2572.08	4.20814
2573.45	3.85048
2574.82	4.16355
2576.18	4.16
2577.55	4.08256
2578.92	4.60937
2580.29	5.44769
2581.66	5.08002
2583.02	5.13279
2584.39	4.23578
2585.76	3.93459
2587.13	3.99841
2588.49	3.92842
2589.86	2.89825
2591.22	2.91788
2592.59	3.5561
2593.96	3.33208
2595.32	3.23648
2596.69	3.22637
2598.05	3.53826
2599.42	3.48913
2600.78	3.35478
2602.14	3.65338
2603.51	4.00385
2604.87	4.41607
2606.23	4.39917
2607.6	4.10205
2608.96	2.80768
2610.32	2.74711
2611.69	3.19315
2613.05	2.90286
2614.41	1.99129
2615.77	1.92684
2617.13	2.51771
2618.49	2.88933
2619.86	3.09678
2621.22	2.86227
2622.58	2.79015
2623.94	3.40348
2625.3	3.40172
2626.66	3.4988
2628.02	4.24952
2629.37	4.93026
2630.73	5.37209
2632.09	5.67582
2633.45	5.432
2634.81	5.49839
2636.17	5.77452
2637.53	5.83014
2638.88	5.66706
2640.24	5.66102
2641.6	5.517
2642.96	5.57997
2644.31	5.35702
2645.67	5.11756
2647.02	5.39108
2648.38	4.75078
2649.74	4.92331
2651.09	4.9045
2652.45	4.41984
2653.8	4.93239
2655.16	5.14571
2656.51	5.22643
2657.86	5.50038
2659.22	5.94089
2660.57	6.43757
2661.93	6.09544
2663.28	6.12654
2664.63	5.63058
2665.98	5.55794
2667.34	5.41909
2668.69	5.76753
2670.04	6.06659
2671.39	6.03091
2672.75	5.33969
2674.09	4.97504
2675.45	4.98752
2676.8	5.29454
2678.15	5.98873
2679.5	6.72618
2680.85	6.70733
2682.2	6.75303
2683.55	7.87445
2684.9	8.24646
2686.25	8.27103
2687.6	8.58041
2688.94	8.54564
2690.29	9.15675
2691.64	9.47541
2692.99	9.61116
2694.34	10.1326
2695.68	10.5805
2697.03	10.7602
2698.38	10.4434
2699.73	10.6198
2701.07	10.3555
2702.42	10.4781
2703.76	10.6577
2705.11	10.4145
2706.45	10.5048
2707.8	10.577
2709.15	11.0613
2710.49	11.3026
2711.83	11.6854
2713.18	11.3413
2714.52	11.3478
2715.87	11.9567
2717.21	12.2616
2718.55	11.6975
2719.9	11.8565
2721.24	12.5825
2722.58	12.6571
2723.93	12.3355
2725.27	12.4839
2726.61	12.4545
2727.95	12.4256
2729.29	12.1945
2730.63	11.8838
2731.98	11.6363
2733.32	11.6756
2734.66	11.2847
2736	11.2807
2737.34	10.8021
2738.68	10.3223
2740.02	10.3503
2741.36	10.3195
2742.7	10.1059
2744.03	10.292
2745.37	9.6124
2746.71	9.38705
2748.05	8.48206
2749.39	8.38596
2750.72	7.99064
2752.06	7.13914
2753.4	6.93536
2754.74	6.79764
2756.07	6.27005
2757.41	6.00337
2758.75	5.50788
2760.08	5.54905
2761.42	5.83338
2762.76	5.64726
2764.09	5.59527
2765.42	4.80091
2766.76	4.80136
2768.09	4.56438
2769.43	4.87949
2770.76	4.29794
2772.1	3.95615
2773.43	3.58294
2774.76	3.19182
2776.1	3.07269
2777.43	2.74012
2778.76	2.35403
2780.1	1.6708
2781.43	2.0614
2782.76	2.33074
2784.09	2.13505
2785.42	3.00743
2786.75	3.15359
2788.09	3.21709
2789.42	2.71689
2790.75	1.92619
2792.08	2.14427
2793.41	2.13818
2794.74	1.34217
2796.07	1.33776
2797.4	1.04485
2798.73	0.900948
2800.06	0.643871
2801.39	0.589766
2802.71	0.686934
2804.04	0.564398
2805.37	0.662511
2806.7	0.433577
2808.03	-0.0307099
2809.35	-0.357461
2810.68	-0.00590043
2812.01	-0.0284904
2813.33	0.527247
2814.66	0.755361
2815.99	1.4842
2817.31	1.69877
2818.64	2.08364
2819.96	2.6969
2821.29	2.6361
2822.61	3.17738
2823.94	3.88516
2825.26	4.9948
2826.59	6.08296
2827.91	6.60445
2829.23	7.62965
2830.56	8.49948
2831.88	9.57444
2833.21	11.1035
2834.53	12.0382
2835.85	12.6307
2837.17	13.1228
2838.5	14.7482
2839.82	16.3078
2841.14	17.9867
2842.46	19.7878
2843.78	21.5719
2845.1	23.4684
2846.42	25.7323
2847.74	28.0285
2849.06	29.7501
2850.38	32.1734
2851.71	34.4613
2853.03	36.2726
2854.34	38.8103
2855.66	40.8349
2856.98	43.243
2858.3	46.2632
2859.62	48.0992
2860.94	50.5327
2862.26	53.9271
2863.57	56.5477
2864.89	58.8057
2866.21	60.6014
2867.53	62.7939
2868.84	64.7307
2870.16	66.2469
2871.48	68.2282
2872.79	69.5232
2874.11	70.8613
2875.42	72.1118
2876.74	73.85
2878.05	75.1298
2879.37	76.8543
2880.68	78.3656
2882	79.7024
2883.31	80.7308
2884.63	81.6629
2885.94	82.9917
2887.26	84.6785
2888.57	86.4412
2889.88	88.1473
2891.19	89.7142
2892.51	91.6209
2893.82	93.1671
2895.13	95.3089
2896.44	97.1856
2897.76	99.3804
2899.07	101.545
2900.38	103.388
2901.69	104.914
2903	107.492
2904.31	110.555
2905.62	112.899
2906.93	115.644
2908.24	118.871
2909.55	121.992
2910.86	125.535
2912.17	128.604
2913.48	132.174
2914.79	135.873
2916.1	139.309
2917.41	142.299
2918.71	145.466
2920.02	148.273
2921.33	150.559
2922.64	152.676
2923.94	154.258
2925.25	156.008
2926.56	157.905
2927.86	158.829
2929.17	159.1
2930.48	159.043
2931.78	158.818
2933.09	158.487
2934.39	157.581
2935.7	156.587
2937	155.643
2938.31	153.481
2939.61	151.679
2940.92	150.415
2942.22	148.682
2943.53	147.001
2944.83	144.57
2946.13	142.311
2947.43	139.622
2948.74	136.72
2950.04	134.315
2951.34	131.963
2952.64	129.587
2953.95	126.816
2955.25	123.94
2956.55	121.66
2957.85	119.443
2959.15	116.405
2960.45	114.006
2961.75	111.987
2963.05	109.642
2964.35	107.05
2965.65	104.11
2966.95	100.996
2968.25	99.0446
2969.55	97.1561
2970.85	94.481
2972.15	92.9139
2973.45	90.8924
2974.75	88.3188
2976.05	86.6004
2977.34	84.5141
2978.64	82.5
2979.94	79.968
2981.24	76.8666
2982.53	74.1405
2983.83	71.1582
2985.13	68.4613
2986.42	65.2734
2987.72	61.8759
2989.01	58.8844
2990.31	55.764
2991.61	52.6302
2992.9	49.8847
2994.19	47.4638
2995.49	44.1369
2996.78	41.3867
2998.08	38.4355
2999.37	35.6083
3000.67	33.0628
3001.96	29.8529
3003.25	27.6131
3004.55	25.4054
3005.84	23.3249
3007.13	21.0274
3008.42	19.1938
3009.72	17.282
3011.01	15.7904
3012.3	14.3365
3013.59	12.8805
3014.88	11.7702
3016.17	10.4463
3017.46	9.04027
3018.76	8.12992
3020.05	7.50523
3021.34	7.28819
3022.63	6.04922
3023.92	5.07607
3025.21	4.83138
3026.49	4.58629
3027.78	4.37989
3029.07	4.00645
3030.36	3.87739
3031.65	3.291
3032.94	3.85313
3034.23	4.12608
3035.51	4.02103
3036.8	4.34835
3038.09	4.83627
3039.38	5.23663
3040.66	5.95267
3041.95	6.3315
3043.23	6.87835
3044.52	7.16281
3045.81	7.26734
3047.09	7.8885
3048.38	8.66768
3049.66	9.57391
3050.95	9.96625
3052.23	11.1382
3053.52	11.8914
3054.8	12.3349
3056.09	12.7319
3057.37	13.2146
3058.65	13.6183
3059.94	13.7963
3061.22	13.9577
3062.5	13.859
3063.79	13.1644
3065.07	13.2011
3066.35	13.0093
3067.63	13.2831
3068.92	12.6652
3070.2	12.5127
3071.48	11.9387
3072.76	11.0585
3074.04	10.7778
3075.32	9.90618
3076.6	9.47821
3077.88	8.62237
3079.16	7.88242
3080.44	7.47442
3081.72	6.64944
3083	6.4253
3084.28	5.88085
3085.56	4.92474
3086.84	4.18368
3088.12	3.89439
3089.4	3.46571
3090.67	3.14212
3091.95	2.54622
3093.23	2.16182
3094.51	1.75535
3095.78	0.781336
3097.06	1.07751
3098.34	1.05951
3099.61	0.771861
3100.89	0.993646
3102.17	1.566
3103.44	1.87568
3104.72	1.66843
3105.99	2.05465
3107.27	1.90908
3108.54	2.3853
3109.82	2.89926
3111.09	3.71238
3112.37	4.20241
3113.64	4.60274
3114.92	5.26813
3116.19	6.54355
3117.46	6.79491
3118.74	7.38421
3120.01	7.89821
3121.28	9.13564
3122.55	9.72112
3123.83	10.0576
3125.1	9.98829
3126.37	10.5844
3127.64	10.6861
3128.91	12.0585
3130.19	12.7428
3131.46	13.2844
3132.73	13.9215
3134	14.6155
3135.27	15.2363
3136.54	16.3263
3137.81	17.6358
3139.08	18.4217
3140.35	19.5537
3141.62	20.5867
3142.89	21.5065
3144.16	22.2836
3145.42	23.0084
3146.69	23.3715
3147.96	23.5898
3149.23	24.1646
