#Acq. time (s)=	45
#Accumulations=	2
#Range (cm-¹)=	200...3150
#Windows=	2
#Auto scanning=	Off
#Autofocus=	Off
#Macrospot=	Off
#AutoExposure=	Off
#Spike filter=	Multiple accum.
#Delay time (s)=	0
#Binning=	1
#Readout mode=	Signal
#DeNoise=	Off
#ICS correction=	On
#Dark correction=	Off
#Inst. Process=	Off
#Detector Gain=	Best Dynamic Range
#Detector ADC=	20 kHz       
#Detector temperature (°C)=	-69.85
#Instrument=	LabRAM HR Evol
#Detector=	Synapse
#Objective=	x100
#Grating=	600 gr/mm
#ND Filter=	100%
#Laser (nm)=	532 
#Hole=	100.021
#Range=	Auto
#Laser Pol.=	No
#Raman. Pol.=	No
#Laser Pol. (°)=	-0.0007625
#Raman Pol. (°)=	89.9995
#Collection=	Microscope
#StageXY=	Marzhauser
#StageZ=	Marzhauser
#X (µm)=	-5922.1
#Y (µm)=	2879.5
#Z (µm)=	-223.5
#Full time(mm:ss)=	3:19
#Project=	
#Sample=	
#Site=	
#Title=	Thy_20_09_31_2x_45s_532 nm_x100_100%_600 gr_mm
#Remark=	
#Date=	29.06.2022 12:48
#Acquired=	29.06.2022 12:48:53
#Base:Fit=	10.08.2022 09:52:02
#Base:Fit=	10.08.2022 09:52:12
#Base:Sub=	10.08.2022 09:54:21
#Filter:Polynom=	16.08.2022 10:24:04
#AxisType[0]=Intens
#AxisUnit[0]=Cnt
#AxisType[1]=Spectr
#AxisUnit[1]=1/cm
200.523	5.79558
202.339	5.83241
204.154	6.26141
205.967	7.17603
207.781	7.52674
209.596	7.80562
211.409	8.11595
213.222	8.38843
215.034	7.82374
216.848	8.3514
218.659	7.8842
220.47	8.17643
222.281	7.67444
224.091	7.04898
225.903	7.39186
227.713	7.74544
229.522	6.73473
231.331	7.21271
233.14	6.97348
234.948	7.20443
236.756	7.10274
238.566	7.43053
240.373	6.82623
242.18	6.82959
243.986	5.67435
245.792	6.43058
247.598	5.62004
249.403	4.81292
251.208	4.20564
253.013	3.78364
254.818	4.35279
256.624	4.34461
258.427	5.21007
260.231	4.16302
262.034	4.94147
263.836	4.37684
265.638	4.67555
267.44	4.66944
269.242	3.8442
271.043	2.91489
272.844	2.62533
274.645	2.77242
276.445	1.93372
278.245	2.42971
280.044	1.70005
281.843	0.129504
283.642	-0.658526
285.44	-0.526801
287.238	1.23801
289.036	1.68505
290.833	1.78498
292.63	2.26244
294.425	2.58939
296.221	2.87375
298.017	3.71013
299.813	3.91113
301.608	5.0511
303.403	5.66319
305.198	6.96224
306.992	8.22723
308.786	8.15485
310.579	9.40968
312.371	10.0406
314.163	11.4269
315.956	12.9937
317.748	13.5069
319.54	12.8598
321.331	14.1304
323.122	14.3907
324.911	15.9721
326.701	16.3344
328.491	16.7414
330.281	16.0973
332.071	17.1658
333.857	17.3975
335.646	18.9333
337.434	18.3432
339.222	19.2314
341.008	19.8851
342.795	19.826
344.582	19.8715
346.369	18.4393
348.153	18.3643
349.939	17.4942
351.724	17.2169
353.51	15.5409
355.292	15.1594
357.077	13.5378
358.861	12.322
360.643	12.4729
362.426	12.2877
364.21	11.5072
365.99	10.4077
367.773	9.5912
369.555	8.21893
371.335	8.48604
373.116	9.47082
374.897	9.4261
376.676	8.81036
378.456	7.62528
380.236	8.02497
382.014	8.55468
383.793	9.52396
385.57	10.0941
387.349	9.72828
389.127	10.3588
390.903	9.98695
392.681	9.4451
394.456	10.0085
396.233	8.70997
398.007	9.75036
399.784	10.3618
401.56	9.86516
403.333	9.14899
405.108	8.4894
406.881	7.5939
408.656	7.32148
410.428	8.69583
412.202	9.36784
413.973	10.6951
415.746	11.1444
417.517	11.7568
419.29	11.5486
421.06	12.4884
422.831	12.181
424.601	11.9462
426.37	12.3887
428.141	12.788
429.909	12.8061
431.679	11.7155
433.447	10.7779
435.216	9.84211
436.983	9.67192
438.75	8.63612
440.519	7.882
442.285	7.66196
444.052	8.39135
445.818	8.28082
447.583	8.64093
449.349	9.52482
451.114	8.92545
452.878	9.00615
454.643	8.7279
456.407	8.77027
458.169	8.91102
459.934	8.62185
461.696	8.51315
463.458	9.08895
465.222	9.37184
466.983	10.4064
468.744	11.1598
470.507	11.6951
472.267	11.2934
474.027	10.3009
475.787	9.92908
477.548	9.95828
479.307	9.2339
481.065	9.93135
482.823	10.8325
484.583	10.144
486.341	10.8079
488.098	9.81322
489.855	8.74977
491.612	9.61717
493.37	10.7925
495.126	12.3852
496.881	13.9312
498.636	14.8528
500.391	15.4142
502.148	16.0862
503.902	16.0662
505.656	15.7255
507.409	15.5079
509.162	16.2257
510.915	16.1778
512.668	15.897
514.42	15.8496
516.174	15.55
517.925	14.3965
519.676	14.0223
521.427	13.9208
523.178	14.4833
524.928	15.1611
526.678	14.9852
528.427	15.0587
530.176	15.7925
531.925	16.5025
533.673	15.5677
535.422	15.7939
537.169	15.2696
538.917	14.542
540.664	13.6851
542.411	13.3339
544.157	12.5608
545.903	11.6092
547.649	11.506
549.395	12.3078
551.14	12.0179
552.884	11.0449
554.629	10.2637
556.373	9.77149
558.117	9.57973
559.86	8.69639
561.603	8.76118
563.346	8.1522
565.089	7.17219
566.831	6.79256
568.573	6.8774
570.314	6.14409
572.053	5.32411
573.794	5.4297
575.534	5.17865
577.274	4.85578
579.014	5.9185
580.754	6.55751
582.493	6.25502
584.23	5.77055
585.968	5.1564
587.706	5.35039
589.444	5.37585
591.181	4.83166
592.919	4.10542
594.653	3.11979
596.39	2.97072
598.126	1.50692
599.862	1.81796
601.595	2.30875
603.33	2.72013
605.065	3.11168
606.8	3.2526
608.532	2.44604
610.266	2.17639
611.999	1.96838
613.732	1.57334
615.463	2.67731
617.196	3.04163
618.928	3.17929
620.66	2.18957
622.389	2.65742
624.12	2.21809
625.851	2.6515
627.58	2.90841
629.31	3.19727
631.04	3.28403
632.767	3.66268
634.497	5.02086
636.223	5.47568
637.952	4.95514
639.68	5.22609
641.406	5.76048
643.134	5.38463
644.861	5.98709
646.586	6.57174
648.312	7.10505
650.037	6.27543
651.762	8.02445
653.486	9.27638
655.211	10.056
656.936	10.5851
658.659	11.9784
660.383	12.6624
662.105	12.6909
663.829	13.4329
665.55	14.8537
667.273	15.9764
668.994	15.4815
670.716	16.4317
672.436	17.76
674.158	18.28
675.877	19.054
677.598	19.9835
679.317	21.0245
681.035	22.4363
682.755	24.1148
684.473	24.2935
686.192	25.6034
687.909	26.0111
689.628	25.9452
691.344	26.4412
693.06	25.9081
694.778	27.6989
696.493	29.0715
698.211	30.0205
699.925	30.9778
701.64	31.6908
703.356	32.0177
705.07	31.9722
706.783	32.5599
708.498	33.945
710.211	34.5491
711.924	34.6489
713.638	35.7522
715.35	36.3165
717.061	37.7926
718.774	37.8083
720.485	38.2816
722.196	37.2169
723.906	36.8596
725.618	37.5457
727.328	37.9323
729.037	37.5517
730.746	39.0468
732.456	39.2178
734.165	39.6603
735.873	40.3392
737.58	41.6306
739.289	42.0964
740.997	41.5235
742.703	42.2844
744.41	42.5826
746.116	42.9413
747.823	43.7133
749.529	45.6649
751.234	46.7586
752.938	47.301
754.643	47.6235
756.347	48.697
758.051	50.2187
759.756	50.8948
761.459	52.7847
763.162	53.4112
764.865	54.3632
766.567	55.5365
768.269	56.0979
769.97	56.4438
771.671	57.2542
773.372	58.9318
775.073	59.2148
776.773	59.8348
778.473	60.3697
780.174	62.017
781.874	62.425
783.573	63.3447
785.271	64.5385
786.97	65.5476
788.668	66.9214
790.365	68.1152
792.063	69.5495
793.76	70.8311
795.456	73.0767
797.153	73.8463
798.847	75.8682
800.543	76.8467
802.238	76.8892
803.933	76.042
805.628	75.8326
807.322	75.7676
809.017	76.9316
810.71	76.983
812.404	76.5796
814.097	76.066
815.79	75.8995
817.483	75.9346
819.173	75.5799
820.865	75.1041
822.556	74.6059
824.248	74.0111
825.939	71.7125
827.629	72.0894
829.318	71.3524
831.008	70.2306
832.697	68.8053
834.387	67.7294
836.076	66.0409
837.765	65.1018
839.451	64.5792
841.139	63.285
842.827	62.7169
844.514	61.8255
846.2	60.3014
847.886	58.0309
849.573	57.0894
851.259	55.4547
852.943	54.1358
854.629	51.9593
856.314	50.0277
857.997	49.0909
859.682	47.1094
861.366	46.361
863.05	46.4747
864.732	45.6986
866.415	45.2772
868.098	45.4023
869.779	44.2626
871.461	43.9663
873.141	43.0512
874.823	42.7707
876.505	42.7582
878.184	43.3341
879.865	43.0293
881.545	42.1641
883.223	41.9431
884.903	41.4313
886.581	40.2227
888.26	39.6469
889.937	40.0332
891.616	39.9264
893.294	39.6322
894.97	40.1703
896.648	41.146
898.323	41.1983
900	41.8354
901.675	42.9268
903.351	42.1337
905.026	42.4663
906.701	42.4979
908.375	42.1975
910.05	42.156
911.723	42.7597
913.398	41.699
915.07	40.7177
916.742	41.6228
918.415	41.3511
920.087	41.7328
921.76	41.057
923.43	40.3945
925.103	40.0003
926.773	39.6569
928.443	39.043
930.114	37.7516
931.783	36.8127
933.454	35.6491
935.123	34.117
936.791	33.3214
938.461	32.0089
940.128	31.9694
941.796	30.8902
943.464	29.5506
945.131	28.8856
946.797	28.1805
948.465	26.5868
950.131	27.0445
951.797	26.2769
953.462	25.5518
955.128	24.6498
956.793	23.483
958.457	22.961
960.121	22.5068
961.786	21.6065
963.45	22.1809
965.113	23.099
966.775	23.6764
968.44	24.5058
970.102	25.0892
971.763	25.6449
973.425	27.0701
975.086	27.4471
976.748	28.2641
978.409	29.8035
980.069	29.705
981.729	29.202
983.388	29.7924
985.048	30.0619
986.708	29.5844
988.367	29.1947
990.025	28.8869
991.683	29.061
993.341	29.154
994.998	28.9755
996.655	28.4319
998.312	28.741
999.969	29.2096
1001.62	28.5807
1003.28	28.7019
1004.94	27.3471
1006.59	27.1906
1008.25	26.646
1009.9	24.7689
1011.56	23.5941
1013.21	22.4065
1014.86	21.7332
1016.52	20.8804
1018.17	20.3431
1019.82	19.7312
1021.48	18.2732
1023.13	17.4363
1024.78	15.8915
1026.43	16.319
1028.08	16.0155
1029.73	16.0834
1031.38	15.6549
1033.03	15.5266
1034.68	15.6073
1036.33	14.3527
1037.98	13.1358
1039.63	12.2975
1041.28	11.8094
1042.93	12.1065
1044.57	12.6601
1046.22	13.2766
1047.87	12.7909
1049.52	12.6724
1051.16	12.629
1052.81	12.5859
1054.45	11.7622
1056.1	11.4179
1057.75	10.7544
1059.39	10.2299
1061.04	10.0048
1062.68	9.72266
1064.32	10.1493
1065.97	10.0023
1067.61	9.79908
1069.25	9.98326
1070.9	10.0762
1072.54	10.3556
1074.18	10.6967
1075.82	10.7305
1077.47	9.85947
1079.11	9.06022
1080.75	9.394
1082.39	9.62217
1084.03	9.69113
1085.67	9.49763
1087.31	9.51855
1088.95	9.38463
1090.59	9.71506
1092.22	9.78994
1093.86	10.0492
1095.5	10.0773
1097.14	9.97925
1098.78	9.71092
1100.41	9.4491
1102.05	9.64248
1103.69	9.07313
1105.32	9.83824
1106.96	9.94453
1108.59	11.0697
1110.23	11.3736
1111.86	11.4796
1113.5	11.2955
1115.13	11.302
1116.77	10.8203
1118.4	8.861
1120.03	8.68963
1121.67	7.94092
1123.3	7.15537
1124.93	7.44701
1126.56	7.63783
1128.19	7.79773
1129.83	8.06509
1131.46	8.49805
1133.09	8.08559
1134.72	7.77767
1136.35	6.84926
1137.98	7.58644
1139.61	7.46089
1141.24	7.6378
1142.86	8.36015
1144.49	8.7355
1146.12	8.79333
1147.75	8.48023
1149.38	8.84827
1151	7.74361
1152.63	7.66932
1154.26	6.57684
1155.88	6.07334
1157.51	5.84714
1159.14	5.65644
1160.76	6.29174
1162.39	6.00254
1164.01	6.00255
1165.63	5.22515
1167.26	4.90341
1168.88	5.13075
1170.51	4.6069
1172.13	5.03491
1173.75	4.97675
1175.38	4.43176
1177	4.00042
1178.62	3.78594
1180.24	3.8323
1181.86	4.04786
1183.48	4.12086
1185.1	4.27579
1186.72	5.49651
1188.34	5.88434
1189.96	7.14124
1191.58	7.50311
1193.2	6.99705
1194.82	7.1371
1196.44	7.58429
1198.06	7.50823
1199.68	8.29967
1201.29	10.0429
1202.91	10.9128
1204.53	11.8908
1206.14	14.0929
1207.76	15.7324
1209.38	16.829
1210.99	18.057
1212.61	19.4886
1214.22	20.8996
1215.84	22.761
1217.45	24.8732
1219.07	27.5506
1220.68	28.4441
1222.29	31.1987
1223.91	33.1549
1225.52	33.1624
1227.13	34.7329
1228.74	35.9753
1230.36	36.9652
1231.97	37.2549
1233.58	39.2439
1235.19	38.8598
1236.8	39.5791
1238.41	40.2864
1240.02	40.975
1241.63	41.5558
1243.24	41.3422
1244.85	41.647
1246.46	42.0104
1248.07	42.504
1249.67	43.2087
1251.28	42.9422
1252.89	43.4767
1254.5	43.5168
1256.1	43.5726
1257.71	43.1902
1259.32	43.4882
1260.92	44.1634
1262.53	44.2272
1264.13	44.5021
1265.74	45.1509
1267.34	45.5556
1268.95	45.9783
1270.55	46.7611
1272.15	46.5178
1273.76	46.8683
1275.36	47.3332
1276.97	48.2433
1278.57	48.9743
1280.17	49.8481
1281.77	50.6159
1283.37	51.2586
1284.97	52.1216
1286.58	52.856
1288.18	53.4229
1289.78	53.7275
1291.38	54.6477
1292.98	56.5181
1294.58	57.3865
1296.18	57.8982
1297.78	59.394
1299.37	59.353
1300.97	59.9209
1302.57	60.9194
1304.17	60.9102
1305.77	61.4029
1307.36	63.6114
1308.96	64.1949
1310.55	65.4409
1312.15	65.7941
1313.75	66.6725
1315.34	66.5503
1316.94	67.5055
1318.53	67.8338
1320.13	69.455
1321.72	70.5629
1323.32	70.9618
1324.91	71.0755
1326.5	71.5257
1328.1	71.2743
1329.69	71.2421
1331.28	71.071
1332.87	71.0471
1334.47	70.054
1336.06	69.9078
1337.65	68.9133
1339.24	68.3593
1340.83	67.5262
1342.42	66.2451
1344.01	65.2311
1345.6	64.3872
1347.19	63.2412
1348.78	61.7034
1350.37	61.3895
1351.96	60.587
1353.54	59.5876
1355.13	58.2506
1356.72	57.1413
1358.31	55.9383
1359.89	54.3424
1361.48	52.6078
1363.07	50.9499
1364.65	48.3635
1366.24	46.2749
1367.82	45.303
1369.41	43.7906
1370.99	42.5467
1372.58	41.5409
1374.16	39.4783
1375.75	38.0965
1377.33	38.1693
1378.91	37.001
1380.5	37.5633
1382.08	37.2166
1383.66	37.3533
1385.25	38.1692
1386.83	38.9638
1388.41	38.5314
1389.99	39.1873
1391.57	38.4755
1393.15	38.4239
1394.73	38.0413
1396.31	38.5651
1397.89	38.1203
1399.47	39.3977
1401.05	38.849
1402.63	37.9076
1404.21	37.4035
1405.78	37.6412
1407.36	38.0384
1408.94	39.3453
1410.52	40.2096
1412.1	40.9675
1413.67	42.58
1415.25	43.892
1416.82	44.6032
1418.4	46.5088
1419.98	48.9462
1421.55	50.7928
1423.13	53.168
1424.7	56.0771
1426.28	58.8586
1427.85	61.7065
1429.42	64.7799
1431	66.669
1432.57	68.2543
1434.14	70.2924
1435.71	72.4044
1437.29	74.7397
1438.86	76.158
1440.43	76.8066
1442	77.649
1443.57	78.356
1445.14	79.0864
1446.71	80.2709
1448.28	80.1306
1449.85	80.3695
1451.42	79.9006
1452.99	79.3408
1454.56	79.0996
1456.13	78.3036
1457.7	75.7815
1459.26	75.3776
1460.83	73.4978
1462.4	71.936
1463.97	69.6564
1465.54	67.0218
1467.1	63.0694
1468.67	60.1229
1470.23	56.816
1471.8	54.3655
1473.36	51.9864
1474.93	47.9042
1476.49	44.4089
1478.06	41.4147
1479.62	37.6203
1481.19	35.4583
1482.75	33.4279
1484.31	30.9745
1485.88	29.07
1487.44	27.7076
1489	25.3113
1490.56	23.5923
1492.13	22.2749
1493.69	20.5917
1495.25	19.8734
1496.81	19.4136
1498.37	18.717
1499.93	18.0075
1501.49	18.1752
1503.05	18.1528
1504.61	18.0867
1506.17	17.6178
1507.73	16.6069
1509.28	16.5632
1510.84	16.762
1512.4	17.7864
1513.96	18.177
1515.52	17.8424
1517.07	17.0027
1518.63	17.9584
1520.19	19.1473
1521.74	19.6244
1523.3	20.6995
1524.85	21.8525
1526.41	22.7143
1527.96	23.219
1529.52	23.5415
1531.07	24.3893
1532.63	25.2617
1534.18	25.4824
1535.73	27.0433
1537.29	29.3546
1538.84	29.9754
1540.39	30.426
1541.94	31.5936
1543.5	33.1906
1545.05	34.6103
1546.6	37.1555
1548.15	39.7054
1549.7	41.1024
1551.25	41.8118
1552.8	42.1596
1554.35	44.4979
1555.9	45.2423
1557.45	47.0401
1559	48.0699
1560.55	48.7493
1562.1	50.0006
1563.65	52.2528
1565.19	53.466
1566.74	53.6853
1568.29	54.436
1569.83	55.9085
1571.38	56.9042
1572.93	58.713
1574.47	59.7521
1576.02	61.265
1577.56	62.395
1579.11	62.657
1580.66	63.144
1582.2	63.9904
1583.74	65.1359
1585.29	66.2663
1586.83	67.1056
1588.38	68.5203
1589.92	69.5003
1591.46	69.758
1593.01	70.441
1594.55	70.5022
1596.09	72.0244
1597.63	72.0298
1599.17	72.0315
1600.71	73.2848
1602.25	72.4326
1603.79	71.6345
1605.34	69.9691
1606.88	69.0829
1608.41	68.1377
1609.95	67.3744
1611.49	66.9992
1613.03	66.7775
1614.57	66.1607
1616.11	65.4012
1617.65	64.7396
1619.18	65.1319
1620.72	64.872
1622.26	64.8083
1623.79	64.8758
1625.33	64.6014
1626.87	63.9032
1628.4	63.9332
1629.94	64.5365
1631.48	64.9742
1633.01	64.8351
1634.55	65.4071
1636.08	64.8631
1637.61	65.0521
1639.15	66.4219
1640.68	66.6747
1642.21	66.5671
1643.75	66.7002
1645.28	67.6242
1646.81	69.5461
1648.34	70.0564
1649.88	71.6432
1651.41	72.1468
1652.94	72.4058
1654.47	72.3245
1656	71.824
1657.53	73.496
1659.06	73.9448
1660.59	73.5535
1662.12	73.2538
1663.65	72.2707
1665.18	72.1088
1666.71	71.38
1668.24	69.5957
1669.76	68.5644
1671.29	67.3741
1672.82	66.3923
1674.35	63.7258
1675.87	61.888
1677.4	59.7278
1678.93	55.8401
1680.45	53.7586
1681.98	50.579
1683.5	48.3687
1685.03	45.0723
1686.55	42.8761
1688.08	39.817
1689.6	37.4409
1691.13	34.9827
1692.65	32.0933
1694.17	29.8419
1695.7	27.7929
1697.22	25.3344
1698.74	23.3041
1700.27	21.6146
1701.79	19.4871
1703.31	18.3133
1704.83	17.3124
1706.35	16.1193
1707.87	14.4825
1709.39	12.2059
1710.91	10.5772
1712.43	9.12506
1713.95	8.47492
1715.47	8.75444
1716.99	7.89453
1718.51	7.59451
1720.03	7.33457
1721.55	7.68589
1723.07	8.06978
1724.58	7.31512
1726.1	7.84183
1727.62	7.51263
1729.13	7.00735
1730.65	7.30283
1732.17	7.816
1733.68	8.80558
1735.2	8.59322
1736.72	8.12309
1738.23	8.12284
1739.74	8.06506
1741.26	8.27518
1742.77	8.46309
1744.29	8.2062
1745.8	8.78121
1747.32	8.66946
1748.83	8.39479
1750.34	8.48254
1751.85	9.20185
1753.37	8.56478
1754.88	7.87261
1756.39	7.7938
1757.9	6.48501
1759.41	5.91402
1760.92	5.40897
1762.44	5.26349
1763.95	4.35292
1765.46	4.46134
1766.96	3.68448
1768.47	2.98515
1769.98	2.49374
1771.49	2.05469
1773	1.88791
1774.51	2.10768
1776.02	1.9808
1777.53	2.31749
1779.03	2.64423
1780.54	2.7404
1782.05	2.50739
1783.55	2.64462
1785.06	2.01876
1786.57	2.43367
1788.07	2.86664
1789.58	3.21366
1791.08	3.93521
1792.59	3.7378
1794.09	3.97895
1795.6	4.60524
1797.1	5.0734
1798.61	5.41251
1800.11	5.23322
1801.61	5.28568
1803.12	5.31553
1804.62	5.26854
1806.12	5.04036
1807.62	4.91527
1809.12	4.7366
1810.63	4.72902
1812.13	3.90635
1813.63	4.27803
1815.13	4.6463
1816.63	4.18381
1818.13	4.31154
1819.63	3.95614
1821.13	3.67731
1822.63	3.69481
1824.13	3.69582
1825.63	3.75195
1827.13	3.20394
1828.62	2.69814
1830.12	2.25021
1831.62	1.79654
1833.12	1.63163
1834.61	1.8275
1836.11	2.15791
1837.61	2.16538
1839.1	1.66403
1840.6	2.13928
1842.09	2.0828
1843.59	1.93376
1845.09	2.22584
1846.58	2.74342
1848.08	3.02386
1849.57	2.75192
1851.06	2.90887
1852.56	3.36912
1854.05	3.4159
1855.54	4.10435
1857.04	3.97833
1858.53	3.60053
1860.02	3.74956
1861.51	3.80999
1863.01	4.07466
1864.5	3.57125
1865.99	3.30178
1867.48	2.58029
1868.97	3.12696
1870.46	3.34579
1871.95	2.93212
1873.44	2.11294
1874.93	1.51802
1876.42	1.04467
1877.91	1.29547
1879.4	0.439076
1880.89	0.568143
1882.37	1.18779
1882.46	1.42322
1883.95	1.54118
1885.45	1.98627
1886.94	2.00973
1888.43	1.465
1889.93	1.09017
1891.42	2.19057
1892.91	1.85519
1894.41	2.61675
1895.9	3.59938
1897.39	3.88021
1898.88	3.94187
1900.37	3.93461
1901.86	4.31464
1903.36	4.73111
1904.85	5.14889
1906.34	5.82116
1907.83	5.95731
1909.32	6.20813
1910.81	6.20058
1912.29	6.24057
1913.78	7.77217
1915.27	7.1453
1916.76	7.42757
1918.25	8.06242
1919.74	8.52161
1921.23	8.31463
1922.71	8.51866
1924.2	8.90699
1925.69	8.48642
1927.17	8.77046
1928.66	8.68044
1930.15	8.0932
1931.63	7.41925
1933.12	7.11045
1934.6	5.95943
1936.09	5.88481
1937.57	5.03247
1939.06	4.39493
1940.54	4.48865
1942.02	4.42699
1943.51	3.12878
1944.99	2.15172
1946.47	2.13944
1947.96	2.60233
1949.44	3.18021
1950.92	3.18862
1952.4	2.92748
1953.88	3.18485
1955.37	3.00497
1956.85	2.60814
1958.33	2.44113
1959.81	2.45292
1961.29	1.9369
1962.77	2.30322
1964.25	2.12666
1965.73	2.6926
1967.21	1.88385
1968.69	2.17847
1970.16	1.81202
1971.64	1.02184
1973.12	0.535278
1974.6	0.819556
1976.08	0.243343
1977.55	0.402741
1979.03	0.356191
1980.51	1.01915
1981.98	1.14359
1983.46	1.15055
1984.94	1.03986
1986.41	1.89279
1987.89	1.75157
1989.36	0.938684
1990.84	1.19256
1992.31	1.4768
1993.79	1.67205
1995.26	1.79649
1996.73	2.54649
1998.21	2.51885
1999.68	3.03208
2001.15	3.44345
2002.63	3.99075
2004.1	3.90093
2005.57	4.50113
2007.04	4.67685
2008.51	4.93735
2009.99	5.11695
2011.46	5.22551
2012.93	5.07042
2014.4	5.5405
2015.87	5.4318
2017.34	5.61698
2018.81	6.5053
2020.28	6.61701
2021.75	6.92333
2023.21	7.30579
2024.68	7.1463
2026.15	7.32562
2027.62	7.23401
2029.09	7.72613
2030.56	8.38305
2032.02	9.7596
2033.49	10.1529
2034.96	10.6924
2036.42	11.0167
2037.89	10.8113
2039.36	12.2973
2040.82	12.4848
2042.29	12.3153
2043.75	12.4083
2045.22	12.5212
2046.68	12.4301
2048.14	12.8811
2049.61	12.96
2051.07	13.3142
2052.54	12.8001
2054	12.819
2055.46	11.7353
2056.93	11.4489
2058.39	11.0812
2059.85	11.5386
2061.31	11.4697
2062.77	11.9887
2064.23	12.0334
2065.7	12.7239
2067.16	13.2465
2068.62	13.7864
2070.08	13.8338
2071.54	13.9668
2073	15.1445
2074.46	15.6375
2075.92	15.9713
2077.38	15.3698
2078.83	14.9226
2080.29	14.1344
2081.75	13.9167
2083.21	14.0503
2084.67	14.1013
2086.12	13.8901
2087.58	14.1438
2089.04	13.7274
2090.49	13.986
2091.95	13.5318
2093.41	13.9028
2094.86	14.1087
2096.32	14.9197
2097.77	14.9987
2099.23	14.7297
2100.68	15.3675
2102.14	16.5861
2103.59	17.6492
2105.05	18.1574
2106.5	18.1063
2107.95	18.5252
2109.41	18.7998
2110.86	18.6092
2112.31	18.6172
2113.76	17.3367
2115.21	16.8458
2116.67	17.3103
2118.12	17.1302
2119.57	17.0586
2121.02	17.3931
2122.47	17.3324
2123.92	17.3619
2125.37	17.5168
2126.82	18.2119
2128.27	18.8553
2129.72	19.4673
2131.17	19.9883
2132.62	21.3382
2134.07	21.5339
2135.51	22.4787
2136.96	22.9274
2138.41	24.1028
2139.86	24.5311
2141.31	25.0597
2142.75	26.1371
2144.2	26.8953
2145.65	27.9349
2147.09	28.0887
2148.54	29.0149
2149.98	29.5239
2151.43	29.962
2152.87	30.9224
2154.32	31.2999
2155.76	31.5041
2157.21	31.8357
2158.65	32.3043
2160.1	32.3936
2161.54	32.6895
2162.98	33.4989
2164.43	33.8332
2165.87	35.5249
2167.31	35.6893
2168.75	36.8681
2170.2	36.7752
2171.64	37.1722
2173.08	37.7772
2174.52	38.0527
2175.96	38.1316
2177.4	37.6476
2178.84	37.5824
2180.28	36.6595
2181.72	36.1378
2183.16	35.8167
2184.6	34.9332
2186.04	34.935
2187.48	35.1375
2188.92	35.3839
2190.36	34.4556
2191.79	34.2908
2193.23	34.4875
2194.67	34.277
2196.11	34.3296
2197.54	33.6478
2198.98	33.349
2200.42	32.749
2201.85	31.8025
2203.29	31.637
2204.72	30.9977
2206.16	29.9894
2207.59	29.7435
2209.03	28.2254
2210.46	27.6171
2211.9	26.4362
2213.33	25.6057
2214.77	24.7084
2216.2	23.3159
2217.63	23.3558
2219.07	22.6648
2220.5	21.6639
2221.93	19.9263
2223.36	19.0591
2224.8	18.5491
2226.23	17.1934
2227.66	16.386
2229.09	16.358
2230.52	15.9806
2231.95	15.8733
2233.39	15.6413
2234.81	15.5937
2236.25	15.3992
2237.67	14.8554
2239.1	13.9605
2240.53	14.0173
2241.96	13.5006
2243.39	13.3558
2244.82	13.0082
2246.25	12.5504
2247.68	12.3158
2249.1	11.9157
2250.53	12.3547
2251.96	12.3783
2253.38	12.4123
2254.81	12.5699
2256.24	12.3845
2257.66	12.6223
2259.09	12.6874
2260.51	12.5822
2261.94	11.9774
2263.36	12.2615
2264.79	12.4205
2266.21	12.2381
2267.64	12.2132
2269.06	12.04
2270.49	12.0875
2271.91	11.7202
2273.33	12.1452
2274.76	12.0776
2276.18	11.1841
2277.6	11.0895
2279.02	10.9817
2280.44	10.6663
2281.87	10.7831
2283.29	10.0758
2284.71	9.64431
2286.13	10.0541
2287.55	10.4591
2288.97	10.948
2290.39	10.0881
2291.81	9.67004
2293.23	9.77724
2294.65	9.99284
2296.07	10.0816
2297.49	10.5071
2298.91	11.3044
2300.33	12.2518
2301.74	12.365
2303.16	12.7083
2304.58	12.3511
2306	12.9276
2307.41	12.6269
2308.83	12.8582
2310.25	13.0683
2311.66	13.331
2313.08	12.7016
2314.5	12.7965
2315.91	13.2768
2317.33	13.693
2318.74	13.6927
2320.16	13.9219
2321.57	13.7143
2322.98	13.0994
2324.4	12.527
2325.81	11.4587
2327.23	10.3387
2328.64	9.57562
2330.05	9.23195
2331.46	8.47489
2332.88	7.80663
2334.29	7.45997
2335.7	7.03171
2337.11	6.44298
2338.52	5.81448
2339.94	5.80164
2341.35	5.5395
2342.76	5.9382
2344.17	5.85594
2345.58	5.24101
2346.99	4.65819
2348.4	5.4434
2349.81	5.09748
2351.22	4.92181
2352.62	4.93928
2354.03	4.93936
2355.44	5.55051
2356.85	6.05742
2358.26	6.07862
2359.67	6.07852
2361.07	5.85651
2362.48	6.57161
2363.89	7.47173
2365.29	7.91798
2366.7	8.92095
2368.11	9.50448
2369.51	9.26728
2370.92	9.16866
2372.32	9.05453
2373.73	9.58712
2375.13	9.50627
2376.54	9.38569
2377.94	8.52306
2379.35	8.6602
2380.75	8.45448
2382.15	8.49762
2383.56	9.00469
2384.96	9.83028
2386.36	10.151
2387.76	10.0664
2389.17	9.29062
2390.57	9.23437
2391.97	8.51285
2393.37	8.37635
2394.77	7.93022
2396.17	6.96751
2397.58	6.82718
2398.98	6.6097
2400.38	6.02683
2401.78	5.57596
2403.18	4.74985
2404.58	4.26802
2405.97	4.0104
2407.37	4.06932
2408.77	4.39404
2410.17	4.50879
2411.57	3.99726
2412.97	3.97184
2414.37	3.51709
2415.76	3.28616
2417.16	3.43035
2418.56	3.33218
2419.95	3.96561
2421.35	4.71365
2422.75	5.08594
2424.14	5.49008
2425.54	5.61902
2426.93	5.40622
2428.33	5.40259
2429.72	5.32941
2431.12	5.6985
2432.51	6.6009
2433.91	6.41477
2435.3	6.37282
2436.7	6.29717
2438.09	5.86982
2439.48	5.98051
2440.88	6.37546
2442.27	6.70274
2443.66	6.81623
2445.05	6.68237
2446.44	6.98019
2447.84	7.96285
2449.23	8.92566
2450.62	9.88357
2452.01	10.6516
2453.4	11.2178
2454.79	11.3649
2456.18	11.0097
2457.57	10.7986
2458.96	9.95082
2460.35	10.1077
2461.74	9.59636
2463.13	9.4514
2464.52	9.28292
2465.91	8.43772
2467.29	8.19493
2468.68	7.89322
2470.07	7.77059
2471.46	7.30989
2472.85	6.75277
2474.23	6.54173
2475.62	6.34117
2477.01	5.69697
2478.39	5.32407
2479.78	4.419
2481.16	4.71001
2482.55	4.6355
2483.93	4.52668
2485.32	4.18498
2486.7	3.98565
2488.09	4.11379
2489.47	5.39098
2490.86	4.85648
2492.24	4.61964
2493.62	5.05947
2495.01	5.33289
2496.39	5.18687
2497.77	4.90745
2499.15	5.27341
2500.54	5.82187
2501.92	6.08166
2503.3	5.769
2504.68	6.12106
2506.06	6.54678
2507.45	6.94971
2508.83	7.315
2510.21	7.49852
2511.59	7.68618
2512.97	8.24111
2514.35	8.52156
2515.73	8.52115
2517.11	8.43131
2518.48	7.95752
2519.86	7.41551
2521.24	6.88956
2522.62	6.70242
2524	6.6717
2525.38	6.35281
2526.75	6.34946
2528.13	6.32304
2529.51	6.58335
2530.89	7.15079
2532.26	7.34834
2533.64	7.55891
2535.02	7.12109
2536.39	6.93766
2537.77	6.34013
2539.14	6.10833
2540.52	5.75934
2541.89	5.55182
2543.27	5.10559
2544.64	4.73833
2546.01	4.71192
2547.39	5.04619
2548.76	4.91069
2550.14	5.10475
2551.51	4.65001
2552.88	4.55183
2554.25	4.5589
2555.63	4.44191
2557	5.16822
2558.37	5.25941
2559.74	4.8405
2561.11	4.84589
2562.49	5.48601
2563.86	5.48543
2565.23	4.89978
2566.6	5.18746
2567.97	5.71743
2569.34	5.67865
2570.71	5.86549
2572.08	5.57616
2573.45	5.62679
2574.82	6.0058
2576.18	5.94739
2577.55	5.91144
2578.92	5.68428
2580.29	6.46733
2581.66	6.37827
2583.02	6.18443
2584.39	5.89765
2585.76	6.00795
2587.13	6.43926
2588.49	6.96024
2589.86	7.06023
2591.22	7.05079
2592.59	6.97554
2593.96	7.09491
2595.32	7.27569
2596.69	6.58411
2598.05	6.35322
2599.42	6.26525
2600.78	5.50565
2602.14	5.26348
2603.51	5.01088
2604.87	4.80249
2606.23	4.6568
2607.6	4.64225
2608.96	4.07463
2610.32	3.859
2611.69	3.57812
2613.05	3.8989
2614.41	4.22514
2615.77	4.05026
2617.13	3.37919
2618.49	3.25035
2619.86	3.1749
2621.22	2.86612
2622.58	2.7961
2623.94	2.69671
2625.3	2.96557
2626.66	2.69611
2628.02	2.25628
2629.37	2.17233
2630.73	2.74461
2632.09	2.76631
2633.45	3.04346
2634.81	3.46665
2636.17	3.64862
2637.53	3.74577
2638.88	4.22549
2640.24	4.32005
2641.6	4.71367
2642.96	4.61859
2644.31	4.54841
2645.67	4.47062
2647.02	5.21269
2648.38	5.87996
2649.74	5.17893
2651.09	5.32422
2652.45	5.37593
2653.8	5.7214
2655.16	6.19034
2656.51	5.77195
2657.86	5.66471
2659.22	6.20596
2660.57	6.38362
2661.93	6.44717
2663.28	5.90814
2664.63	5.84465
2665.98	5.90553
2667.34	5.96051
2668.69	5.90633
2670.04	5.96851
2671.39	5.82412
2672.75	5.60475
2674.09	5.55408
2675.45	5.18274
2676.8	5.36059
2678.15	6.01711
2679.5	6.09325
2680.85	6.68117
2682.2	6.31493
2683.55	6.16853
2684.9	5.6315
2686.25	6.43384
2687.6	6.13057
2688.94	5.9526
2690.29	6.0999
2691.64	6.15996
2692.99	6.17247
2694.34	6.6047
2695.68	6.80282
2697.03	7.02633
2698.38	7.49049
2699.73	7.5407
2701.07	7.88469
2702.42	7.46867
2703.76	7.61229
2705.11	7.62908
2706.45	7.28682
2707.8	7.24589
2709.15	7.51545
2710.49	7.39868
2711.83	7.7087
2713.18	7.67439
2714.52	7.87137
2715.87	7.48548
2717.21	7.2183
2718.55	7.68292
2719.9	8.38555
2721.24	8.47224
2722.58	8.79265
2723.93	8.99089
2725.27	8.88835
2726.61	8.80589
2727.95	8.40553
2729.29	8.57032
2730.63	8.41267
2731.98	8.34356
2733.32	7.76224
2734.66	7.61716
2736	7.46686
2737.34	7.74969
2738.68	7.57884
2740.02	7.48476
2741.36	7.77183
2742.7	8.01032
2744.03	7.76264
2745.37	7.5129
2746.71	7.54991
2748.05	7.55664
2749.39	7.17966
2750.72	7.02211
2752.06	6.65525
2753.4	6.91624
2754.74	6.20295
2756.07	6.09017
2757.41	5.87175
2758.75	6.31095
2760.08	6.57934
2761.42	6.29814
2762.76	5.25244
2764.09	4.87822
2765.42	5.03012
2766.76	4.46127
2768.09	4.08555
2769.43	3.5217
2770.76	3.40834
2772.1	3.09069
2773.43	2.95183
2774.76	3.08135
2776.1	2.56311
2777.43	1.47672
2778.76	0.838536
2780.1	0.307092
2781.43	0.142256
2782.76	-0.0387822
2784.09	0.072418
2785.42	0.453134
2786.75	0.357186
2788.09	-0.164161
2789.42	0.346128
2790.75	-0.0602531
2792.08	-0.682308
2793.41	-0.467233
2794.74	-0.48718
2796.07	-0.903045
2797.4	-1.16068
2798.73	-0.830594
2800.06	-0.933123
2801.39	-0.344065
2802.71	-0.632598
2804.04	-0.532255
2805.37	-0.654396
2806.7	-0.948707
2808.03	-0.462374
2809.35	-0.779703
2810.68	-1.46139
2812.01	-1.30885
2813.33	-0.768032
2814.66	-0.464784
2815.99	0.115947
2817.31	0.64627
2818.64	1.70004
2819.96	2.63598
2821.29	3.49886
2822.61	4.06117
2823.94	5.44676
2825.26	7.36295
2826.59	8.38331
2827.91	9.86135
2829.23	11.0108
2830.56	12.4266
2831.88	13.5659
2833.21	15.1255
2834.53	16.7816
2835.85	19.0687
2837.17	21.2463
2838.5	23.7283
2839.82	26.1578
2841.14	27.6219
2842.46	29.8098
2843.78	31.855
2845.1	34.5493
2846.42	37.6265
2847.74	39.9684
2849.06	43.0692
2850.38	47.0175
2851.71	49.8295
2853.03	52.9796
2854.34	55.7481
2855.66	58.6567
2856.98	61.3395
2858.3	64.2187
2859.62	67.2495
2860.94	70.4654
2862.26	72.7542
2863.57	76.3349
2864.89	79.1894
2866.21	81.2321
2867.53	83.5326
2868.84	84.6426
2870.16	87.0088
2871.48	88.8887
2872.79	90.5224
2874.11	92.7338
2875.42	94.1284
2876.74	95.6529
2878.05	97.5873
2879.37	99.6166
2880.68	101.566
2882	102.61
2883.31	104.541
2884.63	105.83
2885.94	107.009
2887.26	107.988
2888.57	108.983
2889.88	110.203
2891.19	111.162
2892.51	112.123
2893.82	112.792
2895.13	113.742
2896.44	115.373
2897.76	116.599
2899.07	118.791
2900.38	120.884
2901.69	123.56
2903	125.725
2904.31	128.574
2905.62	131.333
2906.93	133.528
2908.24	136.376
2909.55	139.68
2910.86	143.219
2912.17	146.047
2913.48	148.417
2914.79	151.882
2916.1	155.131
2917.41	157.537
2918.71	160.435
2920.02	162.834
2921.33	165.222
2922.64	167.458
2923.94	168.635
2925.25	169.661
2926.56	169.958
2927.86	170.896
2929.17	171.855
2930.48	171.829
2931.78	171.036
2933.09	170.13
2934.39	170.037
2935.7	169.23
2937	167.889
2938.31	166.026
2939.61	164.423
2940.92	162.758
2942.22	160.223
2943.53	157.692
2944.83	155.149
2946.13	152.95
2947.43	149.784
2948.74	147.169
2950.04	143.484
2951.34	140.113
2952.64	136.747
2953.95	133.57
2955.25	130.524
2956.55	127.729
2957.85	125.218
2959.15	122.385
2960.45	120.062
2961.75	117.744
2963.05	114.937
2964.35	113.02
2965.65	110.22
2966.95	108.164
2968.25	105.425
2969.55	103.2
2970.85	99.7823
2972.15	96.4411
2973.45	93.7588
2974.75	91.3845
2976.05	88.4963
2977.34	85.5685
2978.64	83.2071
2979.94	80.8923
2981.24	78.4823
2982.53	76.1379
2983.83	72.9589
2985.13	69.7531
2986.42	66.216
2987.72	63.1898
2989.01	60.1823
2990.31	56.917
2991.61	54.4231
2992.9	52.6251
2994.19	49.5107
2995.49	46.2109
2996.78	43.1987
2998.08	40.4369
2999.37	38.1638
3000.67	34.7282
3001.96	31.9922
3003.25	29.3434
3004.55	27.3435
3005.84	25.3866
3007.13	22.2369
3008.42	20.543
3009.72	18.9277
3011.01	17.1775
3012.3	14.8097
3013.59	13.0189
3014.88	11.6878
3016.17	10.1653
3017.46	9.32627
3018.76	8.30737
3020.05	7.3362
3021.34	6.43712
3022.63	5.82986
3023.92	5.08424
3025.21	4.76462
3026.49	4.38435
3027.78	3.53122
3029.07	3.4945
3030.36	2.80591
3031.65	3.27847
3032.94	2.92795
3034.23	2.61734
3035.51	2.19924
3036.8	2.6951
3038.09	3.47702
3039.38	3.77531
3040.66	4.39598
3041.95	5.09911
3043.23	5.93407
3044.52	6.48
3045.81	7.14199
3047.09	8.16168
3048.38	8.37556
3049.66	9.17632
3050.95	10.0234
3052.23	11.2224
3053.52	11.5521
3054.8	11.7275
3056.09	12.3698
3057.37	12.3137
3058.65	12.5302
3059.94	12.2911
3061.22	12.9234
3062.5	13.3161
3063.79	13.3604
3065.07	12.9199
3066.35	13.0798
3067.63	13.1459
3068.92	12.9755
3070.2	12.4356
3071.48	11.5781
3072.76	10.5779
3074.04	9.56903
3075.32	9.18079
3076.6	8.58276
3077.88	7.71951
3079.16	7.29176
3080.44	6.4381
3081.72	5.9197
3083	5.36498
3084.28	4.78511
3085.56	4.07381
3086.84	3.58611
3088.12	3.64039
3089.4	3.57346
3090.67	3.04037
3091.95	3.04033
3093.23	2.83072
3094.51	2.10698
3095.78	2.24218
3097.06	2.23892
3098.34	1.73263
3099.61	1.89335
3100.89	2.09587
3102.17	2.24173
3103.44	2.39764
3104.72	3.11007
3105.99	3.75346
3107.27	4.65013
3108.54	4.71404
3109.82	5.59531
3111.09	6.38668
3112.37	7.28628
3113.64	8.29887
3114.92	8.93264
3116.19	9.87181
3117.46	10.1227
3118.74	11.1505
3120.01	11.9988
3121.28	12.9656
3122.55	14.2678
3123.83	15.202
3125.1	16.7526
3126.37	17.5071
3127.64	17.9064
3128.91	18.8438
3130.19	20.0317
3131.46	20.718
3132.73	20.9716
3134	21.5813
3135.27	22.3054
3136.54	22.8396
3137.81	24.4505
3139.08	25.4166
3140.35	25.9275
3141.62	26.5016
3142.89	27.4808
3144.16	28.3424
3145.42	29.21
3146.69	29.8845
3147.96	30.9767
3149.23	32.0492
