#Acq. time (s)=	45
#Accumulations=	2
#Range (cm-¹)=	200...3150
#Windows=	2
#Auto scanning=	Off
#Autofocus=	Off
#Macrospot=	Off
#AutoExposure=	Off
#Spike filter=	Multiple accum.
#Delay time (s)=	0
#Binning=	1
#Readout mode=	Signal
#DeNoise=	Off
#ICS correction=	On
#Dark correction=	Off
#Inst. Process=	Off
#Detector Gain=	Best Dynamic Range
#Detector ADC=	20 kHz       
#Detector temperature (°C)=	-69.85
#Instrument=	LabRAM HR Evol
#Detector=	Synapse
#Objective=	x100
#Grating=	600 gr/mm
#ND Filter=	100%
#Laser (nm)=	532 
#Hole=	100.021
#Range=	Auto
#Laser Pol.=	No
#Raman. Pol.=	No
#Laser Pol. (°)=	-0.0007625
#Raman Pol. (°)=	89.9995
#Collection=	Microscope
#StageXY=	Marzhauser
#StageZ=	Marzhauser
#X (µm)=	254.5
#Y (µm)=	1691.2
#Z (µm)=	427.7
#Full time(mm:ss)=	3:18
#Project=	
#Sample=	
#Site=	
#Title=	Thy_40_11_47_2x_45s_532 nm_x100_100%_600 gr_mm
#Remark=	
#Date=	05.07.2022 13:21
#Acquired=	05.07.2022 13:21:00
#Base:Fit=	10.08.2022 10:01:35
#Base:Sub=	10.08.2022 10:01:52
#Filter:Polynom=	16.08.2022 10:21:53
#AxisType[0]=Intens
#AxisUnit[0]=Cnt
#AxisType[1]=Spectr
#AxisUnit[1]=1/cm
200.43	12.6545
202.244	12.1511
204.059	11.7488
205.873	10.4023
207.688	9.58398
209.501	8.5111
211.314	7.98809
213.127	7.38516
214.941	6.89271
216.753	6.01419
218.564	5.11462
220.375	4.72998
222.186	4.31558
223.999	4.00381
225.809	3.30438
227.618	3.2107
229.428	3.18117
231.236	2.70419
233.045	1.70336
234.855	1.8262
236.663	1.5632
238.471	1.49988
240.278	1.66298
242.085	1.92608
243.891	2.80108
245.698	3.02702
247.503	3.68037
249.309	4.49618
251.116	4.3003
252.921	3.64217
254.725	3.97273
256.529	3.33489
258.333	4.7961
260.136	4.81156
261.939	4.32029
263.742	4.9687
265.544	4.16179
267.346	3.78728
269.148	3.64302
270.949	2.98652
272.75	2.72667
274.55	3.69754
276.351	3.76214
278.15	3.4055
279.95	3.41955
281.749	4.75534
283.548	4.02535
285.346	4.46635
287.144	4.41632
288.942	5.28271
290.739	5.45562
292.536	6.05242
294.333	6.52594
296.129	7.14205
297.925	6.52154
299.721	7.25707
301.514	8.29166
303.309	7.91683
305.104	8.29139
306.898	8.33319
308.692	8.53049
310.486	8.30184
312.279	8.70876
314.072	8.81839
315.862	8.50555
317.654	8.47602
319.446	7.97846
321.238	7.57882
323.029	6.93013
324.819	8.07503
326.608	8.21941
328.398	8.87113
330.188	9.01614
331.977	9.36781
333.766	9.57348
335.553	9.33715
337.341	9.48343
339.129	8.97102
340.917	7.52115
342.704	7.29611
344.489	8.04039
346.275	7.31395
348.062	8.12776
349.845	7.9198
351.631	7.62967
353.416	7.71837
355.201	6.93001
356.984	7.55476
358.768	7.97094
360.552	7.90159
362.333	7.89882
364.116	7.6521
365.899	8.6603
367.68	8.7402
369.462	9.39063
371.243	9.67314
373.023	8.57589
374.804	9.1303
376.585	9.55423
378.363	11.0471
380.143	10.2172
381.923	10.6448
383.7	10.2205
385.479	9.78229
387.256	10.6221
389.034	11.0385
390.812	10.6786
392.588	10.4719
394.365	10.6117
396.14	9.8004
397.916	9.66883
399.691	9.27048
401.467	9.7736
403.24	9.2389
405.015	8.27728
406.788	7.63369
408.563	7.24388
410.335	7.73341
412.109	7.55113
413.88	9.02505
415.654	8.88078
417.424	8.85615
419.197	9.29709
420.967	9.87801
422.739	9.64081
424.508	9.3579
426.279	9.25801
428.048	9.18386
429.819	9.42719
431.587	9.68046
433.356	10.2515
435.124	9.26378
436.891	10.4692
438.66	9.81781
440.426	9.52236
442.194	9.4132
443.96	9.57467
445.725	10.0825
447.492	10.339
449.257	9.83807
451.021	9.77973
452.787	9.74437
454.551	9.70829
456.314	8.89368
458.079	9.38722
459.842	9.00974
461.604	9.01304
463.368	9.3954
465.13	9.73527
466.891	9.54125
468.654	9.33732
470.415	10.2636
472.175	10.1423
473.935	10.6211
475.696	11.4436
477.456	11.1458
479.215	12.7426
480.973	13.571
482.733	13.5824
484.491	13.5568
486.249	14.0477
488.006	13.9279
489.765	13.9257
491.522	13.5149
493.278	13.3309
495.034	14.012
496.789	15.1958
498.544	15.7936
500.301	16.0244
502.056	17.2575
503.81	16.9074
505.564	17.2595
507.317	17.2398
509.071	16.015
510.825	15.0865
512.578	14.8542
514.33	15.5527
516.082	15.3622
517.833	15.5699
519.585	14.3933
521.335	14.8344
523.086	14.4135
524.836	14.5124
526.586	13.9116
528.335	13.9741
530.085	13.3172
531.835	13.3697
533.584	12.1524
535.332	11.9466
537.08	10.764
538.827	10.5342
540.574	10.7749
542.321	10.6984
544.068	11.2667
545.814	11.0518
547.56	10.3427
549.305	9.84355
551.05	9.98755
552.795	10.7
554.54	10.3738
556.282	11.8475
558.025	12.1717
559.769	12.5995
561.512	12.798
563.255	12.9817
564.997	12.9188
566.739	13.644
568.481	12.7957
570.223	11.9689
571.964	11.2594
573.705	10.1852
575.443	9.64565
577.183	9.15753
578.923	9.14704
580.663	9.85995
582.402	10.3269
584.141	10.7612
585.879	10.28
587.615	10.058
589.353	9.98791
591.09	9.50192
592.828	8.97502
594.564	8.22378
596.299	8.02752
598.035	8.01729
599.771	8.05042
601.506	8.84452
603.242	8.57064
604.974	8.80007
606.709	8.01555
608.443	8.17311
610.177	8.02466
611.908	7.36905
613.642	7.39445
615.374	7.14592
617.105	7.15597
618.837	7.2925
620.569	6.39192
622.3	6.82447
624.03	6.54856
625.761	6.84893
627.491	6.8294
629.219	7.49556
630.949	7.21469
632.677	7.03713
634.406	8.68779
636.135	9.59865
637.861	10.3611
639.59	11.6311
641.318	11.5935
643.043	13.2106
644.77	13.6428
646.495	13.7054
648.222	13.67
649.948	13.5498
651.672	13.8689
653.398	15.6556
655.121	15.8457
656.846	15.8938
658.569	16.1829
660.293	17.2081
662.015	18.8432
663.738	20.4904
665.46	21.5729
667.183	22.8831
668.903	23.7718
670.626	24.7187
672.346	24.6203
674.067	24.9217
675.787	26.6865
677.508	27.0862
679.226	28.2228
680.947	29.4296
682.665	30.7167
684.385	30.8934
686.102	31.9274
687.821	34.2011
689.538	34.5481
691.254	34.6857
692.972	35.8197
694.688	37.0021
696.406	37.7998
698.121	37.0541
699.835	38.1024
701.552	37.8225
703.266	37.9624
704.98	37.9344
706.695	37.9977
708.409	39.0124
710.121	39.9188
711.836	39.8905
713.548	41.3059
715.26	42.8294
716.973	43.2242
718.685	44.0182
720.396	45.5271
722.108	46.0353
723.818	46.8685
725.528	48.2065
727.238	48.3964
728.949	49.6328
730.658	49.6046
732.367	49.7699
734.075	50.5419
735.785	51.2642
737.493	52.7604
739.2	54.3876
740.907	55.1263
742.614	55.1492
744.322	56.1448
746.028	56.7953
747.734	57.1315
749.439	56.986
751.144	57.4865
752.849	59.4048
754.555	60.3627
756.26	60.8678
757.963	61.715
759.667	63.3877
761.37	65.1967
763.073	66.3617
764.775	68.0689
766.477	69.4932
768.179	71.4874
769.883	72.1533
771.584	74.0281
773.285	75.232
774.986	75.3882
776.686	76.5716
778.386	78.6648
780.085	78.0668
781.785	77.7739
783.484	77.9997
785.182	79.5445
786.881	79.0789
788.579	79.3141
790.276	79.8724
791.974	81.2504
793.671	82.2705
795.367	82.9598
797.064	83.2823
798.76	84.4842
800.456	84.6015
802.151	84.5693
803.846	84.0345
805.541	84.0867
807.234	83.4983
808.928	82.4993
810.622	81.2067
812.315	80.9921
814.008	80.6582
815.701	80.6232
817.394	80.4832
819.086	79.3075
820.778	79.4972
822.468	79.3792
824.159	79.1937
825.85	78.1013
827.541	76.5529
829.231	76.2099
830.921	75.3711
832.609	74.7222
834.298	73.7172
835.987	75.051
837.676	75.2747
839.364	73.9566
841.051	73.8008
842.738	73.1136
844.426	73.0556
846.113	72.8803
847.798	72.3961
849.484	72.2521
851.171	71.5729
852.857	70.0363
854.54	68.838
856.226	68.1941
857.911	67.1453
859.593	67.3571
861.278	66.5089
862.961	64.5547
864.645	63.0148
866.327	62.2245
868.01	61.105
869.692	61.3298
871.373	60.4566
873.055	60.7268
874.735	60.6751
876.416	60.9518
878.097	59.7294
879.776	58.7854
881.457	57.5248
883.135	56.2435
884.815	55.083
886.495	54.1768
888.172	52.6855
889.851	51.5467
891.528	51.1233
893.206	50.5308
894.882	50.4321
896.56	51.1094
898.237	50.3597
899.912	49.5667
901.589	48.8892
903.263	48.1696
904.94	48.6858
906.614	47.8982
908.289	47.1858
909.962	46.6549
911.635	46.3635
913.31	46.0344
914.982	45.3606
916.656	44.6411
918.328	44.4014
920.001	44.6412
921.672	44.5722
923.345	44.0901
925.015	44.3914
926.685	43.2416
928.357	43.1281
930.026	42.1021
931.698	41.0178
933.366	40.6334
935.035	39.3965
936.705	39.0585
938.373	38.8597
940.041	37.8028
941.71	37.2089
943.377	37.3695
945.044	35.7196
946.712	35.2461
948.378	35.5999
950.044	34.5529
951.709	35.6439
953.376	37.4469
955.041	36.9521
956.706	37.0701
958.372	35.702
960.036	35.1975
961.699	33.1771
963.362	32.6369
965.027	32.3915
966.69	32.1854
968.352	31.3782
970.014	30.8367
971.676	30.124
973.339	29.9363
975	30.0346
976.661	29.9753
978.322	30.1342
979.982	29.6125
981.642	28.4091
983.303	28.0267
984.962	28.5443
986.621	28.5055
988.28	29.1863
989.938	27.9555
991.596	27.3571
993.254	27.9746
994.911	27.7349
996.57	27.9079
998.227	28.0797
999.884	28.204
1001.54	28.4017
1003.2	28.6706
1004.85	29.7024
1006.51	28.8837
1008.16	27.8643
1009.82	26.5544
1011.47	26.2741
1013.12	26.2941
1014.78	26.7469
1016.43	26.4296
1018.08	27.3704
1019.74	27.013
1021.39	26.901
1023.04	26.9125
1024.69	27.3958
1026.34	27.5083
1028	27.4271
1029.65	28.051
1031.3	27.199
1032.95	27.4784
1034.6	27.7836
1036.25	26.6134
1037.9	25.5221
1039.54	24.2346
1041.19	23.2363
1042.84	22.0437
1044.49	21.3052
1046.14	21.4525
1047.78	21.2748
1049.43	20.6035
1051.08	18.994
1052.72	18.6096
1054.37	18.1727
1056.02	17.7711
1057.66	17.3379
1059.31	16.8953
1060.95	16.1044
1062.6	15.1399
1064.24	14.2612
1065.88	13.9734
1067.53	13.8273
1069.17	12.9178
1070.81	12.3928
1072.45	11.6636
1074.1	12.2802
1075.74	12.6058
1077.38	11.9751
1079.02	12.3821
1080.66	12.3846
1082.3	12.4654
1083.94	12.6479
1085.58	12.3939
1087.22	12.7796
1088.86	12.4272
1090.5	12.3677
1092.14	12.3687
1093.78	12.3093
1095.42	12.0408
1097.05	12.193
1098.69	11.4653
1100.33	12.0611
1101.96	11.0204
1103.6	11.8547
1105.24	12.0628
1106.87	13.1661
1108.51	13.6501
1110.14	13.952
1111.78	13.8369
1113.41	12.5595
1115.05	13.7286
1116.68	13.1455
1118.31	13.0913
1119.95	12.7851
1121.58	12.1317
1123.21	12.7371
1124.85	11.5944
1126.48	12.1022
1128.11	11.6334
1129.74	11.3412
1131.37	10.4359
1133	9.58725
1134.63	9.39629
1136.26	9.22185
1137.89	8.70949
1139.52	8.04214
1141.15	7.94663
1142.78	7.74657
1144.41	7.46584
1146.04	6.79935
1147.66	6.43453
1149.29	6.16039
1150.92	5.80353
1152.55	5.85508
1154.17	5.21314
1155.8	4.57195
1157.43	4.10277
1159.05	4.6418
1160.68	5.01541
1162.3	4.85493
1163.93	3.89862
1165.55	2.89389
1167.17	2.5284
1168.8	2.6231
1170.42	1.21727
1172.05	0.542315
1173.67	-0.351391
1175.29	-0.189178
1176.91	0.247138
1178.54	0.31802
1180.16	0.220178
1181.78	0.787036
1183.4	1.08689
1185.02	1.59768
1186.64	1.59295
1188.26	3.19771
1189.88	2.7474
1191.5	3.32262
1193.12	3.35035
1194.74	3.7023
1196.36	5.29471
1197.97	5.15355
1199.59	5.01497
1201.21	5.44766
1202.83	7.46278
1204.44	8.25793
1206.06	8.47632
1207.68	9.60784
1209.29	10.0726
1210.91	11.1365
1212.52	12.4169
1214.14	14.7012
1215.75	16.2633
1217.37	17.8047
1218.98	19.0989
1220.59	20.3033
1222.21	21.7562
1223.82	21.8609
1225.43	22.552
1227.05	23.8552
1228.66	24.3925
1230.27	25.549
1231.88	26.3296
1233.49	27.4142
1235.1	29.0982
1236.72	29.9064
1238.33	31.4235
1239.94	32.7243
1241.55	32.756
1243.16	32.6659
1244.76	33.1526
1246.37	34.0337
1247.98	35.1823
1249.59	36.0729
1251.2	36.4984
1252.8	37.2714
1254.41	38.4927
1256.02	39.6991
1257.62	40.2728
1259.23	40.2298
1260.84	41.0181
1262.44	40.9413
1264.05	41.4124
1265.66	41.2794
1267.26	41.3282
1268.86	42.6953
1270.47	43.0792
1272.07	44.4357
1273.67	44.5014
1275.28	45.1463
1276.88	45.5291
1278.48	46.0654
1280.09	46.8186
1281.69	47.9969
1283.29	48.8107
1284.89	48.9366
1286.49	49.1478
1288.09	49.2903
1289.69	49.2885
1291.29	50.1569
1292.89	50.6368
1294.49	50.5307
1296.09	49.6953
1297.69	49.3216
1299.29	49.0987
1300.89	49.0996
1302.49	48.4971
1304.08	48.8134
1305.68	49.2681
1307.28	49.2343
1308.88	49.5027
1310.47	50.2858
1312.07	51.0397
1313.66	52.4283
1315.26	52.0209
1316.85	51.403
1318.45	51.8615
1320.04	51.9212
1321.64	51.8263
1323.23	52.1534
1324.83	52.5753
1326.42	53.5394
1328.01	53.7331
1329.61	53.6475
1331.2	53.3643
1332.79	53.4903
1334.38	53.2989
1335.97	51.3984
1337.56	50.8688
1339.16	48.8741
1340.75	47.8924
1342.34	46.6084
1343.93	46.0477
1345.52	45.1276
1347.11	45.1678
1348.7	45.1948
1350.29	43.854
1351.87	42.3619
1353.46	40.9236
1355.05	39.2688
1356.64	38.5656
1358.22	37.7224
1359.81	36.472
1361.4	35.0489
1362.98	33.76
1364.57	31.7887
1366.16	29.9767
1367.74	28.9691
1369.33	27.7117
1370.91	26.8057
1372.5	24.8899
1374.08	24.1032
1375.67	24.1568
1377.25	23.0612
1378.83	21.9469
1380.41	22.2418
1382	21.9197
1383.58	22.1684
1385.16	21.8704
1386.74	21.8209
1388.33	22.3756
1389.91	20.8865
1391.49	21.1018
1393.07	21.0124
1394.65	19.5929
1396.23	20.3698
1397.81	19.6872
1399.39	19.9271
1400.97	19.7205
1402.55	20.1267
1404.13	20.7293
1405.7	21.4363
1407.28	20.3192
1408.86	20.1131
1410.44	20.3004
1412.01	20.7528
1413.59	21.4516
1415.17	22.1973
1416.74	24.0852
1418.32	24.6747
1419.89	26.6627
1421.47	28.4842
1423.04	30.3652
1424.62	32.1785
1426.19	33.0115
1427.77	34.011
1429.34	35.7936
1430.91	38.3939
1432.49	40.4196
1434.06	42.4899
1435.63	45.3889
1437.2	47.0675
1438.78	48.3124
1440.35	49.6547
1441.92	50.4467
1443.49	51.4956
1445.06	52.7107
1446.63	53.3459
1448.2	53.4991
1449.77	54.0438
1451.34	53.674
1452.91	54.1148
1454.48	54.2862
1456.05	53.2567
1457.62	52.8884
1459.18	53.1222
1460.75	51.5711
1462.32	49.6506
1463.89	48.6994
1465.45	46.7467
1467.02	44.8716
1468.59	42.221
1470.15	41.3338
1471.72	38.9409
1473.28	36.7344
1474.85	35.5473
1476.41	32.9746
1477.98	32.279
1479.54	30.5358
1481.1	28.7826
1482.67	26.5483
1484.23	24.1986
1485.79	22.6647
1487.36	21.4213
1488.92	21.2368
1490.48	20.7079
1492.04	19.777
1493.61	18.9877
1495.17	18.2187
1496.73	17.518
1498.29	16.9795
1499.85	16.2125
1501.41	15.789
1502.97	15.1709
1504.53	14.9931
1506.09	15.7182
1507.65	15.9067
1509.2	16.4541
1510.76	16.5975
1512.32	16.3177
1513.88	15.6236
1515.43	14.8785
1516.99	14.9254
1518.55	15.7024
1520.1	15.722
1521.66	15.7884
1523.22	15.054
1524.77	15.1676
1526.33	14.9642
1527.88	15.233
1529.44	14.9294
1530.99	15.575
1532.54	16.6697
1534.1	16.1598
1535.65	16.2109
1537.21	16.5872
1538.76	16.3635
1540.31	16.3475
1541.86	17.5929
1543.42	17.3722
1544.97	18.5568
1546.52	19.6973
1548.07	21.2644
1549.62	22.2243
1551.17	23.6119
1552.72	25.2553
1554.27	26.2947
1555.82	27.8172
1557.37	28.5655
1558.92	28.8027
1560.47	29.6538
1562.02	30.7382
1563.56	32.5006
1565.11	32.8455
1566.66	34.0803
1568.21	35.1221
1569.75	36.4274
1571.3	37.9076
1572.85	38.6642
1574.39	40.531
1575.94	42.4542
1577.49	43.7024
1579.03	45.5931
1580.57	46.2436
1582.12	47.3828
1583.66	47.5139
1585.21	48.1079
1586.75	48.846
1588.3	49.1093
1589.84	48.9765
1591.38	49.7286
1592.92	49.8476
1594.47	50.1151
1596.01	49.4673
1597.55	49.1115
1599.09	48.5403
1600.63	48.0432
1602.17	48.329
1603.71	47.7842
1605.25	47.3873
1606.79	46.7145
1608.33	46.905
1609.87	46.5561
1611.41	45.013
1612.95	44.5648
1614.49	44.5213
1616.03	44.026
1617.57	44.0123
1619.1	44.6425
1620.64	44.4394
1622.18	44.8125
1623.72	44.6218
1625.25	44.3103
1626.79	45.0734
1628.32	46.1679
1629.86	46.3404
1631.39	46.7496
1632.93	47.1932
1634.46	47.5862
1636	47.3565
1637.53	48.1569
1639.07	48.8736
1640.6	50.0743
1642.13	50.7305
1643.67	52.7049
1645.2	54.9666
1646.73	56.6156
1648.26	57.5906
1649.8	58.693
1651.33	60.6074
1652.86	60.9337
1654.39	60.5758
1655.92	61.7203
1657.45	62.2604
1658.98	62.2601
1660.51	62.3271
1662.04	62.8996
1663.57	62.3978
1665.1	61.8934
1666.63	60.8134
1668.16	60.0723
1669.68	58.8816
1671.21	57.6618
1672.74	56.7218
1674.27	56.4008
1675.79	54.5072
1677.32	52.7623
1678.85	51.4646
1680.37	48.8752
1681.9	47.3277
1683.42	45.6478
1684.95	44.0305
1686.47	41.5735
1688	39.1034
1689.52	37.1446
1691.05	34.9826
1692.57	32.085
1694.09	30.4582
1695.62	29.1423
1697.14	27.5838
1698.66	25.9885
1700.18	24.2428
1701.71	22.6479
1703.23	21.5058
1704.75	19.5418
1706.27	17.8343
1707.79	17.0839
1709.31	15.4172
1710.83	14.4017
1712.35	13.4002
1713.87	12.5217
1715.39	12.2111
1716.91	12.267
1718.43	11.8005
1719.95	11.7397
1721.47	11.6263
1722.99	10.9855
1724.5	10.9392
1726.02	11.2008
1727.54	11.2837
1729.06	11.1107
1730.57	10.6307
1732.09	11.4297
1733.61	10.9282
1735.12	10.4786
1736.64	10.8432
1738.15	10.3703
1739.67	9.68478
1741.18	9.35075
1742.7	9.41273
1744.21	10.0174
1745.72	9.77451
1747.24	9.2729
1748.75	9.60001
1750.26	9.33612
1751.77	8.97469
1753.29	9.09472
1754.8	9.04798
1756.31	8.49212
1757.82	8.60264
1759.33	8.42436
1760.84	7.78291
1762.36	6.8229
1763.87	6.09744
1765.38	5.25534
1766.89	4.88887
1768.4	4.7931
1769.91	5.19546
1771.41	4.94978
1772.92	4.20295
1774.43	3.98828
1775.94	3.85185
1777.45	3.98159
1778.95	3.97228
1780.46	4.14063
1781.97	4.40348
1783.48	4.32816
1784.98	4.45435
1786.49	4.24688
1787.99	3.80456
1789.5	3.4936
1791.01	3.71943
1792.51	3.62347
1794.01	3.34181
1795.52	3.37306
1797.02	2.91906
1798.53	3.06757
1800.03	3.28211
1801.53	2.29243
1803.04	2.09534
1804.54	1.93743
1806.04	1.56691
1807.54	2.01705
1809.05	1.73097
1810.55	2.01579
1812.05	2.03321
1813.55	1.68952
1815.05	1.81824
1816.55	2.13102
1818.05	2.48338
1819.55	2.73254
1821.05	2.63432
1822.55	2.31424
1824.05	2.48282
1825.55	2.73432
1827.05	3.06294
1828.55	3.00409
1830.04	3.00226
1831.54	3.17236
1833.04	2.98936
1834.54	2.7407
1836.03	2.04683
1837.53	1.93585
1839.03	2.04361
1840.52	2.25413
1842.02	2.37839
1843.51	2.3369
1845.01	2.31981
1846.5	2.46459
1848	2.15222
1849.49	2.40215
1850.99	2.81335
1852.48	2.49184
1853.97	2.41782
1855.47	2.34752
1856.96	2.30563
1858.45	1.96881
1859.94	1.59262
1861.44	1.26981
1862.93	1.25579
1864.42	2.06149
1865.91	1.94496
1867.4	1.72775
1868.89	1.82825
1870.38	1.86961
1871.87	1.69398
1873.36	1.85805
1874.85	1.43204
1876.34	1.39738
1877.83	2.43375
1879.32	2.2256
1880.81	2.46031
1882.3	2.43272
1882.57	2.3299
1884.07	2.59536
1885.56	3.02077
1887.06	3.75225
1888.55	4.29584
1890.04	5.08817
1891.54	5.47969
1893.03	6.25398
1894.52	6.5874
1896.02	7.57581
1897.51	8.48126
1899	8.47424
1900.49	8.58338
1901.98	8.28294
1903.47	8.32204
1904.96	8.24288
1906.45	7.84899
1907.94	7.5436
1909.43	7.57101
1910.92	7.39276
1912.41	7.2342
1913.9	6.9628
1915.39	6.19568
1916.88	5.70917
1918.37	5.67145
1919.85	4.90571
1921.34	4.76847
1922.83	5.37046
1924.32	5.46813
1925.8	4.93465
1927.29	4.74463
1928.78	3.9034
1930.26	3.78894
1931.75	3.318
1933.23	3.08028
1934.72	3.44576
1936.2	3.28883
1937.69	3.44235
1939.17	3.22611
1940.66	3.22795
1942.14	3.34768
1943.63	3.00068
1945.11	2.74346
1946.59	2.9528
1948.07	3.29919
1949.56	3.82153
1951.04	3.98647
1952.52	4.28782
1954	5.3658
1955.48	5.26317
1956.96	5.57642
1958.45	6.64166
1959.93	7.30013
1961.41	7.37639
1962.89	7.28738
1964.37	8.15826
1965.85	8.05429
1967.32	8.5637
1968.8	8.48353
1970.28	9.14605
1971.76	8.5492
1973.24	8.73376
1974.72	8.61817
1976.19	8.38272
1977.67	8.28963
1979.15	7.88158
1980.63	7.62798
1982.1	7.43207
1983.58	7.26059
1985.05	6.89288
1986.53	6.72091
1988	6.66422
1989.48	6.50716
1990.95	6.26722
1992.43	6.82077
1993.9	6.50001
1995.38	7.21403
1996.85	7.19943
1998.32	6.81721
1999.8	6.78327
2001.27	6.43705
2002.74	6.82305
2004.22	7.39363
2005.69	7.69738
2007.16	8.01936
2008.63	7.94666
2010.1	7.65795
2011.57	7.94506
2013.04	7.86601
2014.51	7.57148
2015.98	7.19452
2017.45	7.08354
2018.92	7.53996
2020.39	7.82974
2021.86	7.61088
2023.33	7.24457
2024.8	7.76187
2026.27	8.27711
2027.74	8.04523
2029.2	7.68527
2030.67	8.29787
2032.14	8.68637
2033.61	8.44745
2035.07	8.28694
2036.54	8.44707
2038.01	8.21368
2039.47	7.77096
2040.94	7.8236
2042.4	7.7932
2043.87	8.03366
2045.33	7.58192
2046.8	7.34623
2048.26	6.726
2049.72	6.68336
2051.19	6.89776
2052.65	6.92544
2054.12	7.22888
2055.58	7.09099
2057.04	7.08671
2058.5	7.195
2059.97	7.52775
2061.43	8.01089
2062.89	8.54697
2064.35	8.37294
2065.81	9.41968
2067.27	9.81217
2068.73	10.3378
2070.19	10.5674
2071.65	11.1161
2073.11	12.1119
2074.57	12.2723
2076.03	12.9805
2077.49	13.1712
2078.95	13.3493
2080.41	13.7586
2081.87	14.1005
2083.32	14.8571
2084.78	15.5432
2086.24	15.5982
2087.7	16.2317
2089.15	16.4301
2090.61	16.9986
2092.07	17.7158
2093.52	18.4186
2094.98	19.3874
2096.43	20.1759
2097.89	21.3978
2099.34	22.3259
2100.8	23.1782
2102.25	23.8449
2103.71	24.5436
2105.16	24.9273
2106.61	25.5191
2108.07	25.9717
2109.52	26.5083
2110.97	27.2101
2112.43	28.0186
2113.88	28.8596
2115.33	29.703
2116.78	30.0886
2118.23	30.7662
2119.68	31.4923
2121.13	32.3983
2122.59	33.5116
2124.04	34.6143
2125.49	35.0175
2126.94	35.744
2128.39	36.7198
2129.83	37.4664
2131.28	38.5609
2132.73	39.7506
2134.18	40.8029
2135.63	42.6897
2137.08	43.8621
2138.53	46.0896
2139.97	47.411
2141.42	48.6468
2142.87	50.4021
2144.31	52.0093
2145.76	53.5261
2147.21	55.0124
2148.65	56.9077
2150.1	58.638
2151.54	59.6382
2152.99	61.1763
2154.43	62.1805
2155.88	62.9159
2157.32	64.025
2158.77	64.8113
2160.21	65.9711
2161.65	66.8828
2163.1	67.9959
2164.54	69.2944
2165.98	70.5671
2167.43	71.0088
2168.87	71.0156
2170.31	71.5364
2171.75	72.0372
2173.19	72.0242
2174.64	71.7654
2176.07	71.7088
2177.52	71.3221
2178.96	71.5858
2180.4	70.7121
2181.84	70.2487
2183.28	69.2403
2184.72	68.2171
2186.15	67.2463
2187.59	66.0124
2189.03	64.8887
2190.47	63.8613
2191.91	61.865
2193.35	60.6612
2194.78	59.3383
2196.22	57.6276
2197.66	56.116
2199.09	54.3343
2200.53	53.1517
2201.97	51.7229
2203.4	50.9508
2204.84	49.8462
2206.27	48.8813
2207.71	47.879
2209.14	45.9854
2210.58	44.5378
2212.01	42.7846
2213.45	41.6433
2214.88	40.7072
2216.31	39.498
2217.75	38.2221
2219.18	36.8674
2220.61	35.6015
2222.05	34.4157
2223.48	33.0164
2224.91	32.0711
2226.34	31.1893
2227.78	29.9097
2229.21	29.2157
2230.64	27.7212
2232.07	27.0256
2233.5	26.6204
2234.93	25.8019
2236.36	24.8331
2237.79	24.1323
2239.22	23.3417
2240.65	22.6933
2242.08	22.4202
2243.5	21.6549
2244.93	21.2388
2246.36	21.0403
2247.79	20.811
2249.22	20.4501
2250.64	20.0373
2252.07	19.1764
2253.5	18.8831
2254.92	18.1902
2256.35	18.4454
2257.78	18.0466
2259.2	17.6147
2260.63	17.1193
2262.05	16.4674
2263.48	16.0305
2264.9	16.4012
2266.33	16.1913
2267.75	15.6841
2269.18	15.7926
2270.6	15.6979
2272.02	15.8161
2273.45	15.5791
2274.87	14.9193
2276.29	14.3466
2277.71	14.2829
2279.14	13.4726
2280.56	13.0626
2281.98	12.8104
2283.4	12.6977
2284.82	13.1074
2286.24	12.9563
2287.66	12.5647
2289.08	11.6619
2290.5	10.8985
2291.92	10.7319
2293.34	10.2368
2294.76	10.1227
2296.18	10.6479
2297.6	10.8518
2299.02	10.5912
2300.44	10.4248
2301.86	10.236
2303.27	11.2405
2304.69	11.0573
2306.11	10.3699
2307.53	10.5601
2308.94	10.7634
2310.36	10.3271
2311.78	10.2712
2313.19	9.7558
2314.61	9.65127
2316.02	9.25351
2317.44	8.93909
2318.85	8.36022
2320.27	7.5339
2321.68	7.57813
2323.1	7.8472
2324.51	7.97997
2325.92	8.26672
2327.34	8.30056
2328.75	8.52571
2330.16	8.71186
2331.58	9.04289
2332.99	9.33888
2334.4	9.65591
2335.81	9.8819
2337.23	9.308
2338.64	9.35792
2340.05	9.66853
2341.46	9.43677
2342.87	8.78858
2344.28	9.09427
2345.69	8.58039
2347.1	8.91198
2348.51	9.12977
2349.92	8.56538
2351.33	8.71318
2352.74	8.78973
2354.15	9.10987
2355.55	9.57682
2356.96	9.3398
2358.37	9.03879
2359.78	8.82471
2361.19	9.34605
2362.59	10.0143
2364	10.3142
2365.41	10.9959
2366.81	10.9703
2368.22	10.648
2369.62	10.6741
2371.03	10.4859
2372.44	9.7451
2373.84	9.55776
2375.24	8.42992
2376.65	7.90559
2378.05	7.5858
2379.46	6.66418
2380.86	5.82377
2382.26	5.42377
2383.67	4.60962
2385.07	4.38384
2386.47	3.92163
2387.88	4.14721
2389.28	3.73299
2390.68	3.60717
2392.08	3.94904
2393.48	3.80732
2394.89	3.79233
2396.29	3.53322
2397.69	3.57013
2399.09	3.45897
2400.49	2.83416
2401.89	2.5828
2403.29	2.11292
2404.69	1.63946
2406.09	1.43657
2407.48	1.00959
2408.88	1.33372
2410.28	1.34283
2411.68	1.07266
2413.08	1.18994
2414.48	1.39116
2415.87	1.29367
2417.27	1.87707
2418.67	2.79959
2420.06	3.1764
2421.46	3.45581
2422.86	3.96837
2424.25	4.28389
2425.65	4.41505
2427.04	5.02624
2428.44	4.83541
2429.83	4.67893
2431.23	4.8043
2432.62	4.84972
2434.02	4.92977
2435.41	5.11321
2436.81	4.5908
2438.2	5.0771
2439.59	4.40844
2440.99	3.72258
2442.38	3.90986
2443.77	4.75823
2445.16	4.56235
2446.56	5.24197
2447.95	4.96233
2449.34	5.05587
2450.73	4.82833
2452.12	5.1763
2453.51	5.4817
2454.9	5.59821
2456.29	5.77553
2457.68	5.61394
2459.07	5.50625
2460.46	5.62147
2461.85	5.20224
2463.24	5.48732
2464.63	5.41349
2466.02	5.28662
2467.4	5.37086
2468.79	5.17197
2470.18	4.99855
2471.57	5.13192
2472.95	5.105
2474.34	5.42552
2475.73	5.49635
2477.12	5.56105
2478.5	5.4066
2479.89	5.54523
2481.27	5.25978
2482.66	5.28116
2484.04	4.72052
2485.43	4.59558
2486.81	3.99112
2488.2	4.02349
2489.58	3.35141
2490.97	2.55576
2492.35	2.09881
2493.73	1.77326
2495.12	1.66887
2496.5	1.66618
2497.88	0.833932
2499.27	0.821383
2500.65	1.12144
2502.03	0.883363
2503.41	0.411309
2504.79	0.0883962
2506.17	-0.176787
2507.56	0.374722
2508.94	-0.0652032
2510.32	0.659059
2511.7	1.14342
2513.08	0.556138
2514.46	0.65619
2515.84	1.03734
2517.22	1.04251
2518.59	1.20497
2519.97	0.930646
2521.35	1.99286
2522.73	2.51372
2524.11	2.74926
2525.49	3.02308
2526.86	3.53423
2528.24	3.89567
2529.62	3.86374
2530.99	4.23153
2532.37	4.59315
2533.75	4.63948
2535.12	4.59584
2536.5	5.00562
2537.88	4.93652
2539.25	4.69394
2540.63	4.7543
2542	4.92137
2543.38	4.67739
2544.75	4.4716
2546.12	4.24679
2547.5	3.6485
2548.87	3.39861
2550.24	2.49787
2551.62	1.73964
2552.99	1.84937
2554.36	2.12784
2555.74	2.18839
2557.11	2.63403
2558.48	2.00974
2559.85	1.97989
2561.22	2.07667
2562.59	2.77246
2563.96	2.60606
2565.34	2.55936
2566.71	2.40937
2568.08	2.09786
2569.45	2.16952
2570.82	2.11215
2572.18	2.1689
2573.55	2.00655
2574.92	1.97941
2576.29	2.08352
2577.66	1.82182
2579.03	2.06807
2580.4	2.13625
2581.77	2.27097
2583.13	3.49135
2584.5	3.59841
2585.87	3.35729
2587.23	2.84006
2588.6	3.00572
2589.97	3.47439
2591.33	3.2603
2592.7	3.24388
2594.06	3.09486
2595.43	2.83838
2596.79	2.51848
2598.16	2.5635
2599.52	2.55779
2600.89	2.30546
2602.25	2.26069
2603.62	2.04177
2604.98	2.24351
2606.34	1.79607
2607.71	1.41517
2609.07	1.41465
2610.43	1.6989
2611.79	1.42797
2613.16	1.58365
2614.52	1.38729
2615.88	1.51472
2617.24	1.47631
2618.6	1.47221
2619.96	2.26379
2621.32	2.33272
2622.68	2.49908
2624.04	2.45099
2625.4	2.52256
2626.76	2.72247
2628.12	3.48669
2629.48	3.55709
2630.84	3.97239
2632.2	3.66302
2633.56	4.08719
2634.92	4.24121
2636.28	4.54717
2637.63	5.18026
2638.99	5.06685
2640.35	5.05998
2641.71	5.58271
2643.06	6.12231
2644.42	6.78512
2645.77	6.84172
2647.13	6.71376
2648.49	6.88436
2649.84	7.06357
2651.2	6.97805
2652.55	6.44829
2653.91	6.24353
2655.26	6.3453
2656.62	6.35612
2657.97	6.50162
2659.33	6.57807
2660.68	6.39503
2662.03	6.25892
2663.39	6.29694
2664.74	6.13788
2666.09	6.12245
2667.44	5.50316
2668.8	5.33821
2670.15	5.1619
2671.5	4.97983
2672.85	4.59835
2674.2	3.94756
2675.55	3.78751
2676.91	3.83277
2678.26	3.61569
2679.61	3.28052
2680.96	2.61919
2682.31	2.35172
2683.66	2.1451
2685	2.34849
2686.35	2.67175
2687.7	2.86408
2689.05	2.56485
2690.4	3.41394
2691.75	3.37772
2693.1	3.79273
2694.44	3.84492
2695.79	4.02764
2697.14	4.07818
2698.49	4.17318
2699.83	4.08107
2701.18	4.82719
2702.52	5.19895
2703.87	5.39772
2705.22	5.69317
2706.56	5.99404
2707.91	6.56828
2709.25	7.05521
2710.6	7.00366
2711.94	7.10578
2713.29	7.04543
2714.63	7.46749
2715.97	7.77097
2717.32	8.41464
2718.66	8.62454
2720.01	9.0961
2721.35	9.32591
2722.69	9.42658
2724.03	9.25686
2725.38	10.0931
2726.72	10.0968
2728.06	10.0305
2729.4	10.1057
2730.74	10.2158
2732.08	10.3681
2733.42	10.6965
2734.76	10.5625
2736.1	10.9147
2737.44	10.5176
2738.78	10.1204
2740.12	9.73815
2741.46	9.47666
2742.8	9.16814
2744.14	8.79712
2745.48	8.03869
2746.82	7.7674
2748.16	7.24734
2749.49	7.35633
2750.83	7.33988
2752.17	7.51245
2753.51	7.23357
2754.84	7
2756.18	6.78634
2757.52	6.47122
2758.85	5.64664
2760.19	5.60359
2761.53	5.26974
2762.86	4.76929
2764.2	4.47826
2765.53	4.95082
2766.87	4.93984
2768.2	4.95779
2769.54	4.07232
2770.87	3.66589
2772.2	4.16393
2773.54	4.26729
2774.87	3.97572
2776.2	3.76839
2777.54	3.032
2778.87	3.37338
2780.2	3.14983
2781.53	3.28067
2782.87	3.42584
2784.2	3.4216
2785.53	3.04016
2786.86	2.88716
2788.19	2.71032
2789.52	2.87534
2790.85	2.73967
2792.18	2.90655
2793.51	2.73263
2794.84	2.75573
2796.17	2.7872
2797.5	2.81139
2798.83	2.29794
2800.16	1.88892
2801.49	1.65205
2802.82	1.13374
2804.15	0.599637
2805.47	0.51863
2806.8	-0.351479
2808.13	-0.588852
2809.46	-1.26016
2810.78	-1.65334
2812.11	-2.02571
2813.44	-1.91658
2814.76	-2.02231
2816.09	-1.90486
2817.42	-1.92129
2818.74	-1.53023
2820.07	-1.5955
2821.39	-1.28085
2822.72	-0.91989
2824.04	-0.35361
2825.37	0.897825
2826.69	2.36338
2828.02	3.47604
2829.34	4.7648
2830.66	6.47292
2831.99	8.07004
2833.31	9.54442
2834.63	10.7269
2835.96	12.2684
2837.28	13.8095
2838.6	15.8848
2839.92	17.3528
2841.24	18.8655
2842.57	21.2416
2843.89	23.5643
2845.21	26.8781
2846.53	29.2973
2847.85	32.4964
2849.17	35.2333
2850.49	37.7328
2851.81	41.0001
2853.13	44.0549
2854.45	46.8141
2855.77	50.0385
2857.09	52.7321
2858.41	55.7284
2859.72	58.6971
2861.04	60.8541
2862.36	63.5676
2863.68	65.9059
2865	68.124
2866.31	71.1945
2867.63	73.4413
2868.95	75.3172
2870.26	77.2726
2871.58	78.8066
2872.9	80.1501
2874.21	81.8313
2875.53	83.0347
2876.84	84.2501
2878.16	85.7686
2879.47	86.9947
2880.79	88.2893
2882.1	88.9386
2883.42	90.633
2884.73	91.6477
2886.05	92.6175
2887.36	94.0023
2888.67	95.5959
2889.99	96.71
2891.3	98.4631
2892.61	99.5186
2893.92	101.46
2895.24	103.204
2896.55	104.792
2897.86	106.719
2899.17	108.498
2900.48	110.101
2901.79	112.384
2903.11	114.932
2904.42	118.452
2905.73	121.931
2907.04	125.766
2908.35	130.435
2909.66	134.147
2910.97	137.978
2912.27	142.015
2913.58	146.031
2914.89	149.964
2916.2	153.994
2917.51	157.14
2918.82	161.027
2920.13	163.86
2921.43	167.302
2922.74	169.751
2924.05	172.148
2925.35	174.135
2926.66	176.024
2927.97	177.652
2929.27	178.939
2930.58	179.668
2931.89	180.572
2933.19	180.325
2934.5	179.51
2935.8	178.836
2937.11	178.109
2938.41	176.911
2939.72	175.025
2941.02	173.213
2942.32	170.692
2943.63	168.38
2944.93	165.386
2946.24	162.741
2947.54	159.457
2948.84	156.849
2950.14	152.944
2951.45	149.969
2952.75	146.647
2954.05	143.434
2955.35	139.671
2956.65	136.436
2957.95	133.021
2959.26	129.795
2960.56	126.336
2961.86	122.462
2963.16	118.606
2964.46	115.555
2965.76	112.839
2967.06	109.985
2968.36	106.803
2969.66	104.137
2970.96	101.717
2972.25	99.0288
2973.55	96.0037
2974.85	92.6631
2976.15	89.5414
2977.45	87.1147
2978.74	84.1967
2980.04	81.394
2981.34	78.2372
2982.64	74.9383
2983.93	72.6026
2985.23	68.908
2986.52	65.9964
2987.82	62.7279
2989.12	59.7408
2990.41	56.6328
2991.71	53.8649
2993	51.1409
2994.3	48.8242
2995.59	45.9739
2996.89	43.4225
2998.18	40.9662
2999.48	38.0911
3000.77	36.1178
3002.06	33.8255
3003.36	31.4935
3004.65	29.0679
3005.94	26.4728
3007.23	24.1425
3008.53	22.7528
3009.82	20.9045
3011.11	19.6083
3012.4	17.466
3013.69	16.149
3014.99	14.6662
3016.28	13.5881
3017.57	12.5847
3018.86	11.7434
3020.15	10.794
3021.44	10.0775
3022.73	9.45318
3024.02	8.42493
3025.31	7.72687
3026.6	6.72859
3027.89	6.25693
3029.18	6.56648
3030.46	6.09909
3031.75	5.61033
3033.04	4.90871
3034.33	5.77918
3035.62	5.72717
3036.9	5.67543
3038.19	5.63272
3039.48	5.45983
3040.76	5.67104
3042.05	6.12974
3043.34	6.32035
3044.62	7.06955
3045.91	7.51121
3047.19	8.2685
3048.48	9.01698
3049.77	9.66444
3051.05	9.89143
3052.34	10.5256
3053.62	10.8201
3054.9	10.7551
3056.19	11.1018
3057.47	10.8842
3058.76	10.7849
3060.04	10.2804
3061.32	10.0929
3062.61	9.70681
3063.89	9.53424
3065.17	9.24363
3066.45	8.66642
3067.74	8.29294
3069.02	7.82931
3070.3	7.3419
3071.58	7.41442
3072.86	6.98312
3074.14	6.37111
3075.42	5.44896
3076.7	5.0289
3077.99	5.01272
3079.26	4.71453
3080.54	4.48837
3081.82	4.02285
3083.1	3.86647
3084.38	3.56239
3085.66	2.90322
3086.94	2.72127
3088.22	2.14556
3089.5	1.79226
3090.78	1.4927
3092.05	1.26063
3093.33	1.16505
3094.61	0.806619
3095.89	1.10078
3097.16	1.02114
3098.44	1.45805
3099.72	1.19846
3100.99	0.828508
3102.27	0.777863
3103.54	0.833615
3104.82	1.43416
3106.1	1.71088
3107.37	2.26826
3108.65	2.26664
3109.92	2.08278
3111.2	2.22876
3112.47	2.13628
3113.74	1.8734
3115.02	1.2743
3116.29	1.25574
3117.56	0.358259
3118.84	0.0831165
3120.11	0.164828
3121.38	-0.0535295
3122.66	0.0948603
3123.93	0.0483498
3125.2	0.0756954
3126.47	-0.0478966
3127.74	0.334333
3129.01	0.0347297
3130.29	0.274668
3131.56	0.771707
3132.83	0.824163
3134.1	0.577934
3135.37	0.549207
3136.64	0.671146
3137.91	0.99093
3139.18	1.11259
3140.45	2.09154
3141.72	2.4801
3142.99	3.05334
3144.26	3.75146
3145.52	4.58106
3146.79	5.2076
3148.06	6.51287
3149.33	8.65058
