#Acq. time (s)=	45
#Accumulations=	2
#Range (cm-¹)=	200...3150
#Windows=	2
#Auto scanning=	Off
#Autofocus=	Off
#Macrospot=	Off
#AutoExposure=	Off
#Spike filter=	Multiple accum.
#Delay time (s)=	0
#Binning=	1
#Readout mode=	Signal
#DeNoise=	Off
#ICS correction=	On
#Dark correction=	Off
#Inst. Process=	Off
#Detector Gain=	Best Dynamic Range
#Detector ADC=	20 kHz       
#Detector temperature (°C)=	-69.85
#Instrument=	LabRAM HR Evol
#Detector=	Synapse
#Objective=	x100
#Grating=	600 gr/mm
#ND Filter=	100%
#Laser (nm)=	532 
#Hole=	100.021
#Range=	Auto
#Laser Pol.=	No
#Raman. Pol.=	No
#Laser Pol. (°)=	-0.0007625
#Raman Pol. (°)=	89.9995
#Collection=	Microscope
#StageXY=	Marzhauser
#StageZ=	Marzhauser
#X (µm)=	-5128.4
#Y (µm)=	1529.7
#Z (µm)=	63.4
#Full time(mm:ss)=	3:18
#Project=	
#Sample=	
#Site=	
#Title=	Thy_50_12_39_2x_45s_532 nm_x100_100%_600 gr_mm
#Remark=	
#Date=	07.07.2022 12:07
#Acquired=	07.07.2022 12:07:46
#Base:Fit=	10.08.2022 10:04:30
#Base:Sub=	10.08.2022 10:04:45
#Filter:Polynom=	16.08.2022 10:20:25
#AxisType[0]=Intens
#AxisUnit[0]=Cnt
#AxisType[1]=Spectr
#AxisUnit[1]=1/cm
200.43	45.9324
202.246	40.9301
204.061	36.506
205.875	32.3559
207.688	28.6837
209.501	25.8448
211.316	23.6561
213.129	22.4711
214.941	20.6321
216.753	18.7734
218.566	16.71
220.377	14.9475
222.188	14.3183
223.999	13.7257
225.809	13.8422
227.618	13.7736
229.43	12.6817
231.239	12.2555
233.047	11.9389
234.855	11.3111
236.663	10.4225
238.471	9.08265
240.278	8.72109
242.087	8.00472
243.894	7.64122
245.7	7.55994
247.506	7.53741
249.311	7.63455
251.116	7.43409
252.921	7.61471
254.725	8.13007
256.529	8.11551
258.333	8.79752
260.136	9.17229
261.939	8.29302
263.744	7.54616
265.546	8.24339
267.348	8.05484
269.15	7.97426
270.951	6.22781
272.752	5.02558
274.552	5.01492
276.353	5.59706
278.152	5.6168
279.952	6.06642
281.751	5.8907
283.55	5.55158
285.348	5.66511
287.146	5.94734
288.942	7.96936
290.739	7.8148
292.536	8.25952
294.333	10.277
296.129	11.898
297.925	13.1404
299.721	15.0534
301.516	15.6655
303.311	16.3386
305.106	15.9726
306.9	16.3705
308.694	16.8607
310.486	17.0895
312.279	17.343
314.072	17.6454
315.864	18.3183
317.656	17.9851
319.448	17.4525
321.24	17.9724
323.029	17.0907
324.819	16.8197
326.61	17.3985
328.4	17.1684
330.19	17.2358
331.977	17.1818
333.766	17.8447
335.555	18.0416
337.343	18.5898
339.131	17.5273
340.917	17.0204
342.704	16.7674
344.491	16.9387
346.277	16.7393
348.062	17.3795
349.848	16.5609
351.633	16.1089
353.416	15.9678
355.201	15.5192
356.986	14.8179
358.77	14.8331
360.552	13.9125
362.335	14.2693
364.118	14.7449
365.899	14.1805
367.682	13.7209
369.464	13.5454
371.243	13.8977
373.025	13.604
374.806	13.7656
376.585	14.0168
378.365	14.6308
380.143	14.5246
381.923	15.1566
383.702	15.9688
385.479	15.0432
387.258	14.5941
389.034	14.5489
390.812	13.3146
392.59	12.4663
394.365	11.3358
396.142	10.6773
397.916	9.39969
399.693	8.6457
401.467	9.41485
403.242	10.6283
405.015	10.5162
406.79	10.7182
408.565	11.0553
410.337	12.0717
412.111	12.2663
413.882	13.1685
415.656	13.5604
417.426	12.5496
419.197	13.9278
420.969	15.0808
422.739	15.7277
424.51	16.4729
426.279	16.5595
428.05	15.8746
429.819	17.0182
431.589	17.0314
433.356	17.7477
435.124	18.028
436.893	18.8432
438.66	18.8855
440.428	18.6479
442.194	19.1329
443.96	18.8878
445.727	19.7126
447.492	20.3153
449.259	20.1667
451.023	20.0259
452.787	20.1835
454.553	19.9485
456.316	19.7781
458.079	19.2121
459.844	19.5012
461.606	18.4528
463.368	19.7656
465.132	20.5485
466.893	20.7043
468.654	20.9753
470.415	20.1429
472.177	20.8003
473.937	21.2557
475.696	22.2045
477.456	22.6517
479.217	22.5307
480.975	21.7133
482.733	21.5954
484.491	22.291
486.251	22.9653
488.008	23.9077
489.765	25.0822
491.522	25.5845
493.278	25.3289
495.036	25.9615
496.791	26.3096
498.546	26.7835
500.301	26.1585
502.056	26.013
503.81	26.128
505.566	25.8082
507.319	26.8164
509.073	25.7001
510.825	25.7379
512.578	25.6044
514.33	25.3617
516.082	25.2091
517.833	24.4604
519.587	23.6806
521.337	23.7295
523.088	24.433
524.838	24.5584
526.588	24.0954
528.337	22.8982
530.087	22.5184
531.835	20.9783
533.584	20.5771
535.332	20.8368
537.08	19.7113
538.827	19.3057
540.574	19.9439
542.321	19.411
544.068	18.3656
545.814	18.5298
547.56	18.3914
549.305	18.1494
551.05	18.4222
552.795	17.2737
554.54	15.7027
556.284	15.1458
558.027	14.1503
559.771	14.5486
561.514	13.4012
563.257	12.6281
564.999	11.3111
566.742	10.2663
568.481	9.90547
570.223	9.67678
571.964	9.83133
573.705	9.96669
575.445	9.65032
577.185	8.97371
578.925	9.01002
580.665	8.88733
582.402	9.25452
584.141	9.76942
585.879	9.46397
587.617	8.64294
589.355	8.11507
591.092	7.3933
592.828	6.48374
594.564	6.71367
596.301	5.57174
598.037	6.5022
599.773	7.34245
601.506	7.44009
603.242	7.43304
604.976	7.13054
606.711	7.7228
608.443	8.05467
610.177	8.4306
611.91	7.41501
613.644	7.26949
615.374	7.0897
617.107	8.08617
618.839	8.35524
620.569	8.84956
622.3	9.93803
624.032	9.91524
625.761	10.0854
627.491	10.4952
629.221	9.36499
630.949	9.51351
632.679	9.48574
634.408	8.77285
636.135	8.86256
637.863	8.69151
639.592	8.42569
641.318	8.4843
643.045	8.71778
644.77	9.25684
646.497	9.61061
648.224	10.4361
649.948	10.7704
651.674	10.6886
653.398	11.226
655.123	12.1455
656.846	13.085
658.57	13.1828
660.293	13.8565
662.017	13.4263
663.738	13.8571
665.462	15.361
667.185	15.8217
668.905	17.25
670.628	18.3355
672.348	18.6087
674.067	18.6107
675.789	19.2793
677.508	19.8767
679.228	20.8372
680.947	22.4465
682.667	23.845
684.385	26.6011
686.104	27.4999
687.821	27.408
689.538	28.6213
691.256	29.4545
692.972	30.0268
694.69	31.0878
696.406	32.5096
698.121	34.5725
699.837	35.8351
701.552	37.2991
703.268	38.5729
704.982	39.9833
706.695	41.5471
708.41	42.4803
710.123	43.9187
711.836	45.0932
713.55	46.3634
715.262	47.0426
716.973	47.793
718.685	48.1691
720.398	48.7635
722.108	49.4068
723.818	49.5016
725.53	49.7618
727.24	50.1082
728.949	50.1013
730.658	51.1046
732.369	51.3764
734.077	50.9071
735.785	50.413
737.493	51.0992
739.2	52.6578
740.909	53.1106
742.616	53.5205
744.322	52.9215
746.028	54.2845
747.734	55.2092
749.441	56.8431
751.146	57.3757
752.851	58.3238
754.555	59.7493
756.26	61.0362
757.963	61.4587
759.667	62.5231
761.372	63.4084
763.075	63.58
764.777	64.5984
766.479	65.166
768.181	65.2294
769.883	66.1081
771.584	65.9902
773.285	66.086
774.986	66.6187
776.686	66.6885
778.386	66.9904
780.085	68.314
781.785	69.9116
783.484	70.8531
785.182	71.1359
786.881	72.7678
788.579	74.1968
790.276	75.6222
791.974	76.9145
793.671	77.9948
795.367	79.0993
797.064	79.2624
798.76	79.6629
800.456	79.456
802.151	78.0029
803.846	78.6002
805.541	78.8088
807.236	78.8845
808.93	78.2483
810.624	78.3392
812.317	78.0922
814.01	78.4077
815.703	78.9555
817.394	78.5352
819.086	78.612
820.778	79.3377
822.47	79.1056
824.161	78.9646
825.852	78.3647
827.543	78.7318
829.231	77.9438
830.921	78.3427
832.611	78.6247
834.3	78.0999
835.989	77.4801
837.676	77.5695
839.364	77.5518
841.053	76.8365
842.74	74.5445
844.426	72.6628
846.113	70.58
847.8	68.5433
849.486	66.7232
851.171	64.3991
852.857	62.2066
854.542	61.3862
856.227	59.1673
857.911	57.5282
859.595	56.5042
861.279	55.5195
862.961	54.7926
864.645	54.5892
866.329	54.1191
868.01	53.5969
869.692	53.7543
871.375	53.0487
873.055	52.7309
874.737	52.1245
876.418	50.6981
878.097	49.8322
879.778	47.987
881.457	46.8961
883.137	46.9901
884.817	46.6214
886.495	45.9079
888.174	45.6829
889.851	45.1146
891.53	44.7781
893.206	44.1728
894.884	45.4795
896.562	44.9426
898.237	46.006
899.914	46.7111
901.589	46.3588
903.265	46.6064
904.94	46.4318
906.615	46.7743
908.289	47.7431
909.964	48.3879
911.637	48.0216
913.31	47.5397
914.984	47.5773
916.656	47.1839
918.33	46.5482
920.001	46.432
921.674	46.3926
923.345	45.6018
925.015	44.6081
926.687	44.1017
928.357	44.2167
930.028	44.4638
931.698	43.8422
933.366	43.0877
935.037	42.7676
936.705	42.7637
938.373	42.7687
940.043	41.7868
941.71	40.5341
943.379	40.213
945.046	39.5187
946.712	40.0789
948.378	41.3631
950.046	41.367
951.711	42.4859
953.376	41.0545
955.043	40.2351
956.708	40.3584
958.372	39.0788
960.036	37.8226
961.701	38.5194
963.364	37.3498
965.027	38.991
966.69	39.8092
968.354	40.2607
970.016	39.8175
971.678	40.2479
973.339	41.332
975	40.9974
976.661	40.669
978.324	40.4994
979.984	38.6455
981.644	39.1811
983.303	38.2366
984.962	37.6501
986.621	38.3555
988.282	38.0463
989.94	37.4251
991.598	36.111
993.256	34.1887
994.913	33.2721
996.57	33.6436
998.227	33.8084
999.884	33.9823
1001.54	34.5791
1003.2	34.5429
1004.85	34.6737
1006.51	34.2931
1008.16	34.246
1009.82	34.7346
1011.47	35.9743
1013.12	35.5508
1014.78	35.7379
1016.43	34.9056
1018.08	34.8181
1019.74	34.8605
1021.39	34.7448
1023.04	35.5681
1024.69	36.3702
1026.34	37.6792
1028	38.6292
1029.65	40.4515
1031.3	41.6085
1032.95	41.7368
1034.6	41.7093
1036.25	40.7148
1037.9	41.8526
1039.55	41.4545
1041.19	41.6136
1042.84	41.9662
1044.49	43.783
1046.14	45.5443
1047.79	47.4006
1049.43	47.964
1051.08	47.3498
1052.73	46.8625
1054.37	46.2863
1056.02	44.7061
1057.66	43.5085
1059.31	42.8422
1060.95	43.1425
1062.6	42.3886
1064.24	42.1644
1065.88	41.6998
1067.53	41.3457
1069.17	39.9543
1070.81	38.848
1072.46	37.084
1074.1	35.4173
1075.74	35.972
1077.38	36.372
1079.02	36.6665
1080.66	35.9824
1082.3	35.0882
1083.94	34.4041
1085.58	33.5011
1087.22	32.213
1088.86	31.1829
1090.5	30.7278
1092.14	31.2061
1093.78	31.0823
1095.42	29.3873
1097.05	29.0836
1098.69	27.616
1100.33	27.3268
1101.97	27.3414
1103.6	26.5725
1105.24	25.992
1106.87	25.9272
1108.51	25.1053
1110.15	24.7572
1111.78	25.4401
1113.41	25.6297
1115.05	24.0266
1116.68	23.568
1118.31	23.2987
1119.95	22.484
1121.58	21.408
1123.21	22.1409
1124.85	21.5563
1126.48	21.8661
1128.11	20.5819
1129.74	18.628
1131.37	16.9572
1133	15.5776
1134.63	15.5574
1136.26	13.9201
1137.89	12.5926
1139.52	12.437
1141.15	10.9069
1142.78	10.3782
1144.41	7.99299
1146.04	7.78325
1147.66	7.85127
1149.29	7.25691
1150.92	6.73506
1152.55	7.51956
1154.17	6.55868
1155.8	6.91915
1157.43	7.01004
1159.05	5.2233
1160.68	5.19637
1162.3	4.27134
1163.93	4.47951
1165.55	4.3637
1167.17	4.39021
1168.8	4.13748
1170.42	4.6192
1172.05	5.44594
1173.67	5.61343
1175.29	5.05699
1176.91	5.13405
1178.54	5.87449
1180.16	6.04391
1181.78	7.38619
1183.4	8.43973
1185.02	9.15182
1186.64	9.81942
1188.26	10.8318
1189.88	10.735
1191.5	12.4367
1193.12	13.7447
1194.74	13.2964
1196.36	11.7612
1197.97	12.5137
1199.59	13.26
1201.21	13.3877
1202.83	14.3885
1204.44	14.9421
1206.06	14.5406
1207.68	14.3895
1209.29	14.9818
1210.91	16.593
1212.52	17.8323
1214.14	19.4058
1215.75	20.4931
1217.37	21.3548
1218.98	22.7995
1220.6	24.4079
1222.21	25.3289
1223.82	27.7183
1225.44	29.237
1227.05	32.2045
1228.66	34.243
1230.27	35.504
1231.88	37.3254
1233.49	38.2823
1235.1	39.2115
1236.72	40.6587
1238.33	41.7652
1239.94	44.3158
1241.55	47.0101
1243.16	47.8314
1244.76	49.7481
1246.37	50.0521
1247.98	51.6169
1249.59	52.8326
1251.2	54.7511
1252.8	56.2629
1254.41	57.4504
1256.02	59.6918
1257.63	61.9876
1259.23	63.5769
1260.84	65.1108
1262.44	67.4286
1264.05	68.2139
1265.66	69.8579
1267.26	69.4939
1268.87	71.2498
1270.47	72.6257
1272.07	73.4062
1273.68	73.7005
1275.28	74.0632
1276.88	74.8372
1278.48	76.4151
1280.09	78.7911
1281.69	79.5405
1283.29	80.0857
1284.89	79.9305
1286.49	80.7378
1288.09	81.4812
1289.69	83.3743
1291.3	83.2616
1292.9	83.7922
1294.49	84.7777
1296.09	85.6479
1297.69	85.9979
1299.29	86.6988
1300.89	85.6143
1302.49	85.6817
1304.09	85.9669
1305.68	85.8838
1307.28	86.6559
1308.88	86.4683
1310.47	86.4548
1312.07	86.3498
1313.66	85.8228
1315.26	85.8269
1316.86	85.1218
1318.45	85.2154
1320.05	85.4177
1321.64	84.3291
1323.23	83.3176
1324.83	83.8302
1326.42	83.8826
1328.01	84.2593
1329.61	83.2278
1331.2	83.0043
1332.79	82.0156
1334.38	82.0022
1335.98	81.8198
1337.57	81.2083
1339.16	80.275
1340.75	80.2087
1342.34	79.299
1343.93	77.4304
1345.52	77.1361
1347.11	74.8344
1348.7	75.1096
1350.29	74.1554
1351.87	72.0254
1353.46	70.7763
1355.05	70.1639
1356.64	68.8443
1358.23	67.8323
1359.81	67.5721
1361.4	66.1074
1362.99	64.0191
1364.57	61.213
1366.16	60.5399
1367.74	59.9953
1369.33	58.3918
1370.91	57.0201
1372.5	56.9181
1374.08	56.0273
1375.67	54.7448
1377.25	53.4968
1378.83	51.6464
1380.42	50.7854
1382	51.1519
1383.58	50.9976
1385.16	51.4625
1386.75	52.3771
1388.33	52.2047
1389.91	52.4489
1391.49	51.7689
1393.07	51.8141
1394.65	51.2216
1396.23	51.4213
1397.81	51.874
1399.39	51.5901
1400.97	52.0025
1402.55	52.3253
1404.13	53.1426
1405.7	53.1881
1407.28	53.7168
1408.86	54.3757
1410.44	56.1361
1412.01	57.259
1413.59	58.7866
1415.17	60.2851
1416.74	60.965
1418.32	62.7559
1419.89	64.8128
1421.47	66.5459
1423.05	69.2451
1424.62	71.8372
1426.19	73.5136
1427.77	76.8875
1429.34	79.8141
1430.92	82.0782
1432.49	85.0851
1434.06	88.2791
1435.63	90.6918
1437.2	92.8458
1438.78	94.4376
1440.35	95.1715
1441.92	95.2262
1443.49	96.2924
1445.06	98.6687
1446.63	99.0577
1448.2	98.9373
1449.77	99.5428
1451.34	99.5375
1452.91	98.6521
1454.48	97.81
1456.05	96.6631
1457.62	95.1759
1459.18	93.6478
1460.75	91.284
1462.32	88.7847
1463.89	86.1001
1465.45	83.0894
1467.02	78.7858
1468.59	75.0417
1470.15	71.2483
1471.72	67.7302
1473.28	63.653
1474.85	60.9719
1476.41	57.3245
1477.98	53.8328
1479.54	50.4071
1481.11	46.4468
1482.67	42.8572
1484.23	38.9291
1485.8	36.976
1487.36	33.6093
1488.92	30.992
1490.48	28.1765
1492.05	26.3424
1493.61	25.0016
1495.17	23.9476
1496.73	24.4995
1498.29	22.5758
1499.85	21.9082
1501.41	22.0735
1502.97	21.7259
1504.53	22.6107
1506.09	23.2139
1507.65	23.6257
1509.2	23.3368
1510.76	23.4346
1512.32	24.0637
1513.88	24.2588
1515.44	24.1694
1516.99	24.4773
1518.55	25.3364
1520.1	26.9554
1521.66	28.9172
1523.22	29.8929
1524.77	31.234
1526.33	32.6859
1527.88	33.6867
1529.44	33.6456
1530.99	33.896
1532.55	34.7089
1534.1	35.0583
1535.65	36.5961
1537.21	37.1222
1538.76	39.6398
1540.31	41.3008
1541.86	42.6736
1543.42	44.6009
1544.97	46.7121
1546.52	48.6996
1548.07	50.0757
1549.62	52.0234
1551.17	53.6387
1552.72	54.9623
1554.27	55.8889
1555.82	57.6126
1557.37	58.6444
1558.92	59.9545
1560.47	61.5628
1562.02	63.5914
1563.57	66.429
1565.11	67.5796
1566.66	68.8549
1568.21	69.9863
1569.75	71.4187
1571.3	72.8992
1572.85	74.4655
1574.39	75.5588
1575.94	75.6753
1577.49	77.7617
1579.03	79.0817
1580.58	79.9954
1582.12	80.6536
1583.67	80.5233
1585.21	80.6819
1586.75	81.0428
1588.3	81.3721
1589.84	81.3715
1591.38	81.0771
1592.93	81.2837
1594.47	81.3125
1596.01	81.1878
1597.55	80.9703
1599.09	79.6577
1600.63	78.2072
1602.18	77.58
1603.72	77.1387
1605.26	76.2647
1606.8	75.7245
1608.34	76.6463
1609.87	75.5999
1611.41	76.1898
1612.95	76.3742
1614.49	76.1998
1616.03	76.7943
1617.57	75.6491
1619.11	74.3361
1620.64	75.0745
1622.18	75.2877
1623.72	75.079
1625.25	76.206
1626.79	77.6249
1628.32	77.492
1629.86	77.447
1631.4	78.6512
1632.93	79.6553
1634.47	80.9064
1636	82.2396
1637.53	83.7506
1639.07	85.2816
1640.6	85.7494
1642.14	86.2607
1643.67	86.0913
1645.2	87.8059
1646.73	88.3038
1648.27	88.5312
1649.8	89.1316
1651.33	88.8877
1652.86	88.1071
1654.39	87.8435
1655.92	87.2983
1657.45	86.3056
1658.98	85.3699
1660.51	84.5966
1662.04	84.1637
1663.57	82.6682
1665.1	80.7221
1666.63	79.081
1668.16	77.0317
1669.69	75.8165
1671.21	73.2772
1672.74	70.1483
1674.27	68.3865
1675.79	66.2572
1677.32	64.5137
1678.85	62.7712
1680.37	60.7161
1681.9	57.5439
1683.42	55.739
1684.95	52.8706
1686.47	49.6063
1688	48.4055
1689.52	45.7604
1691.05	42.6049
1692.57	40.4473
1694.1	37.8703
1695.62	36.603
1697.14	35.7838
1698.66	34.1822
1700.19	33.7267
1701.71	32.3518
1703.23	30.113
1704.75	28.6948
1706.27	27.7066
1707.79	27.0053
1709.32	25.8028
1710.83	24.7695
1712.35	22.6987
1713.88	21.0496
1715.39	19.9758
1716.91	18.1549
1718.43	18.023
1719.95	17.47
1721.47	16.7703
1722.99	15.2736
1724.5	14.6893
1726.02	14.2494
1727.54	13.1267
1729.06	12.7252
1730.57	12.4451
1732.09	11.831
1733.61	11.3862
1735.12	11.2995
1736.64	10.4039
1738.15	9.76978
1739.67	9.17453
1741.18	8.92942
1742.7	9.17248
1744.21	8.96072
1745.72	9.16388
1747.24	8.52245
1748.75	7.2015
1750.26	6.38942
1751.78	6.60557
1753.29	6.5566
1754.8	6.76441
1756.31	7.04815
1757.82	7.85552
1759.34	8.40652
1760.85	8.32778
1762.36	9.09532
1763.87	9.57856
1765.38	9.90539
1766.89	9.45628
1768.4	10.3819
1769.91	10.3694
1771.41	10.9772
1772.92	10.5355
1774.43	10.4195
1775.94	10.7122
1777.45	9.72572
1778.96	9.5499
1780.46	9.38629
1781.97	8.52705
1783.48	8.04486
1784.98	7.66287
1786.49	7.19569
1788	6.95279
1789.5	6.97331
1791.01	7.27581
1792.51	6.92491
1794.01	6.99737
1795.52	6.40516
1797.02	5.64249
1798.53	5.87043
1800.03	5.54906
1801.54	5.06522
1803.04	5.47826
1804.54	4.80497
1806.04	4.08894
1807.54	3.38089
1809.05	3.18505
1810.55	2.41164
1812.05	2.46625
1813.55	2.29243
1815.05	2.0846
1816.55	1.88489
1818.05	1.89967
1819.55	1.15337
1821.05	0.364486
1822.55	0.0422828
1824.05	-0.389232
1825.55	0.563018
1827.05	2.04007
1828.55	2.46633
1830.04	2.88694
1831.54	3.22215
1833.04	3.61427
1834.54	3.18876
1836.03	3.38778
1837.53	3.56836
1839.03	3.65164
1840.52	3.89889
1842.02	3.40157
1843.51	3.92402
1845.01	4.61241
1846.5	4.82491
1848	5.19031
1849.49	5.32456
1850.99	5.35756
1852.48	5.48758
1853.97	5.28859
1855.47	4.90179
1856.96	4.33041
1858.45	4.29644
1859.94	3.57807
1861.44	3.22731
1862.93	3.54934
1864.42	3.40109
1865.91	2.71585
1867.4	3.00111
1868.89	3.41399
1870.38	3.58614
1871.87	3.58089
1873.36	3.73258
1874.85	3.80287
1876.34	4.30664
1877.83	4.24609
1879.32	3.02031
1880.81	2.82121
1882.3	3.03694
1882.56	3.48637
1884.06	3.2495
1885.55	3.78156
1887.04	3.93001
1888.54	4.22114
1890.03	5.14023
1891.52	4.67009
1893.02	4.78064
1894.51	5.59686
1896	5.11344
1897.49	5.10632
1898.99	5.24965
1900.48	5.09861
1901.97	5.30244
1903.46	5.36718
1904.95	5.25418
1906.44	5.17256
1907.93	5.05447
1909.42	5.0854
1910.91	5.29252
1912.4	5.88729
1913.89	4.99382
1915.38	4.76242
1916.86	4.36513
1918.35	4.0009
1919.84	3.36678
1921.33	2.94841
1922.82	2.49404
1924.3	2.24723
1925.79	2.20195
1927.28	1.40814
1928.76	0.749128
1930.25	0.452945
1931.74	0.707547
1933.22	0.595815
1934.71	0.849569
1936.19	1.28973
1937.67	0.779998
1939.16	0.70302
1940.64	1.18184
1942.13	1.52221
1943.61	1.49716
1945.09	1.64306
1946.58	2.627
1948.06	2.68887
1949.54	2.18019
1951.03	1.78947
1952.51	1.51279
1953.99	2.25188
1955.47	3.08251
1956.95	2.89875
1958.43	3.08486
1959.91	3.48329
1961.39	3.66499
1962.87	4.16934
1964.35	4.47556
1965.83	4.54735
1967.31	4.28675
1968.79	4.32125
1970.27	3.30928
1971.75	4.53182
1973.22	4.80188
1974.7	4.67256
1976.18	5.01598
1977.66	5.46614
1979.13	4.57506
1980.61	4.20509
1982.09	4.01292
1983.56	3.98686
1985.04	3.62027
1986.52	3.31911
1987.99	2.50675
1989.47	2.60302
1990.94	2.92904
1992.41	3.63774
1993.89	3.52963
1995.36	4.30706
1996.84	4.60811
1998.31	4.26927
1999.78	4.58962
2001.26	4.4229
2002.73	4.59087
2004.2	5.56328
2005.67	5.79971
2007.15	6.16119
2008.62	6.26092
2010.09	5.76059
2011.56	5.49897
2013.03	5.57385
2014.5	5.62824
2015.97	6.62254
2017.44	6.52989
2018.91	6.74132
2020.38	6.76169
2021.85	6.30171
2023.32	6.25752
2024.79	6.96216
2026.25	7.01985
2027.72	7.49329
2029.19	8.07312
2030.66	8.87387
2032.13	9.13428
2033.59	9.43829
2035.06	10.3788
2036.53	10.8343
2037.99	10.7886
2039.46	10.9152
2040.92	10.249
2042.39	11.4263
2043.85	11.8334
2045.32	12.8622
2046.78	12.8666
2048.25	12.6154
2049.71	12.1165
2051.18	12.0601
2052.64	12.0575
2054.1	12.8043
2055.56	13.1375
2057.03	13.8374
2058.49	13.8762
2059.95	14.4375
2061.42	14.5355
2062.88	14.8062
2064.34	15.9558
2065.8	16.1527
2067.26	16.7616
2068.72	17.5998
2070.18	18.4413
2071.64	19.0406
2073.1	19.7301
2074.56	20.491
2076.02	22.2427
2077.48	23.8472
2078.94	24.4728
2080.39	26.22
2081.85	26.9666
2083.31	27.5808
2084.77	28.9068
2086.22	30.1359
2087.68	32.2072
2089.14	33.541
2090.6	34.3764
2092.05	35.6492
2093.51	37.1899
2094.96	38.6655
2096.42	40.5229
2097.87	42.7758
2099.33	44.8879
2100.78	46.8403
2102.24	48.9567
2103.69	50.3697
2105.15	51.5542
2106.6	53.9699
2108.05	55.5407
2109.51	57.9093
2110.96	59.6351
2112.41	61.4763
2113.86	63.3504
2115.32	65.4971
2116.77	66.4656
2118.22	68.3495
2119.67	69.7353
2121.12	70.5609
2122.57	72.3209
2124.02	74.72
2125.47	77.1873
2126.92	79.0743
2128.37	80.5572
2129.82	82.2681
2131.27	83.89
2132.72	85.567
2134.17	87.1992
2135.62	89.6737
2137.06	92.0739
2138.51	93.6051
2139.96	95.5889
2141.41	96.8823
2142.85	98.6003
2144.3	99.7537
2145.75	101.622
2147.19	104.417
2148.64	105.695
2150.09	106.632
2151.53	107.118
2152.97	107.994
2154.42	107.947
2155.86	108.371
2157.31	109.102
2158.75	109.843
2160.2	110.597
2161.64	111.136
2163.08	111.978
2164.53	111.959
2165.97	112.077
2167.41	112.353
2168.86	112.641
2170.3	112.093
2171.74	111.75
2173.18	110.602
2174.62	109.83
2176.06	109.618
2177.5	108.736
2178.94	108.367
2180.38	106.929
2181.82	106.454
2183.26	104.693
2184.7	103.895
2186.14	102.634
2187.58	100.92
2189.02	99.3406
2190.46	98.3047
2191.89	96.8967
2193.33	95.1347
2194.77	94.8729
2196.21	93.3655
2197.64	91.8981
2199.08	90.6843
2200.52	89.0131
2201.95	87.4989
2203.39	86.2293
2204.83	84.8071
2206.26	82.9889
2207.7	81.2824
2209.13	79.5231
2210.57	77.4911
2212	75.7072
2213.43	73.3837
2214.87	71.712
2216.3	70.126
2217.73	68.2043
2219.17	66.4441
2220.6	63.9812
2222.03	62.1099
2223.47	60.1525
2224.9	58.5508
2226.33	56.4086
2227.76	54.8707
2229.19	53.3765
2230.62	51.8935
2232.05	50.2651
2233.49	48.4902
2234.91	46.3653
2236.34	44.0821
2237.77	43.0333
2239.2	41.4329
2240.63	39.4707
2242.06	38.0299
2243.49	36.6536
2244.92	35.0134
2246.35	34.4776
2247.78	33.0676
2249.2	31.5056
2250.63	31.3426
2252.06	30.2477
2253.48	30.3233
2254.91	29.6381
2256.34	28.8597
2257.76	28.084
2259.19	27.0405
2260.61	26.5983
2262.04	25.8345
2263.46	25.1763
2264.89	24.5205
2266.31	24.4514
2267.74	23.524
2269.16	23.6402
2270.59	23.7857
2272.01	22.7456
2273.43	22.5336
2274.85	22.5364
2276.28	22.0698
2277.7	20.8638
2279.12	20.8838
2280.54	20.4436
2281.97	19.9861
2283.39	19.167
2284.81	18.5854
2286.23	18.642
2287.65	18.296
2289.07	18.0567
2290.49	17.9283
2291.91	16.9419
2293.33	16.526
2294.75	16.0886
2296.17	15.5035
2297.59	16.0134
2299.01	16.4583
2300.42	15.6422
2301.84	15.1969
2303.26	15.303
2304.68	14.8025
2306.1	14.3923
2307.51	14.7465
2308.93	14.6302
2310.35	13.8434
2311.76	13.5493
2313.18	13.5941
2314.59	13.365
2316.01	13.6101
2317.43	13.8996
2318.84	13.6096
2320.26	13.834
2321.67	14.1617
2323.08	13.6869
2324.5	13.355
2325.91	12.6473
2327.33	12.222
2328.74	11.7329
2330.15	10.974
2331.56	10.3082
2332.98	10.0723
2334.39	9.34915
2335.8	8.42902
2337.21	7.97695
2338.62	7.10207
2340.04	6.72439
2341.45	6.22251
2342.86	5.17092
2344.27	5.31292
2345.68	4.62967
2347.09	3.73873
2348.5	2.96079
2349.91	2.93723
2351.31	2.10294
2352.72	1.53681
2354.13	1.12458
2355.54	0.886803
2356.95	0.983148
2358.36	0.75436
2359.76	0.285651
2361.17	-0.648133
2362.58	-1.03757
2363.98	-0.971764
2365.39	-0.657645
2366.8	-0.167435
2368.21	0.539428
2369.61	-0.383137
2371.02	-0.82074
2372.42	-0.302195
2373.83	0.104683
2375.23	-0.232005
2376.64	0.352633
2378.04	1.32638
2379.44	1.65489
2380.85	2.71758
2382.25	3.19128
2383.66	4.28523
2385.06	4.75624
2386.46	5.35808
2387.86	5.7606
2389.26	6.55929
2390.67	6.73271
2392.07	6.97357
2393.47	7.07349
2394.87	7.27437
2396.27	7.75832
2397.67	7.81805
2399.07	7.76561
2400.47	8.0532
2401.87	7.94196
2403.27	7.83176
2404.67	7.24268
2406.07	7.26768
2407.47	7.95855
2408.87	7.53022
2410.27	8.38653
2411.67	8.62642
2413.07	8.75062
2414.46	8.99683
2415.86	8.25234
2417.26	7.63326
2418.66	8.04441
2420.05	7.67185
2421.45	7.17294
2422.84	6.98303
2424.24	6.6137
2425.64	5.77631
2427.03	5.81455
2428.43	4.61554
2429.82	4.0488
2431.22	4.24588
2432.61	4.7346
2434.01	5.44634
2435.4	5.81822
2436.79	5.89383
2438.19	6.31383
2439.58	5.90914
2440.97	6.21437
2442.37	6.51261
2443.76	6.91639
2445.15	7.52673
2446.54	8.00988
2447.93	8.46182
2449.33	9.03875
2450.72	8.7522
2452.11	8.28021
2453.5	8.3122
2454.89	8.4358
2456.28	8.09157
2457.67	7.75793
2459.06	7.41815
2460.45	6.96258
2461.84	6.54761
2463.23	6.70144
2464.62	6.70122
2466	6.43473
2467.39	5.58713
2468.78	5.31976
2470.17	5.1767
2471.55	4.48943
2472.94	4.32508
2474.33	3.94046
2475.72	3.74404
2477.1	3.71077
2478.49	3.36337
2479.87	3.26872
2481.26	3.22309
2482.65	3.04704
2484.03	2.74744
2485.42	2.42653
2486.8	2.34443
2488.19	2.52426
2489.57	2.10089
2490.95	2.05958
2492.34	1.95142
2493.72	1.51732
2495.1	2.03694
2496.49	3.03695
2497.87	3.04039
2499.25	3.69189
2500.63	4.84194
2502.02	4.75286
2503.4	4.86568
2504.78	4.92756
2506.16	5.61749
2507.54	5.63335
2508.92	5.38183
2510.3	5.59182
2511.68	5.62215
2513.06	5.97406
2514.44	6.16863
2515.82	6.3263
2517.2	6.87463
2518.58	7.09265
2519.96	6.2573
2521.34	6.35881
2522.72	6.7398
2524.1	6.67512
2525.47	5.81421
2526.85	5.69003
2528.23	6.25938
2529.6	6.09135
2530.98	4.98506
2532.36	4.52234
2533.74	3.88674
2535.11	3.25243
2536.49	3.22755
2537.86	3.86869
2539.24	3.69881
2540.61	3.14152
2541.99	3.92069
2543.36	3.71009
2544.74	4.03138
2546.11	4.7827
2547.49	4.94951
2548.86	4.85954
2550.23	5.18798
2551.61	4.34286
2552.98	4.56374
2554.35	4.56749
2555.72	4.29951
2557.09	4.27874
2558.47	5.14955
2559.84	5.19216
2561.21	5.09563
2562.58	5.46269
2563.95	5.98102
2565.32	5.49606
2566.69	5.17622
2568.06	5.30723
2569.43	5.39835
2570.8	5.2456
2572.17	5.39406
2573.54	5.88618
2574.91	6.39131
2576.28	6.01418
2577.65	6.01325
2579.02	5.7562
2580.39	6.04224
2581.75	6.6006
2583.12	6.71005
2584.49	6.62345
2585.85	6.63799
2587.22	6.90241
2588.59	6.52322
2589.95	6.9719
2591.32	6.77645
2592.68	5.59896
2594.05	5.08867
2595.42	4.91813
2596.78	4.53057
2598.15	3.71443
2599.51	3.2031
2600.88	3.1916
2602.24	2.97459
2603.6	3.47382
2604.97	4.08082
2606.33	4.12144
2607.69	4.62216
2609.06	5.14995
2610.42	5.73933
2611.78	5.04885
2613.14	5.57948
2614.51	5.76662
2615.87	4.84873
2617.23	4.63336
2618.59	4.59229
2619.95	4.01801
2621.31	4.54141
2622.67	4.59801
2624.03	4.31944
2625.39	4.97599
2626.75	5.82576
2628.11	5.29721
2629.47	4.75139
2630.83	4.79377
2632.19	4.55123
2633.55	4.55519
2634.91	4.94971
2636.26	4.90798
2637.62	5.25647
2638.98	5.39926
2640.34	5.5758
2641.69	5.81178
2643.05	5.6715
2644.41	5.15109
2645.76	5.09003
2647.12	4.97051
2648.48	5.37339
2649.83	5.16208
2651.19	5.20011
2652.54	5.59183
2653.9	6.34102
2655.25	6.48038
2656.6	5.62573
2657.96	5.73048
2659.31	6.09244
2660.67	5.71875
2662.02	5.50321
2663.37	5.64194
2664.73	5.7139
2666.08	6.33147
2667.43	6.20536
2668.78	6.36782
2670.14	6.56884
2671.49	7.53825
2672.84	8.11616
2674.19	7.99888
2675.54	8.15938
2676.89	7.60657
2678.24	6.90275
2679.59	7.29242
2680.94	7.59252
2682.29	6.96576
2683.64	6.82078
2684.99	6.7222
2686.34	6.64982
2687.69	5.98746
2689.04	6.99275
2690.39	7.05904
2691.74	6.57252
2693.08	7.22802
2694.43	6.99174
2695.78	6.29764
2697.13	6.15571
2698.47	6.2703
2699.82	6.59982
2701.17	6.69543
2702.51	6.81844
2703.86	6.81267
2705.21	6.29026
2706.55	6.01081
2707.9	6.75019
2709.24	6.25956
2710.58	6.23725
2711.93	6.08271
2713.27	5.90475
2714.62	6.42716
2715.96	6.61432
2717.3	6.72396
2718.65	7.58266
2719.99	7.96069
2721.33	8.21446
2722.68	7.94262
2724.02	8.5247
2725.36	8.97915
2726.71	8.93918
2728.05	8.1292
2729.39	7.73677
2730.73	7.94138
2732.07	7.84345
2733.41	7.52855
2734.75	6.82867
2736.09	6.84103
2737.43	6.41084
2738.77	6.47957
2740.11	5.79759
2741.45	4.67008
2742.79	4.28291
2744.13	4.07955
2745.47	3.52655
2746.81	3.53243
2748.14	2.85861
2749.48	2.51744
2750.82	2.30949
2752.16	1.65977
2753.49	0.952895
2754.83	0.7498
2756.17	1.32504
2757.5	0.759745
2758.84	-0.0132564
2760.18	0.315053
2761.51	0.147573
2762.85	-0.50077
2764.18	-0.814577
2765.52	-1.19619
2766.85	-1.12048
2768.19	-1.65018
2769.52	-1.39683
2770.86	-1.82286
2772.19	-1.71424
2773.52	-0.982823
2774.86	-0.936727
2776.19	-0.55061
2777.52	0.464871
2778.86	0.959706
2780.19	1.38869
2781.52	1.60616
2782.85	1.97276
2784.19	2.56853
2785.52	3.0211
2786.85	3.46165
2788.18	3.35037
2789.51	3.30971
2790.84	3.53866
2792.17	2.91999
2793.5	2.46271
2794.83	2.17263
2796.16	2.73131
2797.49	2.91077
2798.82	2.84739
2800.15	2.82276
2801.48	2.84108
2802.81	3.06484
2804.13	2.56489
2805.46	2.03246
2806.79	1.61325
2808.12	0.755998
2809.45	0.532869
2810.77	0.357711
2812.1	-0.406352
2813.43	-0.455161
2814.75	-0.272766
2816.08	0.269327
2817.41	1.11927
2818.73	2.49012
2820.06	4.66491
2821.38	7.6292
2822.71	9.55147
2824.03	11.3472
2825.36	13.954
2826.68	17.2024
2828	20.2697
2829.33	23.5563
2830.65	27.1994
2831.98	30.7639
2833.3	34.3355
2834.62	37.5185
2835.94	42.1185
2837.27	45.8334
2838.59	50.1969
2839.91	54.2042
2841.23	58.1699
2842.55	62.3795
2843.87	65.6852
2845.2	69.2401
2846.52	73.1814
2847.84	77.1208
2849.16	81.8739
2850.48	86.4191
2851.8	90.739
2853.12	95.4667
2854.44	100.589
2855.76	104.941
2857.08	109.022
2858.39	113.365
2859.71	118.197
2861.03	122.34
2862.35	126.674
2863.67	130.129
2864.98	133.469
2866.3	137.435
2867.62	139.858
2868.94	142.365
2870.25	143.997
2871.57	145.993
2872.88	148.178
2874.2	150.142
2875.52	153.033
2876.83	155.316
2878.15	157.945
2879.46	160.513
2880.78	163.623
2882.09	166.035
2883.41	169.13
2884.72	172.7
2886.03	175.67
2887.35	178.044
2888.66	180.753
2889.97	183.717
2891.29	187.256
2892.6	189.945
2893.91	191.687
2895.22	193.957
2896.54	195.789
2897.85	198.327
2899.16	201.236
2900.47	204.887
2901.78	208.758
2903.09	212.035
2904.4	215.619
2905.71	219.094
2907.02	222.476
2908.33	226.555
2909.64	231.076
2910.95	235.655
2912.26	240.709
2913.57	245.46
2914.88	250.914
2916.19	256.245
2917.5	260.909
2918.81	265.239
2920.11	269.157
2921.42	271.496
2922.73	274.379
2924.04	276.547
2925.34	277.933
2926.65	279.241
2927.96	280.367
2929.26	280.239
2930.57	279.731
2931.87	278.186
2933.18	275.55
2934.49	274.227
2935.79	272.152
2937.1	269.712
2938.4	267.331
2939.7	263.969
2941.01	260.265
2942.31	255.415
2943.62	251.272
2944.92	246.424
2946.22	241.772
2947.53	236.393
2948.83	231.816
2950.13	227.076
2951.43	221.146
2952.74	215.524
2954.04	210.324
2955.34	204.569
2956.64	198.216
2957.94	191.793
2959.24	185.423
2960.54	180.225
2961.84	175.065
2963.15	170.04
2964.45	165.301
2965.75	160.597
2967.05	155.757
2968.34	151.607
2969.64	147.37
2970.94	142.682
2972.24	138.457
2973.54	134.813
2974.84	130.722
2976.14	127.015
2977.43	123.642
2978.73	119.75
2980.03	115.954
2981.33	111.58
2982.62	106.509
2983.92	101.714
2985.22	96.9705
2986.51	92.3362
2987.81	87.9693
2989.11	83.501
2990.4	79.5664
2991.7	75.3678
2992.99	70.4214
2994.29	65.6764
2995.58	62.0567
2996.88	57.2378
2998.17	53.7139
2999.46	50.2493
3000.76	46.3621
3002.05	42.6321
3003.34	39.0357
3004.64	35.1302
3005.93	31.9543
3007.22	29.0539
3008.52	27.1588
3009.81	24.1849
3011.1	21.4121
3012.39	19.2024
3013.68	17.4759
3014.97	15.5444
3016.27	13.334
3017.56	11.437
3018.85	10.0767
3020.14	7.99859
3021.43	5.96159
3022.72	4.79652
3024.01	3.1568
3025.3	2.33433
3026.59	2.02011
3027.88	1.80693
3029.16	1.66466
3030.45	1.73987
3031.74	2.11628
3033.03	2.21171
3034.32	2.04471
3035.6	1.7677
3036.89	2.22108
3038.18	1.95109
3039.47	2.45225
3040.75	3.1524
3042.04	3.95382
3043.33	4.37623
3044.61	4.80069
3045.9	5.20459
3047.18	6.17135
3048.47	6.87768
3049.75	7.64911
3051.04	8.30662
3052.32	8.50508
3053.61	8.50697
3054.89	8.53712
3056.18	8.65009
3057.46	8.68629
3058.74	8.64207
3060.03	8.63423
3061.31	7.90989
3062.59	8.05535
3063.88	8.21954
3065.16	8.60884
3066.44	8.65003
3067.72	8.28317
3069	8.24823
3070.29	7.71151
3071.57	7.50656
3072.85	6.82599
3074.13	5.92508
3075.41	5.8754
3076.69	5.66232
3077.97	5.30327
3079.25	4.48561
3080.53	4.07566
3081.81	3.64431
3083.09	3.29831
3084.37	2.28317
3085.65	2.09039
3086.93	1.42693
3088.21	0.692319
3089.49	-0.0426024
3090.76	-0.139354
3092.04	-0.320111
3093.32	-0.254142
3094.6	-0.0817022
3095.87	-0.523805
3097.15	-1.11434
3098.43	-1.47509
3099.7	-1.41271
3100.98	-1.15226
3102.26	-0.934149
3103.53	0.321784
3104.81	0.549855
3106.08	1.06015
3107.36	1.0362
3108.63	1.54892
3109.91	2.38171
3111.18	3.35127
3112.46	3.52836
3113.73	4.54065
3115	5.12306
3116.28	6.24424
3117.55	7.1061
3118.83	7.92836
3120.1	8.85689
3121.37	9.46694
3122.64	10.5077
3123.92	11.787
3125.19	13.0391
3126.46	14.4409
3127.73	16.0078
3129	17.2358
3130.27	18.0683
3131.55	18.6211
3132.82	19.7969
3134.09	20.9578
3135.36	22.7455
3136.63	24.2392
3137.9	25.8699
3139.17	27.3912
3140.44	28.3482
3141.71	29.3671
3142.98	30.2427
3144.24	30.8723
3145.51	31.2396
3146.78	31.6446
3148.05	32.2421
3149.32	32.3197
