#Acq. time (s)=	45
#Accumulations=	2
#Range (cm-¹)=	200...3150
#Windows=	2
#Auto scanning=	Off
#Autofocus=	Off
#Macrospot=	Off
#AutoExposure=	Off
#Spike filter=	Multiple accum.
#Delay time (s)=	0
#Binning=	1
#Readout mode=	Signal
#DeNoise=	Off
#ICS correction=	On
#Dark correction=	Off
#Inst. Process=	Off
#Detector Gain=	Best Dynamic Range
#Detector ADC=	20 kHz       
#Detector temperature (°C)=	-69.85
#Instrument=	LabRAM HR Evol
#Detector=	Synapse
#Objective=	x100
#Grating=	600 gr/mm
#ND Filter=	100%
#Laser (nm)=	532 
#Hole=	100.021
#Range=	Auto
#Laser Pol.=	No
#Raman. Pol.=	No
#Laser Pol. (°)=	-0.0007625
#Raman Pol. (°)=	89.9995
#Collection=	Microscope
#StageXY=	Marzhauser
#StageZ=	Marzhauser
#X (µm)=	-5923.4
#Y (µm)=	2881
#Z (µm)=	-223.3
#Full time(mm:ss)=	3:18
#Project=	
#Sample=	
#Site=	
#Title=	Thy_20_09_30_2x_45s_532 nm_x100_100%_600 gr_mm
#Remark=	
#Date=	29.06.2022 12:44
#Acquired=	29.06.2022 12:44:53
#Base:Fit=	10.08.2022 09:52:02
#Base:Fit=	10.08.2022 09:52:12
#Base:Sub=	10.08.2022 09:54:21
#Filter:Polynom=	16.08.2022 10:24:04
#AxisType[0]=Intens
#AxisUnit[0]=Cnt
#AxisType[1]=Spectr
#AxisUnit[1]=1/cm
200.523	22.9603
202.339	21.3118
204.154	17.7735
205.967	15.1392
207.781	12.7819
209.596	10.6108
211.409	8.73896
213.222	7.27746
215.034	7.09378
216.848	7.74974
218.659	8.32388
220.47	8.5845
222.281	8.36678
224.091	7.41989
225.903	7.11535
227.713	6.08054
229.522	6.25711
231.331	7.07277
233.14	8.36803
234.948	8.48155
236.756	9.62649
238.566	9.32994
240.373	10.2273
242.18	10.8646
243.986	11.5159
245.792	11.9575
247.598	13.4353
249.403	13.8415
251.208	15.2923
253.013	16.3733
254.818	16.0053
256.624	17.0288
258.427	16.7632
260.231	18.5431
262.034	20.188
263.836	20.7249
265.638	20.95
267.44	19.9423
269.242	19.6658
271.043	19.2218
272.844	18.0786
274.645	17.9125
276.445	16.6331
278.245	15.8209
280.044	14.9227
281.843	15.0866
283.642	14.1743
285.44	12.4975
287.238	10.9496
289.036	10.1651
290.833	9.01522
292.63	8.38136
294.425	7.68395
296.221	7.7019
298.017	7.66956
299.813	9.39471
301.608	8.86473
303.403	9.98315
305.198	11.1578
306.992	10.9326
308.786	10.5643
310.579	9.89284
312.371	9.90277
314.163	9.29741
315.956	8.99266
317.748	9.87115
319.54	12.1507
321.331	13.4585
323.122	14.2524
324.911	14.2215
326.701	15.3576
328.491	16.1657
330.281	18.2851
332.071	19.3324
333.857	20.313
335.646	20.419
337.434	20.9921
339.222	20.4699
341.008	21.5449
342.795	21.2293
344.582	21.2234
346.369	22.1532
348.153	22.3094
349.939	23.4743
351.724	23.5745
353.51	22.919
355.292	21.9648
357.077	20.5077
358.861	19.7092
360.643	19.2783
362.426	17.9925
364.21	17.682
365.99	17.5732
367.773	17.8925
369.555	17.2545
371.335	17.0943
373.116	16.3089
374.897	16.2929
376.676	16.458
378.456	16.5942
380.236	17.6832
382.014	17.4847
383.793	18.2252
385.57	18.4867
387.349	19.3039
389.127	19.9143
390.903	20.4414
392.681	21.5042
394.456	21.0916
396.233	20.9401
398.007	21.3653
399.784	20.2752
401.56	20.4323
403.333	19.7302
405.108	20.1356
406.881	22.659
408.656	22.9715
410.428	23.2841
412.202	24.6495
413.973	25.1725
415.746	26.2165
417.517	26.7713
419.29	27.3564
421.06	27.9195
422.831	28.3652
424.601	27.9736
426.37	28.1363
428.141	28.3528
429.909	28.5082
431.679	27.6687
433.447	27.6038
435.216	26.9793
436.983	26.1274
438.75	26.683
440.519	26.3488
442.285	25.6422
444.052	24.6282
445.818	23.3147
447.583	23.6805
449.349	23.4192
451.114	23.1814
452.878	23.202
454.643	23.2913
456.407	22.3146
458.169	21.6216
459.934	21.0872
461.696	21.0295
463.458	20.8959
465.222	20.6514
466.983	20.5743
468.744	21.1692
470.507	19.9372
472.267	20.8377
474.027	21.0889
475.787	22.8831
477.548	23.6699
479.307	24.1685
481.065	23.8799
482.823	22.7637
484.583	22.6514
486.341	22.7253
488.098	22.7809
489.855	24.0325
491.612	24.6511
493.37	26.3761
495.126	28.2667
496.881	28.9367
498.636	31.3972
500.391	33.0039
502.148	32.7043
503.902	33.4962
505.656	34.8487
507.409	35.5967
509.162	36.1791
510.915	34.8368
512.668	34.3998
514.42	34.1032
516.174	34.9111
517.925	34.5738
519.676	33.9065
521.427	34.6838
523.178	34.7673
524.928	36.225
526.678	36.3922
528.427	35.4142
530.176	34.7346
531.925	33.7983
533.673	32.1065
535.422	31.3526
537.169	29.884
538.917	30.5409
540.664	30.0673
542.411	28.9772
544.157	27.7837
545.903	26.9026
547.649	25.6945
549.395	26.309
551.14	25.7533
552.884	26.0874
554.629	26.1593
556.373	25.8502
558.117	24.7718
559.86	25.349
561.603	25.1098
563.346	24.3162
565.089	23.6512
566.831	21.7656
568.573	20.8758
570.314	20.0525
572.053	19.8935
573.794	20.2447
575.534	20.083
577.274	19.3878
579.014	18.9756
580.754	18.285
582.493	17.3506
584.23	17.13
585.968	16.2083
587.706	14.7382
589.444	12.9115
591.181	12.1302
592.919	10.3262
594.653	8.84373
596.39	7.61601
598.126	6.37583
599.862	6.2717
601.595	6.7244
603.33	7.02131
605.065	6.24661
606.8	6.47665
608.532	6.87939
610.266	7.5113
611.999	7.99305
613.732	7.163
615.463	7.62602
617.196	7.63043
618.928	7.67659
620.66	7.37151
622.389	7.70353
624.12	8.99997
625.851	9.82412
627.58	9.14589
629.31	9.44979
631.04	10.5675
632.767	11.6003
634.497	12.9905
636.223	14.3464
637.952	14.8863
639.68	16.0376
641.406	15.6716
643.134	15.3382
644.861	15.0235
646.586	16.559
648.312	17.4863
650.037	18.2993
651.762	18.7663
653.486	19.5144
655.211	20.0813
656.936	19.954
658.659	19.9988
660.383	19.3456
662.105	19.8709
663.829	19.6159
665.55	20.417
667.273	20.9811
668.994	21.0989
670.716	19.9984
672.436	19.1927
674.158	18.9758
675.877	19.522
677.598	19.3841
679.317	20.4441
681.035	21.7485
682.755	22.627
684.473	23.447
686.192	24.5108
687.909	26.1013
689.628	26.3971
691.344	27.4995
693.06	28.8312
694.778	29.9656
696.493	30.7018
698.211	30.8771
699.925	32.2524
701.64	33.5067
703.356	33.4097
705.07	34.3105
706.783	34.3674
708.498	36.0659
710.211	38.4514
711.924	40.2835
713.638	42.1275
715.35	44.4043
717.061	45.306
718.774	45.7172
720.485	45.6179
722.196	45.566
723.906	46.5649
725.618	47.2333
727.328	47.5746
729.037	48.3184
730.746	50.2987
732.456	51.304
734.165	51.3628
735.873	50.3874
737.58	49.3487
739.289	48.9815
740.997	48.9587
742.703	49.9528
744.41	51.6988
746.116	51.9477
747.823	54.4565
749.529	54.4298
751.234	55.6684
752.938	55.3436
754.643	54.937
756.347	55.4744
758.051	57.142
759.756	58.3286
761.459	60.3794
763.162	60.4865
764.865	62.8769
766.567	62.9483
768.269	64.7839
769.97	65.4142
771.671	66.2789
773.372	67.1576
775.073	68.4147
776.773	68.7401
778.473	69.7975
780.174	70.7826
781.874	71.8014
783.573	73.4962
785.271	75.4277
786.97	77.0583
788.668	78.2724
790.365	80.2534
792.063	82.0014
793.76	84.0183
795.456	85.5527
797.153	86.6463
798.847	87.7226
800.543	88.1598
802.238	88.2954
803.933	87.9382
805.628	87.6971
807.322	87.3405
809.017	88.8325
810.71	89.3643
812.404	88.3373
814.097	87.6242
815.79	87.3587
817.483	85.4389
819.173	85.1257
820.865	83.702
822.556	84.064
824.248	84.2736
825.939	83.9166
827.629	83.3821
829.318	82.9324
831.008	81.4017
832.697	80.608
834.387	78.233
836.076	76.4203
837.765	73.6971
839.451	71.9733
841.139	71.074
842.827	69.4686
844.514	69.0497
846.2	68.8089
847.886	67.6682
849.573	66.4048
851.259	64.2455
852.943	63.953
854.629	61.799
856.314	60.8428
857.997	60.2061
859.682	58.9823
861.366	57.6827
863.05	57.2354
864.732	57.3544
866.415	58.3056
868.098	57.6314
869.779	58.0212
871.461	57.4001
873.141	55.4076
874.823	54.6841
876.505	53.725
878.184	52.6763
879.865	51.4847
881.545	51.5632
883.223	51.7562
884.903	50.1563
886.581	49.0083
888.26	47.5517
889.937	47.5555
891.616	47.8748
893.294	48.9699
894.97	48.4889
896.648	47.2631
898.323	48.1875
900	48.2883
901.675	48.4413
903.351	48.7358
905.026	47.1603
906.701	46.2979
908.375	43.8172
910.05	39.1318
911.723	35.3415
913.398	32.2626
915.07	31.7141
916.742	32.5336
918.415	33.7007
920.087	35.1832
921.76	37.2442
923.43	39.2416
925.103	40.6607
926.773	41.5458
928.443	42.6372
930.114	43.5434
931.783	43.6422
933.454	44.5554
935.123	46.5458
936.791	47.6722
938.461	47.8698
940.128	48.6813
941.796	46.9677
943.464	45.9554
945.131	45.9412
946.797	45.9154
948.465	45.7499
950.131	44.8709
951.797	42.5062
953.462	41.1549
955.128	39.5379
956.793	37.9354
958.457	37.1074
960.121	36.0996
961.786	35.7791
963.45	36.3732
965.113	37.7568
966.775	38.5543
968.44	38.4161
970.102	38.7728
971.763	38.9921
973.425	39.2595
975.086	39.5314
976.748	39.3821
978.409	38.2287
980.069	36.8224
981.729	37.2277
983.388	35.4842
985.048	33.6453
986.708	31.9401
988.367	29.6395
990.025	27.3379
991.683	25.4185
993.341	24.4744
994.998	27.8457
996.655	31.4488
998.312	36.694
999.969	37.8516
1001.62	38.1819
1003.28	39.1771
1004.94	39.3957
1006.59	38.8718
1008.25	38.8162
1009.9	39.4694
1011.56	39.4224
1013.21	39.6593
1014.86	38.8658
1016.52	38.6057
1018.17	38.0293
1019.82	36.3578
1021.48	33.8105
1023.13	32.8311
1024.78	31.0518
1026.43	31.1094
1028.08	30.4983
1029.73	29.0831
1031.38	27.9065
1033.03	26.3141
1034.68	25.471
1036.33	23.635
1037.98	22.8582
1039.63	21.6033
1041.28	22.3712
1042.93	22.9149
1044.57	23.9806
1046.22	23.6478
1047.87	23.6337
1049.52	22.5521
1051.16	19.9056
1052.81	18.2945
1054.45	17.0772
1056.1	15.6679
1057.75	14.4843
1059.39	13.9819
1061.04	12.7397
1062.68	12.2877
1064.32	13.1219
1065.97	12.8984
1067.61	13.3877
1069.25	13.7646
1070.9	13.3881
1072.54	13.9351
1074.18	14.6019
1075.82	15.5742
1077.47	16.4967
1079.11	15.8893
1080.75	15.8499
1082.39	14.2724
1084.03	14.769
1085.67	14.8758
1087.31	14.8788
1088.95	14.4661
1090.59	14.78
1092.22	14.2963
1093.86	13.6059
1095.5	13.1922
1097.14	14.2191
1098.78	15.2365
1100.41	16.0737
1102.05	14.6322
1103.69	15.0873
1105.32	16.1319
1106.96	15.0867
1108.59	14.3441
1110.23	12.9635
1111.86	12.8919
1113.5	12.1608
1115.13	10.3559
1116.77	11.1833
1118.4	10.5418
1120.03	9.80818
1121.67	9.30437
1123.3	9.08094
1124.93	7.62725
1126.56	7.97115
1128.19	5.98775
1129.83	5.63799
1131.46	4.72127
1133.09	3.72347
1134.72	0.177445
1136.35	0.854491
1137.98	1.33089
1139.61	2.42833
1141.24	4.18198
1142.86	4.68204
1144.49	6.32839
1146.12	7.84628
1147.75	9.16289
1149.38	9.6966
1151	9.43845
1152.63	9.20959
1154.26	9.57037
1155.88	8.50115
1157.51	9.42424
1159.14	9.02162
1160.76	9.44266
1162.39	9.91525
1164.01	10.2379
1165.63	11.3699
1167.26	11.5642
1168.88	12.117
1170.51	11.815
1172.13	13.3853
1173.75	13.6251
1175.38	15.9424
1177	17.2715
1178.62	17.7986
1180.24	18.1782
1181.86	17.8282
1183.48	17.9863
1185.1	18.0943
1186.72	17.4773
1188.34	18.185
1189.96	18.495
1191.58	19.3562
1193.2	20.2658
1194.82	20.6258
1196.44	20.9765
1198.06	22.8051
1199.68	22.4707
1201.29	23.0107
1202.91	25.5051
1204.53	27.3607
1206.14	28.3178
1207.76	29.5681
1209.38	30.4844
1210.99	32.0271
1212.61	33.6393
1214.22	35.3759
1215.84	37.137
1217.45	44.1333
1219.07	47.2957
1220.68	50.8896
1222.29	53.4956
1223.91	56.558
1225.52	59.7519
1227.13	61.8059
1228.74	64.1445
1230.36	66.1588
1231.97	68.4332
1233.58	70.7306
1235.19	73.6627
1236.8	75.9763
1238.41	78.9978
1240.02	81.257
1241.63	84.4019
1243.24	85.7167
1244.85	87.7168
1246.46	90.3701
1248.07	93.1698
1249.67	95.6213
1251.28	97.8799
1252.89	99.7147
1254.5	100.428
1256.1	102.842
1257.71	103.273
1259.32	104.882
1260.92	106.653
1262.53	107.054
1264.13	107.522
1265.74	107.711
1267.34	110.021
1268.95	111.021
1270.55	111.927
1272.15	113.163
1273.76	114.586
1275.36	115.192
1276.97	116.223
1278.57	119.097
1280.17	120.31
1281.77	121.916
1283.37	123.684
1284.97	124.694
1286.58	125.832
1288.18	128.303
1289.78	130.513
1291.38	132.453
1292.98	134.352
1294.58	136.081
1296.18	138.168
1297.78	140.008
1299.37	141.943
1300.97	143.389
1302.57	144.341
1304.17	146.819
1305.77	149.281
1307.36	151.489
1308.96	153.788
1310.55	156.82
1312.15	158.706
1313.75	160.864
1315.34	164.366
1316.94	167.101
1318.53	169.427
1320.13	171.374
1321.72	172.891
1323.32	174.846
1324.91	176.419
1326.5	177.422
1328.1	179.153
1329.69	179.166
1331.28	179.777
1332.87	179.722
1334.47	180.65
1336.06	180.71
1337.65	180.731
1339.24	179.321
1340.83	177.813
1342.42	176.547
1344.01	175.403
1345.6	174.55
1347.19	173.769
1348.78	171.294
1350.37	170.264
1351.96	167.911
1353.54	166.485
1355.13	163.094
1356.72	160.935
1358.31	158.247
1359.89	154.084
1361.48	151.082
1363.07	147.933
1364.65	144.551
1366.24	141.322
1367.82	138.539
1369.41	134.926
1370.99	131.938
1372.58	127.776
1374.16	125.872
1375.75	124.923
1377.33	120.992
1378.91	119.333
1380.5	117.772
1382.08	115.743
1383.66	115.499
1385.25	113.508
1386.83	111.854
1388.41	109.991
1389.99	108.956
1391.57	106.737
1393.15	105.084
1394.73	103.623
1396.31	101.052
1397.89	99.828
1399.47	98.255
1401.05	96.4945
1402.63	96.2194
1404.21	94.4697
1405.78	95.0575
1407.36	95.2802
1408.94	94.9863
1410.52	94.6939
1412.1	94.6356
1413.67	95.667
1415.25	97.8137
1416.82	99.2657
1418.4	99.7622
1419.98	101.288
1421.55	102.664
1423.13	104.784
1424.7	107.151
1426.28	109.55
1427.85	111.922
1429.42	114.097
1431	115.743
1432.57	118.456
1434.14	120.206
1435.71	121.728
1437.29	124.73
1438.86	126.802
1440.43	129.125
1442	129.742
1443.57	131.702
1445.14	132.045
1446.71	132.191
1448.28	132.025
1449.85	132.234
1451.42	131.201
1452.99	131.527
1454.56	130.567
1456.13	129.227
1457.7	128.811
1459.26	126.779
1460.83	124.262
1462.4	121.686
1463.97	118.125
1465.54	114.912
1467.1	111.682
1468.67	108.218
1470.23	104.781
1471.8	101.744
1473.36	97.8676
1474.93	94.447
1476.49	90.7553
1478.06	86.0794
1479.62	81.9917
1481.19	78.7004
1482.75	75.7793
1484.31	73.4652
1485.88	70.2245
1487.44	67.5924
1489	64.5888
1490.56	62.7147
1492.13	61.4846
1493.69	60.3893
1495.25	57.2342
1496.81	55.2199
1498.37	53.6213
1499.93	53.4415
1501.49	52.7046
1503.05	52.2005
1504.61	51.4766
1506.17	51.9534
1507.73	50.8953
1509.28	50.8581
1510.84	50.7616
1512.4	50.7261
1513.96	50.9361
1515.52	51.9033
1517.07	52.7644
1518.63	52.8818
1520.19	53.3616
1521.74	54.9473
1523.3	55.0138
1524.85	56.4181
1526.41	57.6905
1527.96	59.2063
1529.52	60.9444
1531.07	63.8748
1532.63	65.8481
1534.18	67.8115
1535.73	68.4875
1537.29	71.1693
1538.84	75.2166
1540.39	77.3793
1541.94	81.4746
1543.5	84.5949
1545.05	88.4439
1546.6	91.6132
1548.15	95.0952
1549.7	97.5979
1551.25	100.059
1552.8	103.053
1554.35	106.646
1555.9	109.677
1557.45	113.043
1559	116.252
1560.55	120.192
1562.1	122.969
1563.65	126.347
1565.19	129.429
1566.74	133.719
1568.29	137.624
1569.83	141.915
1571.38	144.836
1572.93	146.732
1574.47	149.752
1576.02	153.089
1577.56	156.238
1579.11	158.45
1580.66	160.771
1582.2	163.303
1583.74	165.114
1585.29	167.124
1586.83	169.113
1588.38	171.487
1589.92	173.005
1591.46	174.05
1593.01	174.628
1594.55	175.358
1596.09	174.012
1597.63	173.617
1599.17	171.616
1600.71	170.166
1602.25	169.224
1603.79	167.176
1605.34	166.01
1606.88	164.72
1608.41	162.44
1609.95	159.783
1611.49	158.318
1613.03	156.022
1614.57	154.65
1616.11	151.671
1617.65	148.95
1619.18	146.624
1620.72	143.647
1622.26	140.979
1623.79	138.998
1625.33	135.657
1626.87	133.312
1628.4	131.909
1629.94	129.729
1631.48	128.255
1633.01	125.838
1634.55	124.117
1636.08	123.297
1637.61	123.181
1639.15	122.833
1640.68	122.181
1642.21	121.903
1643.75	123.084
1645.28	122.723
1646.81	122.579
1648.34	121.908
1649.88	122.651
1651.41	123.763
1652.94	123.66
1654.47	122.97
1656	121.391
1657.53	121.332
1659.06	121.595
1660.59	121.082
1662.12	120.901
1663.65	119.446
1665.18	118.344
1666.71	115.896
1668.24	114.583
1669.76	112.003
1671.29	109.125
1672.82	106.757
1674.35	103.949
1675.87	101.151
1677.4	99.0206
1678.93	95.8452
1680.45	92.2071
1681.98	89.6172
1683.5	86.204
1685.03	81.7055
1686.55	77.8406
1688.08	73.8043
1689.6	69.4758
1691.13	66.2858
1692.65	62.1003
1694.17	60.0317
1695.7	56.8358
1697.22	54.1013
1698.74	50.0249
1700.27	46.9472
1701.79	43.9313
1703.31	41.7246
1704.83	38.9379
1706.35	35.9267
1707.87	34.3475
1709.39	32.1108
1710.91	30.2282
1712.43	29.025
1713.95	27.5078
1715.47	25.7168
1716.99	24.4627
1718.51	23.9368
1720.03	23.6298
1721.55	22.5159
1723.07	21.4355
1724.58	20.6185
1726.1	19.4476
1727.62	17.7017
1729.13	15.932
1730.65	14.6591
1732.17	13.8272
1733.68	14.0259
1735.2	12.9713
1736.72	12.4634
1738.23	11.4356
1739.74	11.0062
1741.26	9.75377
1742.77	8.63474
1744.29	8.50398
1745.8	7.10943
1747.32	6.53968
1748.83	6.08897
1750.34	5.67901
1751.85	5.51311
1753.37	5.36448
1754.88	4.76322
1756.39	4.13363
1757.9	3.35358
1759.41	1.55917
1760.92	0.596397
1762.44	-0.128928
1763.95	-0.226651
1765.46	-0.130454
1766.96	-0.254723
1768.47	-0.144863
1769.98	0.620177
1771.49	0.111275
1773	-0.861812
1774.51	-1.14584
1776.02	-1.00332
1777.53	-1.05215
1779.03	-1.33938
1780.54	-1.1246
1782.05	-0.825198
1783.55	-0.584083
1785.06	-1.12596
1786.57	-0.0866773
1788.07	0.043365
1789.58	0.0207702
1791.08	0.18553
1792.59	-0.00628722
1794.09	0.107803
1795.6	0.924285
1797.1	0.712885
1798.61	0.489066
1800.11	-0.0931722
1801.61	-0.185897
1803.12	0.123391
1804.62	0.138531
1806.12	0.486791
1807.62	-0.0830729
1809.12	-0.197774
1810.63	-0.050894
1812.13	0.32991
1813.63	0.851542
1815.13	1.63905
1816.63	2.00683
1818.13	2.58167
1819.63	3.10643
1821.13	3.4216
1822.63	3.83032
1824.13	4.60112
1825.63	4.93036
1827.13	4.68781
1828.62	5.52499
1830.12	5.23091
1831.62	5.37742
1833.12	4.81175
1834.61	5.10369
1836.11	5.22217
1837.61	6.10435
1839.1	6.69284
1840.6	6.52579
1842.09	6.41828
1843.59	6.06962
1845.09	5.82392
1846.58	5.75342
1848.08	5.03289
1849.57	4.90945
1851.06	3.94328
1852.56	4.06287
1854.05	4.15213
1855.54	4.2688
1857.04	4.34961
1858.53	4.34524
1860.02	3.77693
1861.51	4.48788
1863.01	4.19575
1864.5	3.72457
1865.99	3.77927
1867.48	3.38433
1868.97	3.35471
1870.46	2.88273
1871.95	2.3329
1873.44	2.23166
1874.93	2.34478
1876.42	2.17167
1877.91	2.10216
1879.4	1.57804
1880.89	1.85139
1882.37	1.68611
1882.46	2.23146
1883.95	3.05564
1885.45	3.66318
1886.94	4.60016
1888.43	4.49927
1889.93	5.09338
1891.42	4.81618
1892.91	5.34684
1894.41	5.09961
1895.9	5.0588
1897.39	5.92168
1898.88	5.61067
1900.37	6.71791
1901.86	7.49286
1903.36	7.03469
1904.85	7.23019
1906.34	7.02775
1907.83	7.55549
1909.32	7.42696
1910.81	7.63964
1912.29	7.60063
1913.78	6.46634
1915.27	6.61322
1916.76	6.64719
1918.25	7.02633
1919.74	6.37623
1921.23	4.85612
1922.71	4.83805
1924.2	4.63913
1925.69	4.51034
1927.17	3.9036
1928.66	3.55597
1930.15	4.107
1931.63	3.40261
1933.12	3.42905
1934.6	4.34823
1936.09	3.4888
1937.57	2.7032
1939.06	3.07435
1940.54	2.60907
1942.02	2.22836
1943.51	2.20669
1944.99	2.61567
1946.47	2.50086
1947.96	3.23434
1949.44	2.94122
1950.92	3.02299
1952.4	3.51784
1953.88	3.5129
1955.37	3.07702
1956.85	3.29888
1958.33	3.77031
1959.81	4.28341
1961.29	4.69711
1962.77	5.32498
1964.25	5.67532
1965.73	5.30922
1967.21	5.63256
1968.69	5.84809
1970.16	6.42776
1971.64	6.8874
1973.12	6.90418
1974.6	7.64214
1976.08	7.64563
1977.55	7.38748
1979.03	6.93713
1980.51	7.21763
1981.98	7.20255
1983.46	7.2947
1984.94	6.92661
1986.41	7.6483
1987.89	6.84264
1989.36	6.31613
1990.84	5.55422
1992.31	4.98796
1993.79	4.78081
1995.26	3.81654
1996.73	4.70803
1998.21	4.79264
1999.68	4.21809
2001.15	4.45497
2002.63	4.98676
2004.1	4.96725
2005.57	4.88872
2007.04	5.55842
2008.51	5.36457
2009.99	4.8471
2011.46	4.4738
2012.93	4.8087
2014.4	5.05653
2015.87	5.93812
2017.34	6.76999
2018.81	7.138
2020.28	7.14944
2021.75	7.94473
2023.21	7.3501
2024.68	6.90069
2026.15	7.19491
2027.62	5.92449
2029.09	7.16163
2030.56	7.23803
2032.02	7.16545
2033.49	7.21743
2034.96	7.1279
2036.42	7.77153
2037.89	7.51927
2039.36	7.24223
2040.82	7.55551
2042.29	8.08322
2043.75	8.45912
2045.22	8.90674
2046.68	9.61948
2048.14	9.96003
2049.61	10.319
2051.07	11.1243
2052.54	11.9569
2054	12.3825
2055.46	12.5411
2056.93	12.3637
2058.39	12.327
2059.85	12.9581
2061.31	13.1026
2062.77	13.5387
2064.23	13.8476
2065.7	14.0369
2067.16	14.5504
2068.62	14.3627
2070.08	14.3215
2071.54	14.0801
2073	14.2216
2074.46	14.2518
2075.92	14.5122
2077.38	14.6866
2078.83	15.3978
2080.29	16.5647
2081.75	16.8689
2083.21	17.1745
2084.67	17.2434
2086.12	17.2626
2087.58	17.5687
2089.04	17.7042
2090.49	16.7674
2091.95	16.4917
2093.41	16.3775
2094.86	16.4355
2096.32	15.2686
2097.77	14.7311
2099.23	15.0827
2100.68	14.8581
2102.14	15.9933
2103.59	14.9504
2105.05	15.8502
2106.5	16.846
2107.95	17.8282
2109.41	19.068
2110.86	19.6561
2112.31	20.1323
2113.76	21.1434
2115.21	22.0604
2116.67	22.7147
2118.12	23.8835
2119.57	25.0536
2121.02	25.905
2122.47	27.339
2123.92	29.0564
2125.37	29.6081
2126.82	30.9199
2128.27	32.7395
2129.72	34.1276
2131.17	35.6977
2132.62	37.0317
2134.07	39.1163
2135.51	39.8884
2136.96	41.45
2138.41	42.8758
2139.86	44.8638
2141.31	46.4079
2142.75	48.0954
2144.2	51.1556
2145.65	53.0449
2147.09	54.6551
2148.54	56.4261
2149.98	57.996
2151.43	59.97
2152.87	61.8106
2154.32	62.5018
2155.76	63.8178
2157.21	65.0255
2158.65	66.209
2160.1	68.064
2161.54	69.2394
2162.98	70.7579
2164.43	72.922
2165.87	73.9421
2167.31	74.4196
2168.75	75.1515
2170.2	76.1683
2171.64	76.6166
2173.08	76.9211
2174.52	77.1767
2175.96	77.0118
2177.4	76.1472
2178.84	75.1621
2180.28	74.863
2181.72	73.8725
2183.16	72.5779
2184.6	72.3711
2186.04	71.9286
2187.48	71.0412
2188.92	69.7442
2190.36	69.2212
2191.79	68.6902
2193.23	68.1033
2194.67	67.0075
2196.11	65.9999
2197.54	63.8585
2198.98	61.7636
2200.42	59.5413
2201.85	57.2889
2203.29	55.8653
2204.72	54.7399
2206.16	53.7881
2207.59	51.5896
2209.03	50.212
2210.46	47.8576
2211.9	46.2978
2213.33	44.6952
2214.77	43.1826
2216.2	41.4413
2217.63	38.8751
2219.07	37.9158
2220.5	36.3537
2221.93	35.7876
2223.36	34.6643
2224.8	33.5816
2226.23	33.1396
2227.66	32.2473
2229.09	30.8862
2230.52	30.4442
2231.95	29.6697
2233.39	29.5843
2234.81	29.6965
2236.25	28.7622
2237.67	27.4647
2239.1	26.368
2240.53	25.7504
2241.96	24.7412
2243.39	23.9563
2244.82	23.3598
2246.25	22.2949
2247.68	22.0874
2249.1	21.1957
2250.53	22.1247
2251.96	22.7862
2253.38	22.5564
2254.81	23.2991
2256.24	23.5511
2257.66	22.6226
2259.09	21.7702
2260.51	21.5674
2261.94	21.239
2263.36	20.9538
2264.79	20.0272
2266.21	19.2216
2267.64	18.7243
2269.06	17.8661
2270.49	18.1628
2271.91	18.6398
2273.33	17.8808
2274.76	17.7977
2276.18	16.6187
2277.6	15.9558
2279.02	15.3409
2280.44	15.2393
2281.87	14.6821
2283.29	13.9584
2284.71	13.8541
2286.13	12.6162
2287.55	11.7703
2288.97	11.3926
2290.39	11.1573
2291.81	10.0177
2293.23	9.29838
2294.65	8.85354
2296.07	9.20178
2297.49	9.92603
2298.91	9.7025
2300.33	9.27772
2301.74	9.79137
2303.16	9.81282
2304.58	10.1691
2306	9.674
2307.41	9.74511
2308.83	9.25794
2310.25	9.42748
2311.66	9.69404
2313.08	9.98658
2314.5	11.1405
2315.91	10.9841
2317.33	11.0753
2318.74	10.7705
2320.16	9.97624
2321.57	9.38517
2322.98	9.09707
2324.4	8.55796
2325.81	7.96555
2327.23	7.18287
2328.64	7.67527
2330.05	7.6601
2331.46	7.4997
2332.88	7.31391
2334.29	7.39486
2335.7	7.3682
2337.11	7.07084
2338.52	6.66862
2339.94	6.0448
2341.35	5.45442
2342.76	4.68658
2344.17	3.82539
2345.58	3.79994
2346.99	3.4439
2348.4	3.71839
2349.81	3.9543
2351.22	3.81397
2352.62	3.17012
2354.03	1.97897
2355.44	1.32218
2356.85	0.81977
2358.26	1.62515
2359.67	0.904208
2361.07	0.604446
2362.48	0.413492
2363.89	0.726048
2365.29	1.58131
2366.7	1.38316
2368.11	1.52038
2369.51	0.90837
2370.92	0.806085
2372.32	0.850752
2373.73	0.284703
2375.13	0.233749
2376.54	0.726109
2377.94	1.20793
2379.35	1.13763
2380.75	1.02462
2382.15	1.13428
2383.56	0.642048
2384.96	0.692233
2386.36	-0.916778
2387.76	-0.803003
2389.17	-0.841539
2390.57	-0.563057
2391.97	0.0502217
2393.37	1.40746
2394.77	1.58714
2396.17	2.26039
2397.58	2.92914
2398.98	3.31553
2400.38	3.06799
2401.78	3.50058
2403.18	4.42375
2404.58	5.3383
2405.97	5.75198
2407.37	6.10428
2408.77	5.92995
2410.17	5.80649
2411.57	6.69622
2412.97	7.01877
2414.37	7.48755
2415.76	7.96699
2417.16	8.1315
2418.56	8.7523
2419.95	9.33522
2421.35	9.14183
2422.75	9.10294
2424.14	9.70595
2425.54	10.3641
2426.93	10.8384
2428.33	10.5828
2429.72	9.3
2431.12	9.62702
2432.51	9.14985
2433.91	9.16024
2435.3	9.41212
2436.7	9.44685
2438.09	9.46876
2439.48	9.44657
2440.88	9.38861
2442.27	9.21808
2443.66	8.67908
2445.05	9.31865
2446.44	8.46441
2447.84	7.78043
2449.23	6.81187
2450.62	6.10348
2452.01	6.02443
2453.4	5.27375
2454.79	5.23738
2456.18	4.87698
2457.57	5.13454
2458.96	4.91783
2460.35	5.59619
2461.74	4.98815
2463.13	4.84837
2464.52	3.9357
2465.91	4.06987
2467.29	3.69667
2468.68	3.39122
2470.07	3.12954
2471.46	3.01282
2472.85	2.88563
2474.23	2.18787
2475.62	1.43417
2477.01	0.998226
2478.39	0.591175
2479.78	1.17799
2481.16	1.46854
2482.55	1.48068
2483.93	1.74598
2485.32	1.61614
2486.7	1.99479
2488.09	2.34024
2489.47	2.63395
2490.86	2.85246
2492.24	3.33372
2493.62	3.6705
2495.01	3.16035
2496.39	3.53472
2497.77	2.89085
2499.15	3.44897
2500.54	3.7413
2501.92	4.03498
2503.3	4.48257
2504.68	4.50938
2506.06	4.18754
2507.45	4.22191
2508.83	4.69235
2510.21	4.45014
2511.59	4.42752
2512.97	4.21682
2514.35	4.01348
2515.73	2.80456
2517.11	2.82626
2518.48	2.59654
2519.86	3.77332
2521.24	3.81778
2522.62	3.77332
2524	4.23693
2525.38	4.88189
2526.75	4.9566
2528.13	4.94016
2529.51	4.66163
2530.89	3.33938
2532.26	3.93602
2533.64	4.08829
2535.02	4.20734
2536.39	3.78085
2537.77	3.6904
2539.14	3.72656
2540.52	4.47214
2541.89	4.5015
2543.27	4.83357
2544.64	5.31175
2546.01	5.92192
2547.39	6.90812
2548.76	7.06869
2550.14	6.92638
2551.51	7.36286
2552.88	7.5001
2554.25	7.52379
2555.63	7.46375
2557	7.65771
2558.37	7.91765
2559.74	8.26742
2561.11	8.58363
2562.49	8.96466
2563.86	8.96083
2565.23	9.2623
2566.6	8.69528
2567.97	8.58806
2569.34	8.2057
2570.71	8.31374
2572.08	7.55801
2573.45	6.70741
2574.82	6.69822
2576.18	7.38409
2577.55	7.36029
2578.92	6.80744
2580.29	6.44152
2581.66	6.30964
2583.02	5.83592
2584.39	5.46159
2585.76	5.9297
2587.13	5.9492
2588.49	5.83844
2589.86	4.61268
2591.22	4.38147
2592.59	3.84509
2593.96	2.88585
2595.32	2.19169
2596.69	1.30689
2598.05	0.607757
2599.42	0.405932
2600.78	0.690437
2602.14	0.499091
2603.51	0.129474
2604.87	0.179037
2606.23	-0.0329362
2607.6	-0.159291
2608.96	-0.22053
2610.32	0.0936554
2611.69	0.942138
2613.05	1.08901
2614.41	1.32897
2615.77	1.85199
2617.13	2.24526
2618.49	2.92134
2619.86	2.97157
2621.22	3.26312
2622.58	3.49071
2623.94	4.32096
2625.3	4.81701
2626.66	4.64569
2628.02	5.31835
2629.37	5.09376
2630.73	5.22633
2632.09	5.19456
2633.45	5.21441
2634.81	4.88643
2636.17	5.37878
2637.53	6.04713
2638.88	6.82556
2640.24	6.96754
2641.6	7.7168
2642.96	7.96016
2644.31	8.65874
2645.67	7.60532
2647.02	7.43662
2648.38	8.2519
2649.74	8.44301
2651.09	8.31411
2652.45	8.1446
2653.8	8.14384
2655.16	7.90233
2656.51	8.25641
2657.86	7.84777
2659.22	7.92192
2660.57	7.61197
2661.93	7.8011
2663.28	7.85796
2664.63	7.90143
2665.98	8.20496
2667.34	8.51771
2668.69	8.61257
2670.04	8.78724
2671.39	8.42339
2672.75	8.06198
2674.09	7.89713
2675.45	8.56626
2676.8	8.92297
2678.15	9.55924
2679.5	9.39672
2680.85	9.57553
2682.2	9.89482
2683.55	9.88208
2684.9	9.3814
2686.25	8.84387
2687.6	8.98473
2688.94	8.87308
2690.29	8.33801
2691.64	8.10589
2692.99	7.42992
2694.34	7.28424
2695.68	7.87724
2697.03	7.81699
2698.38	7.95192
2699.73	8.21411
2701.07	8.0038
2702.42	8.93621
2703.76	9.41403
2705.11	9.41743
2706.45	9.37999
2707.8	9.08214
2709.15	9.05712
2710.49	9.15349
2711.83	9.71968
2713.18	9.36481
2714.52	10.7623
2715.87	11.2952
2717.21	10.7619
2718.55	11.0042
2719.9	11.2267
2721.24	11.9755
2722.58	12.8571
2723.93	13.6658
2725.27	14.0078
2726.61	14.8198
2727.95	15.6141
2729.29	15.7884
2730.63	16.3583
2731.98	17.2996
2733.32	17.166
2734.66	17.5338
2736	17.3001
2737.34	17.8028
2738.68	17.4323
2740.02	18.063
2741.36	18.3164
2742.7	18.3162
2744.03	18.1238
2745.37	17.9503
2746.71	17.3022
2748.05	17.3005
2749.39	16.8713
2750.72	16.7634
2752.06	16.8914
2753.4	16.6873
2754.74	17.075
2756.07	16.326
2757.41	15.8911
2758.75	15.3782
2760.08	14.7228
2761.42	14.3426
2762.76	13.9246
2764.09	12.7251
2765.42	11.2458
2766.76	10.9314
2768.09	9.55887
2769.43	9.40749
2770.76	8.89457
2772.1	8.04599
2773.43	7.39386
2774.76	7.34288
2776.1	7.59879
2777.43	7.1414
2778.76	6.54249
2780.1	6.07554
2781.43	6.33787
2782.76	5.54664
2784.09	4.74736
2785.42	4.99565
2786.75	5.05057
2788.09	4.50645
2789.42	4.1852
2790.75	3.93957
2792.08	3.50332
2793.41	3.05926
2794.74	3.03871
2796.07	2.80438
2797.4	3.23141
2798.73	3.14319
2800.06	3.33176
2801.39	3.47437
2802.71	2.82617
2804.04	3.58907
2805.37	3.00866
2806.7	2.63092
2808.03	2.01153
2809.35	2.03832
2810.68	2.53987
2812.01	2.40962
2813.33	3.37219
2814.66	4.24728
2815.99	4.84971
2817.31	5.58035
2818.64	6.02278
2819.96	7.01378
2821.29	8.22299
2822.61	9.38881
2823.94	10.9073
2825.26	13.0386
2826.59	15.2854
2827.91	17.7076
2829.23	19.9921
2830.56	22.7179
2831.88	25.978
2833.21	29.8224
2834.53	33.6866
2835.85	37.7219
2837.17	42.0534
2838.5	45.3613
2839.82	50.2045
2841.14	54.5799
2842.46	58.6894
2843.78	62.5325
2845.1	68.3762
2846.42	74.0626
2847.74	79.7716
2849.06	84.9983
2850.38	90.8916
2851.71	96.9387
2853.03	102.214
2854.34	108.091
2855.66	115.042
2856.98	120.844
2858.3	126.728
2859.62	132.741
2860.94	138.761
2862.26	144.862
2863.57	150.322
2864.89	156.133
2866.21	160.598
2867.53	164.634
2868.84	169.426
2870.16	174.033
2871.48	177.153
2872.79	180.449
2874.11	183.657
2875.42	186.612
2876.74	189.088
2878.05	191.084
2879.37	193.932
2880.68	195.904
2882	198.371
2883.31	201.005
2884.63	204.028
2885.94	206.7
2887.26	209.289
2888.57	212.197
2889.88	215.187
2891.19	218.796
2892.51	222.111
2893.82	225
2895.13	228.417
2896.44	233.058
2897.76	236.484
2899.07	240.917
2900.38	245.499
2901.69	249.387
2903	254.779
2904.31	259.675
2905.62	266.462
2906.93	272.139
2908.24	279.581
2909.55	287.548
2910.86	295.662
2912.17	302.753
2913.48	310.064
2914.79	316.84
2916.1	324.165
2917.41	330.712
2918.71	337.394
2920.02	343.831
2921.33	349.021
2922.64	353.006
2923.94	357.557
2925.25	361.541
2926.56	363.507
2927.86	365.832
2929.17	366.385
2930.48	367.082
2931.78	367.055
2933.09	366.495
2934.39	365.097
2935.7	362.586
2937	359.518
2938.31	356.207
2939.61	352.286
2940.92	348.348
2942.22	343.876
2943.53	339.271
2944.83	333.82
2946.13	328.299
2947.43	322.103
2948.74	315.438
2950.04	308.609
2951.34	301.954
2952.64	295.814
2953.95	289.388
2955.25	283.265
2956.55	276.52
2957.85	268.926
2959.15	261.737
2960.45	255.681
2961.75	249.193
2963.05	241.754
2964.35	236.463
2965.65	230.377
2966.95	224.554
2968.25	219.445
2969.55	214.072
2970.85	209.263
2972.15	203.88
2973.45	199.131
2974.75	194.106
2976.05	188.429
2977.34	182.825
2978.64	177.178
2979.94	171.554
2981.24	166.202
2982.53	160.945
2983.83	155.649
2985.13	149.018
2986.42	142.652
2987.72	136.263
2989.01	129.8
2990.31	123.2
2991.61	117.161
2992.9	112.154
2994.19	106.377
2995.49	101.521
2996.78	96.3587
2998.08	90.458
2999.37	86.1791
3000.67	81.8586
3001.96	76.9541
3003.25	72.2889
3004.55	67.9262
3005.84	64.1371
3007.13	59.5175
3008.42	55.0411
3009.72	51.31
3011.01	48.8397
3012.3	45.8963
3013.59	42.9975
3014.88	41.1201
3016.17	39.2642
3017.46	36.6606
3018.76	34.5052
3020.05	32.9791
3021.34	30.9716
3022.63	29.4361
3023.92	28.6018
3025.21	27.2101
3026.49	26.2031
3027.78	25.1617
3029.07	25.8012
3030.36	25.2191
3031.65	25.4876
3032.94	25.5881
3034.23	25.3042
3035.51	25.6089
3036.8	25.8606
3038.09	26.171
3039.38	26.4392
3040.66	26.9454
3041.95	28.245
3043.23	28.9311
3044.52	30.124
3045.81	30.7674
3047.09	31.5343
3048.38	31.1882
3049.66	30.6133
3050.95	31.001
3052.23	30.7621
3053.52	30.6853
3054.8	31.3616
3056.09	31.6488
3057.37	31.0879
3058.65	30.7405
3059.94	30.2019
3061.22	29.9261
3062.5	29.3261
3063.79	29.0118
3065.07	27.54
3066.35	26.0621
3067.63	24.7152
3068.92	23.5235
3070.2	22.3888
3071.48	20.6865
3072.76	20.1238
3074.04	19.0353
3075.32	17.7607
3076.6	16.1725
3077.88	14.7338
3079.16	13.3634
3080.44	11.8251
3081.72	10.7393
3083	10.1512
3084.28	8.99035
3085.56	7.33018
3086.84	6.42985
3088.12	5.86691
3089.4	4.90008
3090.67	4.74431
3091.95	4.45937
3093.23	4.30634
3094.51	3.41039
3095.78	2.88928
3097.06	2.19047
3098.34	1.89316
3099.61	2.156
3100.89	2.15135
3102.17	1.94281
3103.44	2.0282
3104.72	1.93381
3105.99	1.7711
3107.27	1.71823
3108.54	1.36413
3109.82	1.49653
3111.09	1.15081
3112.37	0.870953
3113.64	0.502667
3114.92	0.493042
3116.19	0.144997
3117.46	0.269501
3118.74	0.756077
3120.01	0.771538
3121.28	0.792096
3122.55	0.601174
3123.83	0.462909
3125.1	0.697884
3126.37	0.0335664
3127.64	0.179199
3128.91	-0.0825603
3130.19	0.141426
3131.46	0.529998
3132.73	1.22926
3134	2.13196
3135.27	2.84745
3136.54	3.86265
3137.81	4.35556
3139.08	5.72285
3140.35	7.01298
3141.62	8.18829
3142.89	9.5278
3144.16	11.0775
3145.42	12.487
3146.69	14.2882
3147.96	16.7428
3149.23	19.6757
