#Acq. time (s)=	45
#Accumulations=	2
#Range (cm-¹)=	200...3150
#Windows=	2
#Auto scanning=	Off
#Autofocus=	Off
#Macrospot=	Off
#AutoExposure=	Off
#Spike filter=	Multiple accum.
#Delay time (s)=	0
#Binning=	1
#Readout mode=	Signal
#DeNoise=	Off
#ICS correction=	On
#Dark correction=	Off
#Inst. Process=	Off
#Detector Gain=	Best Dynamic Range
#Detector ADC=	20 kHz       
#Detector temperature (°C)=	-69.85
#Instrument=	LabRAM HR Evol
#Detector=	Synapse
#Objective=	x100
#Grating=	600 gr/mm
#ND Filter=	100%
#Laser (nm)=	532 
#Hole=	100.021
#Range=	Auto
#Laser Pol.=	No
#Raman. Pol.=	No
#Laser Pol. (°)=	-0.0007625
#Raman Pol. (°)=	89.9995
#Collection=	Microscope
#StageXY=	Marzhauser
#StageZ=	Marzhauser
#X (µm)=	2210.1
#Y (µm)=	1235.2
#Z (µm)=	442.95
#Full time(mm:ss)=	3:18
#Project=	
#Sample=	
#Site=	
#Title=	Thy_10_08_22_2x_45s_532 nm_x100_100%_600 gr_mm
#Remark=	
#Date=	05.07.2022 15:44
#Acquired=	05.07.2022 15:44:38
#Base:Fit=	10.08.2022 09:46:25
#Base:Sub=	10.08.2022 09:46:49
#Filter:Polynom=	16.08.2022 10:24:56
#AxisType[0]=Intens
#AxisUnit[0]=Cnt
#AxisType[1]=Spectr
#AxisUnit[1]=1/cm
200.43	25.3518
202.244	28.7059
204.059	31.2389
205.873	31.5991
207.688	31.3788
209.501	30.3181
211.314	29.7402
213.127	28.983
214.941	28.176
216.753	26.8883
218.564	25.1028
220.375	23.3935
222.186	21.9895
223.999	19.8491
225.809	18.1925
227.618	16.4295
229.428	15.8696
231.236	15.2375
233.045	14.4095
234.855	14.3953
236.663	14.4309
238.471	13.7529
240.278	13.575
242.085	12.934
243.891	13.4358
245.698	14.5411
247.503	14.4521
249.309	13.9341
251.116	14.6726
252.921	13.6815
254.725	13.6515
256.529	13.5385
258.333	13.0983
260.136	13.808
261.939	13.8829
263.742	14.4776
265.544	14.4569
267.346	15.0618
269.148	14.6069
270.949	14.9477
272.75	16.6842
274.55	16.0583
276.351	16.0405
278.15	16.4118
279.95	16.6626
281.749	17.7969
283.548	17.8603
285.346	18.15
287.144	17.1849
288.942	17.3565
290.739	16.9073
292.536	15.7948
294.333	15.3151
296.129	15.5443
297.925	16.1216
299.721	16.411
301.514	17.8839
303.309	17.8639
305.104	17.3702
306.898	16.9926
308.692	16.3238
310.486	17.1587
312.279	17.2283
314.072	16.6218
315.862	16.7881
317.654	15.9556
319.446	16.2194
321.238	16.1128
323.029	15.4343
324.819	14.8628
326.608	15.0483
328.398	14.7449
330.188	14.9031
331.977	15.8267
333.766	16.5993
335.553	16.7729
337.341	16.0779
339.129	15.8077
340.917	16.2155
342.704	15.9479
344.489	15.8942
346.275	14.6401
348.062	13.8984
349.845	13.6074
351.631	12.58
353.416	12.2251
355.201	11.5905
356.984	11.9646
358.768	11.7607
360.552	11.1358
362.333	10.6692
364.116	9.74184
365.899	9.10798
367.68	9.17487
369.462	9.22206
371.243	9.27137
373.023	8.285
374.804	8.43622
376.585	8.74473
378.363	8.72037
380.143	8.6845
381.923	9.53222
383.7	9.87681
385.479	10.848
387.256	11.4076
389.034	10.7207
390.812	11.0053
392.588	10.5024
394.365	9.78688
396.14	8.89515
397.916	8.1917
399.691	7.90552
401.467	6.25565
403.24	5.69153
405.015	4.88081
406.788	4.7064
408.563	5.03004
410.335	4.77636
412.109	3.73828
413.88	3.81034
415.654	4.03374
417.424	3.66761
419.197	3.60059
420.967	4.07344
422.739	3.26721
424.508	3.79665
426.279	3.95419
428.048	3.58889
429.819	3.40829
431.587	3.67961
433.356	3.01275
435.124	1.74489
436.891	2.71891
438.66	2.69884
440.426	2.38691
442.194	2.10618
443.96	2.40355
445.725	2.15662
447.492	1.48938
449.257	1.02059
451.021	2.23877
452.787	2.45353
454.551	2.40136
456.314	3.47407
458.079	3.5587
459.842	3.35264
461.604	3.54616
463.368	4.95075
465.13	5.03331
466.891	5.69453
468.654	7.21392
470.415	7.43494
472.175	6.96314
473.935	7.50847
475.696	7.15626
477.456	7.35947
479.215	8.49613
480.973	8.6501
482.733	8.90557
484.491	8.89195
486.249	9.78767
488.006	10.1738
489.765	10.9112
491.522	12.0218
493.278	12.2108
495.034	12.1145
496.789	11.9157
498.544	12.5341
500.301	12.8817
502.056	13.7501
503.81	14.0126
505.564	14.0931
507.317	13.5992
509.071	13.8479
510.825	14.1668
512.578	14.1202
514.33	13.8855
516.082	14.0845
517.833	13.5438
519.585	13.0619
521.335	12.0538
523.086	11.5628
524.836	11.8197
526.586	10.7787
528.335	10.3208
530.085	10.4291
531.835	10.4967
533.584	9.31312
535.332	9.08401
537.08	8.68355
538.827	8.33059
540.574	8.40198
542.321	8.40176
544.068	8.1253
545.814	7.87015
547.56	7.76717
549.305	7.57941
551.05	6.94657
552.795	6.6593
554.54	6.78771
556.282	6.47074
558.025	5.79302
559.769	4.80614
561.512	4.94828
563.255	4.38166
564.997	4.62974
566.739	5.14652
568.481	4.934
570.223	5.10209
571.964	5.36726
573.705	5.28164
575.443	4.81129
577.183	5.36805
578.923	5.66514
580.663	6.20143
582.402	7.3083
584.141	9.05117
585.879	9.17823
587.615	8.8195
589.353	9.12521
591.09	8.69895
592.828	8.06936
594.564	7.71672
596.299	8.27657
598.035	8.10579
599.771	8.097
601.506	8.32577
603.242	7.66442
604.974	7.50168
606.709	8.02546
608.443	7.88697
610.177	9.0026
611.908	9.10617
613.642	9.1728
615.374	9.65712
617.105	9.1378
618.837	7.72213
620.569	7.12169
622.3	7.56465
624.03	6.61594
625.761	6.13307
627.491	6.70352
629.219	6.75023
630.949	6.82312
632.677	7.01763
634.406	6.83885
636.135	6.83925
637.861	7.05322
639.59	7.60399
641.318	7.68798
643.043	7.5315
644.77	7.36885
646.495	7.9221
648.222	9.54901
649.948	10.1106
651.672	11.4502
653.398	13.4615
655.121	13.9247
656.846	14.594
658.569	15.594
660.293	16.6467
662.015	18.246
663.738	19.8622
665.46	21.0461
667.183	21.5958
668.903	21.9318
670.626	21.8197
672.346	22.2619
674.067	22.809
675.787	23.3827
677.508	23.1125
679.226	23.7855
680.947	23.9468
682.665	25.3727
684.385	26.0391
686.102	26.8874
687.821	26.7205
689.538	28.032
691.254	29.2574
692.972	29.7911
694.688	29.7946
696.406	31.3953
698.121	30.7342
699.835	30.8555
701.552	30.7599
703.266	30.0772
704.98	30.888
706.695	31.8703
708.409	32.369
710.121	32.5232
711.836	34.1109
713.548	35.0065
715.26	36.153
716.973	36.9763
718.685	38.0439
720.396	38.7202
722.108	39.1423
723.818	39.806
725.528	40.7087
727.238	41.2392
728.949	42.4018
730.658	45.0916
732.367	47.1164
734.075	48.2391
735.785	48.7455
737.493	50.2533
739.2	52.0099
740.907	52.0978
742.614	53.4417
744.322	54.9751
746.028	55.6548
747.734	56.2608
749.439	56.7916
751.144	57.1482
752.849	59.05
754.555	61.2849
756.26	63.1468
757.963	65.0057
759.667	65.7446
761.37	67.049
763.073	68.0666
764.775	69.0405
766.477	68.6232
768.179	69.7965
769.883	70.4421
771.584	71.0361
773.285	71.5618
774.986	72.8226
776.686	73.2355
778.386	73.9369
780.085	74.3456
781.785	74.8647
783.484	75.4015
785.182	76.3682
786.881	75.8393
788.579	76.7315
790.276	78.4659
791.974	78.381
793.671	79.3045
795.367	80.3905
797.064	81.8201
798.76	83.0724
800.456	85.2486
802.151	86.0268
803.846	86.4921
805.541	86.6104
807.234	87.0407
808.928	87.7846
810.622	88.6088
812.315	89.9322
814.008	90.3648
815.701	90.5031
817.394	89.6603
819.086	89.5641
820.778	90.2451
822.468	91.1163
824.159	91.5455
825.85	91.1809
827.541	91.6751
829.231	91.9459
830.921	91.7511
832.609	92.4677
834.298	92.972
835.987	92.2231
837.676	93.254
839.364	92.8442
841.051	92.0051
842.738	90.0917
844.426	88.5997
846.113	86.8438
847.798	85.5881
849.484	83.404
851.171	81.9342
852.857	81.0538
854.54	79.5555
856.226	77.5997
857.911	76.0912
859.593	75.9992
861.278	74.5381
862.961	72.386
864.645	71.5595
866.327	70.114
868.01	69.42
869.692	67.9766
871.373	66.1024
873.055	66.1355
874.735	66.1849
876.416	64.6432
878.097	64.229
879.776	63.8789
881.457	63.4466
883.135	62.7498
884.815	62.3498
886.495	60.7956
888.172	60.8989
889.851	60.211
891.528	59.7174
893.206	59.0494
894.882	58.546
896.56	57.605
898.237	55.7624
899.912	55.7767
901.589	56.0925
903.263	57.311
904.94	57.7586
906.614	57.6535
908.289	57.8046
909.962	57.8034
911.635	58.6481
913.31	58.2347
914.982	58.4863
916.656	58.7371
918.328	58.8429
920.001	59.0115
921.672	59.9812
923.345	59.7175
925.015	59.0684
926.685	58.8038
928.357	58.7204
930.026	58.3783
931.698	58.4128
933.366	57.6879
935.035	58.3414
936.705	57.6861
938.373	57.309
940.041	57.033
941.71	56.4812
943.377	55.7912
945.044	54.7129
946.712	54.1496
948.378	53.8702
950.044	53.2112
951.709	52.6946
953.376	51.8442
955.041	50.9786
956.706	50.7683
958.372	49.6462
960.036	47.1599
961.699	46.7771
963.362	46.9551
965.027	47.4076
966.69	48.0096
968.352	48.8497
970.014	49.3627
971.676	50.8264
973.339	49.8349
975	50.0139
976.661	50.78
978.322	50.6542
979.982	51.4772
981.642	52.3527
983.303	53.8973
984.962	54.6958
986.621	55.1496
988.28	54.292
989.938	53.6536
991.596	53.2211
993.254	53.7376
994.911	54.0787
996.57	53.2854
998.227	54.3583
999.884	54.2346
1001.54	54.6828
1003.2	54.494
1004.85	53.6638
1006.51	52.3125
1008.16	51.6663
1009.82	51.4336
1011.47	50.7134
1013.12	50.0714
1014.78	50.0641
1016.43	49.4277
1018.08	48.9852
1019.74	48.2407
1021.39	46.8727
1023.04	45.321
1024.69	44.0949
1026.34	43.2345
1028	42.0846
1029.65	39.849
1031.3	37.7748
1032.95	36.0721
1034.6	34.4462
1036.25	32.8406
1037.9	31.3009
1039.54	29.6444
1041.19	29.1523
1042.84	27.9229
1044.49	28.1408
1046.14	28.1346
1047.78	27.569
1049.43	27.9498
1051.08	28.1052
1052.72	27.2041
1054.37	26.4849
1056.02	25.2173
1057.66	24.5096
1059.31	23.9416
1060.95	22.818
1062.6	22.9033
1064.24	21.9204
1065.88	21.4592
1067.53	20.7182
1069.17	19.5073
1070.81	18.5711
1072.45	18.6271
1074.1	19.6774
1075.74	20.295
1077.38	20.3137
1079.02	20.5998
1080.66	20.8691
1082.3	20.9459
1083.94	20.8989
1085.58	20.3691
1087.22	20.2251
1088.86	21.2076
1090.5	22.6862
1092.14	24.5745
1093.78	25.0302
1095.42	25.722
1097.05	27.1196
1098.69	26.9118
1100.33	27.391
1101.96	27.8604
1103.6	26.5956
1105.24	26.4481
1106.87	26.0331
1108.51	25.3342
1110.14	24.9032
1111.78	23.6214
1113.41	22.9953
1115.05	22.3859
1116.68	21.7716
1118.31	20.0653
1119.95	19.1363
1121.58	18.8148
1123.21	18.0128
1124.85	15.5866
1126.48	14.8442
1128.11	14.066
1129.74	13.4195
1131.37	13.6022
1133	11.8974
1134.63	10.6663
1136.26	10.4978
1137.89	9.79583
1139.52	9.69622
1141.15	10.146
1142.78	10.393
1144.41	9.65176
1146.04	9.65469
1147.66	9.41991
1149.29	8.63415
1150.92	7.49173
1152.55	7.32351
1154.17	7.78553
1155.8	7.89616
1157.43	7.78422
1159.05	7.77395
1160.68	7.82442
1162.3	7.26635
1163.93	7.97707
1165.55	7.50253
1167.17	8.39119
1168.8	9.00248
1170.42	10.0906
1172.05	10.5647
1173.67	11.4359
1175.29	11.8052
1176.91	12.4087
1178.54	13.2742
1180.16	13.6405
1181.78	14.1779
1183.4	14.1271
1185.02	13.8677
1186.64	14.8136
1188.26	15.6367
1189.88	16.9194
1191.5	17.9831
1193.12	19.4997
1194.74	21.0102
1196.36	22.1349
1197.97	23.38
1199.59	24.673
1201.21	26.9532
1202.83	28.0376
1204.44	28.619
1206.06	30.4912
1207.68	32.9909
1209.29	35.3174
1210.91	37.6087
1212.52	39.542
1214.14	41.4006
1215.75	44.25
1217.37	47.2332
1218.98	48.9365
1220.59	51.5629
1222.21	53.5338
1223.82	54.5819
1225.43	55.8374
1227.05	57.6311
1228.66	58.4365
1230.27	59.3545
1231.88	60.3749
1233.49	62.2285
1235.1	63.1296
1236.72	63.573
1238.33	64.2109
1239.94	64.3173
1241.55	65.0447
1243.16	65.2887
1244.76	66.0848
1246.37	66.1874
1247.98	66.2685
1249.59	65.9995
1251.2	66.456
1252.8	66.4538
1254.41	65.7105
1256.02	65.8499
1257.62	65.0483
1259.23	64.6014
1260.84	63.08
1262.44	63.0348
1264.05	63.1703
1265.66	63.9438
1267.26	64.1484
1268.86	64.3264
1270.47	64.6791
1272.07	64.562
1273.67	64.9879
1275.28	64.6369
1276.88	64.7143
1278.48	64.3151
1280.09	64.7731
1281.69	65.2557
1283.29	65.9759
1284.89	67.0406
1286.49	69.0245
1288.09	69.7393
1289.69	70.4285
1291.29	71.6658
1292.89	72.3924
1294.49	73.3102
1296.09	74.3173
1297.69	75.6787
1299.29	76.9747
1300.89	78.8944
1302.49	79.5946
1304.08	80.7313
1305.68	81.6095
1307.28	82.2876
1308.88	83.0989
1310.47	84.4881
1312.07	85.275
1313.66	86.0286
1315.26	86.0161
1316.85	86.7724
1318.45	87.6871
1320.04	88.0433
1321.64	88.8618
1323.23	89.3784
1324.83	88.9271
1326.42	88.3805
1328.01	87.4468
1329.61	87.7417
1331.2	86.8763
1332.79	85.5999
1334.38	84.336
1335.97	84.0914
1337.56	82.354
1339.16	81.9521
1340.75	81.9736
1342.34	81.9703
1343.93	80.4428
1345.52	79.2139
1347.11	77.5854
1348.7	75.4515
1350.29	74.4296
1351.87	72.8209
1353.46	71.2795
1355.05	69.6992
1356.64	67.5017
1358.22	66.6043
1359.81	65.8894
1361.4	65.4743
1362.98	64.0176
1364.57	62.6097
1366.16	61.3863
1367.74	59.7371
1369.33	58.1373
1370.91	56.8771
1372.5	55.0954
1374.08	54.414
1375.67	54.2599
1377.25	53.9449
1378.83	53.8712
1380.41	52.6098
1382	51.5743
1383.58	51.1342
1385.16	50.0431
1386.74	49.7636
1388.33	49.5592
1389.91	48.7358
1391.49	46.8906
1393.07	46.0598
1394.65	45.813
1396.23	44.9146
1397.81	44.3456
1399.39	43.5926
1400.97	43.5731
1402.55	43.5649
1404.13	42.6101
1405.7	42.3827
1407.28	42.5932
1408.86	42.5132
1410.44	42.4069
1412.01	43.7053
1413.59	45.0835
1415.17	47.1218
1416.74	48.6963
1418.32	50.2712
1419.89	51.672
1421.47	52.6289
1423.04	53.8612
1424.62	55.8787
1426.19	57.1467
1427.77	59.6893
1429.34	62.7348
1430.91	64.9556
1432.49	67.8758
1434.06	71.2755
1435.63	73.6374
1437.2	76.4887
1438.78	78.2994
1440.35	80.5243
1441.92	81.2797
1443.49	82.8932
1445.06	83.8366
1446.63	84.4287
1448.2	84.0051
1449.77	84.7475
1451.34	84.8743
1452.91	85.2342
1454.48	84.7181
1456.05	83.1387
1457.62	81.3955
1459.18	79.9502
1460.75	78.5154
1462.32	76.0506
1463.89	73.9446
1465.45	71.1664
1467.02	67.8215
1468.59	63.6533
1470.15	60.2536
1471.72	57.9268
1473.28	54.9033
1474.85	51.4679
1476.41	48.3591
1477.98	44.7249
1479.54	41.8432
1481.1	38.5115
1482.67	35.3811
1484.23	32.6778
1485.79	31.5201
1487.36	29.6853
1488.92	28.5558
1490.48	27.0678
1492.04	26.0559
1493.61	23.8741
1495.17	21.865
1496.73	20.386
1498.29	19.99
1499.85	18.9865
1501.41	18.1245
1502.97	18.7056
1504.53	19.1049
1506.09	19.3778
1507.65	18.581
1509.2	19.5038
1510.76	20.2143
1512.32	20.2512
1513.88	20.5528
1515.43	20.9022
1516.99	20.6647
1518.55	21.5865
1520.1	21.4381
1521.66	21.3351
1523.22	21.7649
1524.77	22.4249
1526.33	22.3078
1527.88	23.1276
1529.44	23.8649
1530.99	25.0035
1532.54	24.9823
1534.1	25.0462
1535.65	26.6163
1537.21	28.2518
1538.76	28.0741
1540.31	28.1081
1541.86	28.4631
1543.42	28.3934
1544.97	29.918
1546.52	30.4602
1548.07	32.5422
1549.62	34.2807
1551.17	34.747
1552.72	35.6016
1554.27	35.7903
1555.82	37.4809
1557.37	39.4115
1558.92	41.2401
1560.47	43.7645
1562.02	45.8308
1563.56	47.1573
1565.11	47.113
1566.66	47.6902
1568.21	48.4741
1569.75	49.0395
1571.3	49.5951
1572.85	51.2796
1574.39	52.711
1575.94	53.4862
1577.49	53.8202
1579.03	55.6734
1580.57	58.6063
1582.12	59.5821
1583.66	60.4493
1585.21	61.928
1586.75	64.49
1588.3	65.0781
1589.84	65.552
1591.38	66.5911
1592.92	67.1471
1594.47	67.3684
1596.01	67.7474
1597.55	68.0219
1599.09	68.6987
1600.63	68.983
1602.17	69.3938
1603.71	68.8358
1605.25	69.3904
1606.79	69.6352
1608.33	69.1782
1609.87	68.5662
1611.41	68.4069
1612.95	68.0203
1614.49	67.8278
1616.03	67.2186
1617.57	67.0055
1619.1	67.8993
1620.64	69.2445
1622.18	70.1482
1623.72	69.9858
1625.25	70.6337
1626.79	71.1826
1628.32	71.7579
1629.86	73.3329
1631.39	74.5015
1632.93	76.6336
1634.46	77.9153
1636	79.3682
1637.53	79.8901
1639.07	80.4303
1640.6	80.904
1642.13	82.0867
1643.67	83.7125
1645.2	85.3473
1646.73	86.2202
1648.26	87.8666
1649.8	88.3805
1651.33	89.4489
1652.86	90.1177
1654.39	91.2124
1655.92	93.1523
1657.45	94.2754
1658.98	93.5552
1660.51	93.2691
1662.04	92.9908
1663.57	92.8734
1665.1	92.027
1666.63	91.2133
1668.16	90.5029
1669.68	88.8378
1671.21	86.4438
1672.74	84.5709
1674.27	82.8701
1675.79	80.6048
1677.32	77.5879
1678.85	74.9459
1680.37	72.1114
1681.9	69.1007
1683.42	65.9206
1684.95	62.9295
1686.47	60.3531
1688	57.6584
1689.52	54.8778
1691.05	52.1894
1692.57	49.3166
1694.09	46.231
1695.62	44.2507
1697.14	41.2356
1698.66	37.8207
1700.18	35.6438
1701.71	33.8694
1703.23	32.436
1704.75	30.0298
1706.27	28.1224
1707.79	26.1148
1709.31	25.0663
1710.83	23.927
1712.35	22.7366
1713.87	21.0608
1715.39	20.2408
1716.91	19.1536
1718.43	17.5973
1719.95	16.4291
1721.47	15.676
1722.99	14.1189
1724.5	13.4645
1726.02	12.4583
1727.54	11.5606
1729.06	10.9455
1730.57	10.9748
1732.09	11.1469
1733.61	10.6305
1735.12	10.0194
1736.64	9.66475
1738.15	9.51707
1739.67	9.55033
1741.18	9.05231
1742.7	8.14954
1744.21	7.67458
1745.72	6.80481
1747.24	5.98317
1748.75	5.48013
1750.26	5.41487
1751.77	5.43221
1753.29	4.64111
1754.8	4.56031
1756.31	4.24012
1757.82	3.38053
1759.33	2.9569
1760.84	3.00219
1762.36	3.09513
1763.87	2.83216
1765.38	2.35757
1766.89	1.28409
1768.4	1.3042
1769.91	0.266377
1771.41	0.782565
1772.92	0.400254
1774.43	-0.0260583
1775.94	0.582634
1777.45	0.797628
1778.95	0.380207
1780.46	0.329723
1781.97	1.21177
1783.48	1.60822
1784.98	1.80435
1786.49	1.59934
1787.99	1.22691
1789.5	0.746431
1791.01	0.954126
1792.51	0.631274
1794.01	-0.06103
1795.52	-0.358711
1797.02	-0.569421
1798.53	-0.825359
1800.03	-0.650011
1801.53	-0.472953
1803.04	-0.548409
1804.54	0.170237
1806.04	0.431559
1807.54	0.720129
1809.05	0.89076
1810.55	1.2142
1812.05	1.23503
1813.55	1.26649
1815.05	1.33195
1816.55	1.14651
1818.05	1.15621
1819.55	1.52799
1821.05	1.86832
1822.55	2.43014
1824.05	3.22704
1825.55	3.98668
1827.05	3.96118
1828.55	4.23529
1830.04	4.43944
1831.54	4.36587
1833.04	4.80967
1834.54	5.40889
1836.03	5.7679
1837.53	5.71638
1839.03	5.79565
1840.52	5.79035
1842.02	5.45061
1843.51	5.84392
1845.01	5.78987
1846.5	5.9907
1848	6.24668
1849.49	6.4022
1850.99	7.38007
1852.48	7.98171
1853.97	7.95218
1855.47	8.63306
1856.96	9.3422
1858.45	9.13838
1859.94	9.12879
1861.44	8.99916
1862.93	8.59148
1864.42	8.96255
1865.91	8.96291
1867.4	8.58745
1868.89	8.72017
1870.38	8.63941
1871.87	8.87374
1873.36	8.98114
1874.85	8.76873
1876.34	8.82917
1877.83	8.87934
1879.32	8.99147
1880.81	9.46812
1882.3	9.63046
1882.57	9.64826
1884.07	9.30117
1885.56	9.11183
1887.06	9.59255
1888.55	9.78295
1890.04	10.0756
1891.54	10.2275
1893.03	10.6999
1894.52	9.91613
1896.02	10.0018
1897.51	9.74111
1899	9.54143
1900.49	9.28401
1901.98	9.80399
1903.47	9.40043
1904.96	9.06662
1906.45	9.27821
1907.94	9.145
1909.43	8.75949
1910.92	7.87112
1912.41	7.80027
1913.9	7.56421
1915.39	7.03125
1916.88	7.35258
1918.37	7.38245
1919.85	7.65908
1921.34	8.19172
1922.83	7.80416
1924.32	8.68913
1925.8	8.61536
1927.29	8.26345
1928.78	8.33566
1930.26	8.59839
1931.75	8.75087
1933.23	8.30795
1934.72	7.77683
1936.2	7.70983
1937.69	8.65906
1939.17	8.71274
1940.66	8.95558
1942.14	9.07057
1943.63	8.74209
1945.11	8.89427
1946.59	8.88835
1948.07	9.00405
1949.56	9.46185
1951.04	9.87856
1952.52	9.78812
1954	9.96313
1955.48	10.1281
1956.96	10.3634
1958.45	10.3898
1959.93	10.4678
1961.41	10.5922
1962.89	10.1871
1964.37	10.5992
1965.85	10.1868
1967.32	9.62099
1968.8	9.37801
1970.28	10.0246
1971.76	9.88438
1973.24	9.96023
1974.72	10.2922
1976.19	9.8521
1977.67	9.2455
1979.15	9.05131
1980.63	8.92932
1982.1	8.33526
1983.58	8.11352
1985.05	8.22526
1986.53	8.84349
1988	8.81544
1989.48	8.71825
1990.95	8.71837
1992.43	7.88584
1993.9	7.44856
1995.38	7.94377
1996.85	7.91833
1998.32	8.69273
1999.8	8.132
2001.27	8.04057
2002.74	8.15757
2004.22	8.32744
2005.69	8.20834
2007.16	8.12848
2008.63	8.48697
2010.1	9.10392
2011.57	9.85968
2013.04	9.7209
2014.51	9.77426
2015.98	10.0319
2017.45	10.0039
2018.92	10.5754
2020.39	11.02
2021.86	11.1257
2023.33	11.1597
2024.8	11.1916
2026.27	11.0068
2027.74	11.3584
2029.2	11.8481
2030.67	11.6644
2032.14	11.9487
2033.61	12.0328
2035.07	12.2693
2036.54	12.2952
2038.01	12.2463
2039.47	12.4433
2040.94	13.1343
2042.4	13.432
2043.87	13.4691
2045.33	14.201
2046.8	14.4012
2048.26	14.9019
2049.72	14.5269
2051.19	15.0004
2052.65	15.2777
2054.12	15.8014
2055.58	16.2849
2057.04	16.2868
2058.5	16.4883
2059.97	15.9056
2061.43	15.777
2062.89	15.6944
2064.35	15.6768
2065.81	15.8458
2067.27	16.1545
2068.73	16.6448
2070.19	16.2997
2071.65	15.7762
2073.11	15.6301
2074.57	15.1259
2076.03	14.6189
2077.49	14.957
2078.95	15.1426
2080.41	15.5953
2081.87	15.2852
2083.32	15.6314
2084.78	15.7361
2086.24	15.757
2087.7	15.7379
2089.15	15.3998
2090.61	15.164
2092.07	15.3014
2093.52	15.2683
2094.98	15.086
2096.43	15.0427
2097.89	15.3748
2099.34	15.3278
2100.8	15.3422
2102.25	15.2406
2103.71	15.2085
2105.16	15.6228
2106.61	16.1472
2108.07	16.112
2109.52	16.7478
2110.97	17.0101
2112.43	17.3029
2113.88	17.3637
2115.33	17.5082
2116.78	18.5404
2118.23	19.1467
2119.68	19.352
2121.13	19.6272
2122.59	19.6712
2124.04	20.1523
2125.49	20.9091
2126.94	21.8057
2128.39	22.1303
2129.83	22.4598
2131.28	23.1705
2132.73	23.6043
2134.18	24.1535
2135.63	24.1544
2137.08	24.2731
2138.53	24.4783
2139.97	24.7571
2141.42	25.349
2142.87	26.1777
2144.31	26.3892
2145.76	26.778
2147.21	27.218
2148.65	27.9542
2150.1	28.6886
2151.54	29.5661
2152.99	30.6523
2154.43	31.0504
2155.88	32.326
2157.32	32.8059
2158.77	33.147
2160.21	33.3101
2161.65	33.6695
2163.1	34.4
2164.54	34.9845
2165.98	35.5259
2167.43	35.6126
2168.87	35.7314
2170.31	35.3351
2171.75	35.0999
2173.19	35.6774
2174.64	35.9793
2176.07	36.2643
2177.52	36.296
2178.96	36.2686
2180.4	35.969
2181.84	36.492
2183.28	35.9469
2184.72	36.1807
2186.15	36.9585
2187.59	36.7126
2189.03	36.7248
2190.47	36.0306
2191.91	35.3997
2193.35	34.5422
2194.78	34.7708
2196.22	34.5359
2197.66	34.3128
2199.09	33.8524
2200.53	32.8807
2201.97	31.9651
2203.4	31.3096
2204.84	30.3785
2206.27	29.3137
2207.71	28.5082
2209.14	28.4964
2210.58	27.6707
2212.01	27.0806
2213.45	27.0276
2214.88	26.414
2216.31	25.69
2217.75	24.4165
2219.18	23.8148
2220.61	22.8957
2222.05	22.4757
2223.48	22.1484
2224.91	21.5656
2226.34	21.1428
2227.78	20.7396
2229.21	19.7629
2230.64	18.9417
2232.07	18.4519
2233.5	18.1409
2234.93	17.7283
2236.36	17.4616
2237.79	16.861
2239.22	16.526
2240.65	16.2524
2242.08	15.9045
2243.5	15.8684
2244.93	16.148
2246.36	15.6746
2247.79	15.7042
2249.22	15.4459
2250.64	15.4946
2252.07	15.6357
2253.5	15.665
2254.92	15.2237
2256.35	15.255
2257.78	15.0849
2259.2	14.3225
2260.63	14.36
2262.05	13.9083
2263.48	13.5471
2264.9	13.6557
2266.33	13.5768
2267.75	13.1649
2269.18	13.1122
2270.6	12.8306
2272.02	13.3922
2273.45	13.8716
2274.87	14.2178
2276.29	13.7799
2277.71	13.4858
2279.14	13.6719
2280.56	13.8475
2281.98	13.4842
2283.4	14.2239
2284.82	14.2086
2286.24	13.6624
2287.66	13.1542
2289.08	12.6322
2290.5	12.8581
2291.92	12.3627
2293.34	11.4384
2294.76	11.4655
2296.18	11.3791
2297.6	11.1798
2299.02	11.1024
2300.44	11.0981
2301.86	11.7776
2303.27	12.0082
2304.69	12.4803
2306.11	12.1671
2307.53	12.0478
2308.94	12.0149
2310.36	12.1174
2311.78	12.1242
2313.19	11.7255
2314.61	12.0189
2316.02	12.1436
2317.44	12.0922
2318.85	12.152
2320.27	11.7909
2321.68	11.5139
2323.1	10.7423
2324.51	10.2608
2325.92	9.44889
2327.34	9.49615
2328.75	9.39264
2330.16	8.81292
2331.58	8.63861
2332.99	8.69416
2334.4	8.43353
2335.81	8.60169
2337.23	8.37156
2338.64	8.51938
2340.05	8.41282
2341.46	8.78693
2342.87	9.31257
2344.28	8.89713
2345.69	8.24341
2347.1	7.62057
2348.51	6.95828
2349.92	7.21403
2351.33	6.7945
2352.74	6.66361
2354.15	6.17068
2355.55	5.31535
2356.96	5.05066
2358.37	4.63181
2359.78	4.45401
2361.19	3.48215
2362.59	2.82016
2364	3.1035
2365.41	3.87985
2366.81	3.44876
2368.22	3.56207
2369.62	4.28317
2371.03	4.47775
2372.44	4.41474
2373.84	3.86783
2375.24	3.88408
2376.65	3.23885
2378.05	3.3163
2379.46	3.7337
2380.86	3.78063
2382.26	3.81208
2383.67	3.56434
2385.07	4.09469
2386.47	4.25633
2387.88	4.30715
2389.28	4.2716
2390.68	3.8886
2392.08	3.98703
2393.48	3.78166
2394.89	4.09812
2396.29	4.04684
2397.69	4.7588
2399.09	4.7704
2400.49	4.75228
2401.89	4.70586
2403.29	4.91427
2404.69	4.37192
2406.09	4.61921
2407.48	4.34528
2408.88	4.75579
2410.28	5.52077
2411.68	5.47608
2413.08	5.74098
2414.48	5.62158
2415.87	5.56024
2417.27	5.85462
2418.67	6.18079
2420.06	7.08899
2421.46	7.03247
2422.86	6.98067
2424.25	7.14809
2425.65	7.55526
2427.04	7.74581
2428.44	7.79565
2429.83	7.75615
2431.23	7.94677
2432.62	7.85493
2434.02	8.07016
2435.41	7.87636
2436.81	7.39051
2438.2	7.20045
2439.59	7.42451
2440.99	6.6856
2442.38	6.38995
2443.77	6.2138
2445.16	5.85881
2446.56	5.6204
2447.95	5.49798
2449.34	5.34515
2450.73	5.20923
2452.12	5.04868
2453.51	4.8518
2454.9	4.56074
2456.29	4.54219
2457.68	3.77434
2459.07	3.97228
2460.46	3.64044
2461.85	3.45404
2463.24	2.73514
2464.63	2.0023
2466.02	1.6707
2467.4	1.48924
2468.79	1.3632
2470.18	1.41054
2471.57	0.77653
2472.95	1.03761
2474.34	0.695272
2475.73	0.77115
2477.12	0.289049
2478.5	0.525173
2479.89	0.607352
2481.27	0.0753739
2482.66	0.614782
2484.04	0.193305
2485.43	0.812208
2486.81	0.79992
2488.2	1.15876
2489.58	0.965815
2490.97	1.0253
2492.35	1.15036
2493.73	1.38122
2495.12	1.41499
2496.5	1.07075
2497.88	0.897151
2499.27	0.629084
2500.65	0.370201
2502.03	-0.484984
2503.41	-0.459271
2504.79	-1.13179
2506.17	-1.63702
2507.56	-1.44197
2508.94	-1.27559
2510.32	-1.18221
2511.7	-1.19053
2513.08	-1.62031
2514.46	-2.01403
2515.84	-2.0147
2517.22	-2.1741
2518.59	-1.68954
2519.97	-1.34522
2521.35	-1.75776
2522.73	-1.75157
2524.11	-1.43986
2525.49	-0.891426
2526.86	-0.767373
2528.24	-0.160244
2529.62	-0.133006
2530.99	0.0739387
2532.37	0.374649
2533.75	0.378578
2535.12	0.854062
2536.5	0.904937
2537.88	1.48126
2539.25	1.26047
2540.63	0.625396
2542	0.860232
2543.38	0.964223
2544.75	0.717914
2546.12	1.01301
2547.5	1.56806
2548.87	1.74423
2550.24	1.82249
2551.62	2.31583
2552.99	2.76325
2554.36	3.3418
2555.74	3.29095
2557.11	3.65186
2558.48	3.20584
2559.85	3.64398
2561.22	3.34687
2562.59	2.9897
2563.96	3.30931
2565.34	3.19098
2566.71	3.13165
2568.08	3.2169
2569.45	3.43009
2570.82	3.68989
2572.18	4.13633
2573.55	4.40698
2574.92	4.54101
2576.29	4.91635
2577.66	5.21186
2579.03	4.88751
2580.4	4.40165
2581.77	3.93125
2583.13	4.11559
2584.5	4.47834
2585.87	4.40091
2587.23	4.79028
2588.6	4.52193
2589.97	3.97495
2591.33	4.1141
2592.7	3.7999
2594.06	3.73633
2595.43	3.60213
2596.79	3.74451
2598.16	3.79653
2599.52	3.22757
2600.89	2.74603
2602.25	2.32972
2603.62	1.89411
2604.98	2.02416
2606.34	1.76338
2607.71	1.39188
2609.07	1.34593
2610.43	1.4759
2611.79	1.28513
2613.16	0.798341
2614.52	0.910632
2615.88	1.02941
2617.24	0.66513
2618.6	0.423161
2619.96	0.452982
2621.32	0.360864
2622.68	-0.217632
2624.04	-0.647031
2625.4	-1.06329
2626.76	-1.12848
2628.12	-0.937569
2629.48	-1.1543
2630.84	-0.68277
2632.2	-0.135328
2633.56	0.311369
2634.92	-0.0375601
2636.28	0.582295
2637.63	0.870486
2638.99	1.01637
2640.35	0.819394
2641.71	0.884734
2643.06	0.324628
2644.42	0.503045
2645.77	0.463217
2647.13	0.263423
2648.49	0.59875
2649.84	0.405058
2651.2	0.614957
2652.55	0.364192
2653.91	-0.132535
2655.26	0.600402
2656.62	0.244949
2657.97	0.25892
2659.33	0.282905
2660.68	0.468707
2662.03	1.02619
2663.39	1.05592
2664.74	1.55732
2666.09	1.79374
2667.44	1.80803
2668.8	2.1153
2670.15	2.4433
2671.5	2.82089
2672.85	3.7547
2674.2	3.10313
2675.55	3.63047
2676.91	3.67087
2678.26	3.47196
2679.61	3.58764
2680.96	4.03462
2682.31	4.16076
2683.66	4.44661
2685	4.49746
2686.35	4.80731
2687.7	5.08073
2689.05	5.3582
2690.4	5.15882
2691.75	5.60204
2693.1	6.26238
2694.44	6.72081
2695.79	7.19851
2697.14	7.84864
2698.49	8.37509
2699.83	8.57808
2701.18	8.81196
2702.52	8.58612
2703.87	9.58511
2705.22	9.61018
2706.56	9.30236
2707.91	9.83282
2709.25	10.2691
2710.6	10.5811
2711.94	11.5551
2713.29	11.6911
2714.63	11.8294
2715.97	11.315
2717.32	11.2002
2718.66	11.592
2720.01	11.8308
2721.35	12.3401
2722.69	13.2875
2724.03	12.7963
2725.38	12.9907
2726.72	13.1126
2728.06	13.4978
2729.4	13.329
2730.74	13.8853
2732.08	14.2105
2733.42	14.3525
2734.76	14.1108
2736.1	13.8031
2737.44	13.8667
2738.78	13.4885
2740.12	13.1308
2741.46	12.6309
2742.8	12.7073
2744.14	12.3434
2745.48	11.9907
2746.82	12.2619
2748.16	12.1076
2749.49	11.9206
2750.83	11.5175
2752.17	10.9575
2753.51	10.4108
2754.84	10.1974
2756.18	9.77853
2757.52	9.13798
2758.85	8.70842
2760.19	7.96066
2761.53	7.62023
2762.86	7.5842
2764.2	7.11573
2765.53	6.5682
2766.87	6.66202
2768.2	6.37946
2769.54	6.68988
2770.87	7.08242
2772.2	6.9542
2773.54	6.74549
2774.87	7.48307
2776.2	7.07174
2777.54	6.93282
2778.87	7.1259
2780.2	6.81193
2781.53	6.53898
2782.87	6.66153
2784.2	6.98646
2785.53	6.70499
2786.86	6.63917
2788.19	6.58998
2789.52	6.089
2790.85	5.98711
2792.18	6.36293
2793.51	6.7034
2794.84	7.01896
2796.17	7.10616
2797.5	7.74438
2798.83	7.51473
2800.16	7.80178
2801.49	8.04241
2802.82	7.95574
2804.15	8.49781
2805.47	8.47859
2806.8	9.01945
2808.13	9.61474
2809.46	9.52203
2810.78	9.63404
2812.11	9.6993
2813.44	10.0628
2814.76	10.5385
2816.09	10.9598
2817.42	10.8384
2818.74	11.0199
2820.07	11.8639
2821.39	12.4417
2822.72	12.6972
2824.04	14.112
2825.37	15.6715
2826.69	17.2113
2828.02	18.9054
2829.34	21.0949
2830.66	22.5519
2831.99	24.314
2833.31	26.4026
2834.63	28.2231
2835.96	30.7414
2837.28	33.127
2838.6	35.2417
2839.92	38.0525
2841.24	41.5029
2842.57	44.3375
2843.89	47.6458
2845.21	51.4564
2846.53	55.113
2847.85	59.0093
2849.17	63.8432
2850.49	68.5898
2851.81	73.4121
2853.13	79.43
2854.45	84.2131
2855.77	89.8664
2857.09	95.8469
2858.41	101.694
2859.72	106.933
2861.04	111.933
2862.36	116.701
2863.68	122.173
2865	127.035
2866.31	131.266
2867.63	135.835
2868.95	139.992
2870.26	144.71
2871.58	148.485
2872.9	152.333
2874.21	155.543
2875.53	158.437
2876.84	161.414
2878.16	164.033
2879.47	166.61
2880.79	168.863
2882.1	170.9
2883.42	172.658
2884.73	175.086
2886.05	177.421
2887.36	180.539
2888.67	183.354
2889.99	185.809
2891.3	188.538
2892.61	190.858
2893.92	193.201
2895.24	196.492
2896.55	198.869
2897.86	202.465
2899.17	205.91
2900.48	210.219
2901.79	214.158
2903.11	218.525
2904.42	223.438
2905.73	229.19
2907.04	234.859
2908.35	240.992
2909.66	247.677
2910.97	254.804
2912.27	261.882
2913.58	268.869
2914.89	276.329
2916.2	283.157
2917.51	289.807
2918.82	296.474
2920.13	301.526
2921.43	307.052
2922.74	311.629
2924.05	315.692
2925.35	319.256
2926.66	322.079
2927.97	323.95
2929.27	326.288
2930.58	326.862
2931.89	327.022
2933.19	327.317
2934.5	326.352
2935.8	325.343
2937.11	322.938
2938.41	320.11
2939.72	316.724
2941.02	312.744
2942.32	309.135
2943.63	304.657
2944.93	299.927
2946.24	294.975
2947.54	290.297
2948.84	284.934
2950.14	279.553
2951.45	274.199
2952.75	268.591
2954.05	262.405
2955.35	256.394
2956.65	250.541
2957.95	243.91
2959.26	238.069
2960.56	232.639
2961.86	226.473
2963.16	220.577
2964.46	214.472
2965.76	209.403
2967.06	204.172
2968.36	199.903
2969.66	195.639
2970.96	191.04
2972.25	186.524
2973.55	182.335
2974.85	177.429
2976.15	173.2
2977.45	168.755
2978.74	164.427
2980.04	159.75
2981.34	155.168
2982.64	150.357
2983.93	145.153
2985.23	139.973
2986.52	135.183
2987.82	130.26
2989.12	124.874
2990.41	119.777
2991.71	114.417
2993	109.331
2994.3	104.712
2995.59	99.5521
2996.89	95.1204
2998.18	91.0014
2999.48	86.8529
3000.77	82.8801
3002.06	78.32
3003.36	74.8689
3004.65	71.489
3005.94	67.6445
3007.23	64.8107
3008.53	60.9883
3009.82	57.86
3011.11	55.4118
3012.4	53.0072
3013.69	50.6544
3014.99	48.5645
3016.28	46.9301
3017.57	44.9225
3018.86	43.4239
3020.15	41.4385
3021.44	39.6996
3022.73	38.2626
3024.02	37.5559
3025.31	36.3362
3026.6	35.8058
3027.89	35.1123
3029.18	34.8227
3030.46	34.7212
3031.75	34.7191
3033.04	34.2311
3034.33	33.8365
3035.62	34.1143
3036.9	34.4516
3038.19	35.2405
3039.48	35.6167
3040.76	36.3238
3042.05	36.9907
3043.34	37.6586
3044.62	38.216
3045.91	39.1692
3047.19	39.4412
3048.48	40.2203
3049.77	40.2956
3051.05	40.2262
3052.34	40.1407
3053.62	39.6354
3054.9	39.6936
3056.19	39.5909
3057.47	39.0571
3058.76	38.895
3060.04	38.5105
3061.32	37.6729
3062.61	37.1872
3063.89	35.9467
3065.17	35.2817
3066.45	34.3714
3067.74	33.686
3069.02	31.9608
3070.3	30.035
3071.58	29.3309
3072.86	27.8437
3074.14	26.478
3075.42	25.0245
3076.7	23.5243
3077.99	22.0842
3079.26	20.4159
3080.54	18.5119
3081.82	16.767
3083.1	15.1084
3084.38	13.4681
3085.66	12.2444
3086.94	10.9135
3088.22	10.0362
3089.5	8.96484
3090.78	8.03208
3092.05	6.54508
3093.33	5.81693
3094.61	5.15266
3095.89	5.02982
3097.16	4.27523
3098.44	4.38956
3099.72	4.78063
3100.99	4.42933
3102.27	4.24877
3103.54	3.92185
3104.82	3.83451
3106.1	3.90882
3107.37	3.51605
3108.65	3.18986
3109.92	3.18343
3111.2	2.95162
3112.47	2.85124
3113.74	2.4092
3115.02	2.3295
3116.29	1.96082
3117.56	2.01062
3118.84	2.28172
3120.11	2.39696
3121.38	2.23987
3122.66	2.16145
3123.93	1.7026
3125.2	1.77212
3126.47	2.21315
3127.74	1.84921
3129.01	2.22414
3130.29	1.77114
3131.56	1.35052
3132.83	0.750866
3134.1	0.543531
3135.37	0.762256
3136.64	0.07604
3137.91	-0.134306
3139.18	-0.245113
3140.45	-0.3261
3141.72	-0.627253
3142.99	-0.875022
3144.26	-1.00497
3145.52	-1.07026
3146.79	-1.02503
3148.06	-0.986205
3149.33	-1.61216
