#Acq. time (s)=	45
#Accumulations=	2
#Range (cm-¹)=	200...3150
#Windows=	2
#Auto scanning=	Off
#Autofocus=	Off
#Macrospot=	Off
#AutoExposure=	Off
#Spike filter=	Multiple accum.
#Delay time (s)=	0
#Binning=	1
#Readout mode=	Signal
#DeNoise=	Off
#ICS correction=	On
#Dark correction=	Off
#Inst. Process=	Off
#Detector Gain=	Best Dynamic Range
#Detector ADC=	20 kHz       
#Detector temperature (°C)=	-69.85
#Instrument=	LabRAM HR Evol
#Detector=	Synapse
#Objective=	x100
#Grating=	600 gr/mm
#ND Filter=	100%
#Laser (nm)=	532 
#Hole=	100.021
#Range=	Auto
#Laser Pol.=	No
#Raman. Pol.=	No
#Laser Pol. (°)=	-0.0007625
#Raman Pol. (°)=	89.9995
#Collection=	Microscope
#StageXY=	Marzhauser
#StageZ=	Marzhauser
#X (µm)=	-5916
#Y (µm)=	2874
#Z (µm)=	-222.75
#Full time(mm:ss)=	3:15
#Project=	
#Sample=	
#Site=	
#Title=	Thy_20_09_33_2x_45s_532 nm_x100_100%_600 gr_mm
#Remark=	
#Date=	29.06.2022 12:58
#Acquired=	29.06.2022 12:58:25
#Base:Fit=	10.08.2022 09:52:02
#Base:Fit=	10.08.2022 09:52:12
#Base:Sub=	10.08.2022 09:54:21
#Filter:Polynom=	16.08.2022 10:24:04
#AxisType[0]=Intens
#AxisUnit[0]=Cnt
#AxisType[1]=Spectr
#AxisUnit[1]=1/cm
200.523	21.8577
202.339	19.5913
204.154	18.1268
205.967	17.8252
207.781	17.4102
209.596	17.0181
211.409	16.3633
213.222	16.1863
215.034	14.7241
216.848	14.4439
218.659	13.0248
220.47	11.5796
222.281	10.1353
224.091	10.0952
225.903	9.67938
227.713	9.90192
229.522	10.1067
231.331	9.73806
233.14	9.69266
234.948	9.14792
236.756	8.91403
238.566	7.66619
240.373	6.7233
242.18	7.10843
243.986	6.80055
245.792	6.73892
247.598	6.9827
249.403	7.13162
251.208	7.87925
253.013	7.28707
254.818	6.95076
256.624	6.92803
258.427	6.42932
260.231	6.28657
262.034	6.15491
263.836	6.60606
265.638	6.47297
267.44	6.22983
269.242	5.93113
271.043	5.90597
272.844	7.5281
274.645	8.21729
276.445	8.6312
278.245	7.85305
280.044	7.83866
281.843	8.74626
283.642	9.21422
285.44	9.00159
287.238	9.34749
289.036	9.97549
290.833	10.5971
292.63	10.6889
294.425	11.3247
296.221	11.536
298.017	11.9521
299.813	12.4986
301.608	12.2941
303.403	13.4227
305.198	13.7162
306.992	14.9837
308.786	15.2245
310.579	15.7916
312.371	16.9656
314.163	18.3436
315.956	18.8193
317.748	19.0884
319.54	18.9314
321.331	18.9534
323.122	19.1592
324.911	18.9548
326.701	19.0514
328.491	18.9567
330.281	19.7181
332.071	20.9122
333.857	20.2721
335.646	19.5147
337.434	18.8006
339.222	18.0831
341.008	17.3888
342.795	16.2983
344.582	16.376
346.369	15.3926
348.153	14.6041
349.939	14.0444
351.724	14.2686
353.51	13.8719
355.292	13.4038
357.077	12.3452
358.861	10.9278
360.643	9.58569
362.426	9.19662
364.21	7.85446
365.99	6.43868
367.773	5.9147
369.555	5.63735
371.335	6.18614
373.116	5.35597
374.897	4.68549
376.676	4.37766
378.456	4.65354
380.236	5.1079
382.014	5.56024
383.793	5.65096
385.57	5.77048
387.349	6.02504
389.127	6.11935
390.903	6.08608
392.681	6.76098
394.456	6.82062
396.233	7.29703
398.007	8.27792
399.784	8.42355
401.56	8.81461
403.333	8.84325
405.108	8.47312
406.881	8.19047
408.656	8.8004
410.428	10.1434
412.202	10.2907
413.973	10.2701
415.746	10.543
417.517	10.9601
419.29	11.3001
421.06	10.9405
422.831	10.2957
424.601	10.2748
426.37	10.8187
428.141	10.4556
429.909	10.5833
431.679	10.9455
433.447	11.381
435.216	10.6613
436.983	11.2221
438.75	10.8239
440.519	10.0568
442.285	9.04962
444.052	8.83154
445.818	8.26054
447.583	7.44439
449.349	7.7737
451.114	7.66003
452.878	7.33451
454.643	8.03438
456.407	9.0462
458.169	8.55556
459.934	8.92866
461.696	8.90937
463.458	9.42936
465.222	9.8242
466.983	10.6352
468.744	11.5926
470.507	11.5037
472.267	11.0905
474.027	11.8376
475.787	11.7194
477.548	12.1594
479.307	13.1041
481.065	13.7301
482.823	14.6498
484.583	15.3989
486.341	16.1753
488.098	16.0418
489.855	16.0123
491.612	16.661
493.37	16.9532
495.126	17.7802
496.881	18.082
498.636	18.6409
500.391	18.3967
502.148	18.4286
503.902	18.5107
505.656	18.2085
507.409	17.9207
509.162	17.0034
510.915	16.5931
512.668	16.4396
514.42	16.1273
516.174	15.6613
517.925	14.9199
519.676	14.1588
521.427	14.5722
523.178	13.8735
524.928	13.7576
526.678	12.6456
528.427	12.2734
530.176	11.9693
531.925	11.9907
533.673	12.25
535.422	12.1507
537.169	13.1567
538.917	13.5945
540.664	14.3531
542.411	14.9621
544.157	14.4057
545.903	14.1854
547.649	14.7378
549.395	15.0868
551.14	15.4956
552.884	14.9934
554.629	14.6371
556.373	13.9757
558.117	14.0782
559.86	13.5501
561.603	14.7711
563.346	15.013
565.089	15.63
566.831	15.6214
568.573	15.4301
570.314	15.9468
572.053	15.5975
573.794	15.0437
575.534	14.1325
577.274	13.2329
579.014	12.3417
580.754	11.9459
582.493	11.4758
584.23	10.7261
585.968	10.4748
587.706	9.44326
589.444	8.49055
591.181	8.1607
592.919	7.65827
594.653	7.32978
596.39	6.90578
598.126	6.69595
599.862	6.24975
601.595	5.75762
603.33	5.15604
605.065	4.80873
606.8	5.85939
608.532	7.61306
610.266	7.4833
611.999	7.96987
613.732	8.14191
615.463	9.45306
617.196	10.4131
618.928	11.6347
620.66	12.4662
622.389	12.1944
624.12	12.0687
625.851	12.6067
627.58	12.4209
629.31	12.0582
631.04	12.4599
632.767	13.0336
634.497	13.5376
636.223	13.7006
637.952	14.4055
639.68	14.2087
641.406	15.4004
643.134	16.4189
644.861	17.2436
646.586	17.4852
648.312	19.4744
650.037	19.6856
651.762	19.3761
653.486	19.8883
655.211	20.3417
656.936	21.0153
658.659	20.7883
660.383	21.4299
662.105	21.267
663.829	21.4421
665.55	21.9143
667.273	22.8898
668.994	23.0834
670.716	23.5718
672.436	25.3138
674.158	26.1853
675.877	27.1311
677.598	27.8758
679.317	28.579
681.035	28.5261
682.755	28.1104
684.473	28.2596
686.192	29.3817
687.909	30.3494
689.628	31.05
691.344	31.8147
693.06	33.0165
694.778	34.2207
696.493	34.0788
698.211	34.3457
699.925	34.0328
701.64	34.8891
703.356	34.5675
705.07	35.2124
706.783	35.5384
708.498	35.5053
710.211	36.5138
711.924	38.3205
713.638	38.5278
715.35	38.9243
717.061	39.345
718.774	40.2909
720.485	40.1811
722.196	41.1314
723.906	42.0413
725.618	42.2829
727.328	43.5883
729.037	44.2463
730.746	45.3144
732.456	47.2079
734.165	48.4736
735.873	48.5633
737.58	48.9169
739.289	50.6395
740.997	51.5301
742.703	52.2588
744.41	52.7897
746.116	53.0509
747.823	53.3364
749.529	55.3652
751.234	56.0726
752.938	57.2347
754.643	58.8683
756.347	60.8256
758.051	62.4545
759.756	62.3468
761.459	63.1923
763.162	64.1751
764.865	65.2843
766.567	65.5393
768.269	67.4198
769.97	69.1739
771.671	70.875
773.372	71.0084
775.073	71.9334
776.773	73.4455
778.473	74.6058
780.174	75.3513
781.874	76.3757
783.573	77.346
785.271	77.6238
786.97	79.2319
788.668	79.6798
790.365	80.3186
792.063	80.9307
793.76	81.6053
795.456	82.8456
797.153	83.1737
798.847	82.8742
800.543	82.971
802.238	83.9791
803.933	84.5772
805.628	84.4951
807.322	85.123
809.017	84.4081
810.71	84.1324
812.404	83.9935
814.097	83.8179
815.79	83.962
817.483	83.3445
819.173	83.3157
820.865	83.1882
822.556	83.5067
824.248	83.6403
825.939	82.7578
827.629	81.9127
829.318	81.1955
831.008	79.8901
832.697	79.0755
834.387	78.8418
836.076	77.9699
837.765	77.86
839.451	77.92
841.139	76.7636
842.827	75.5385
844.514	74.1887
846.2	73.4102
847.886	72.5
849.573	71.8617
851.259	70.1249
852.943	69.3236
854.629	68.0566
856.314	66.964
857.997	65.9136
859.682	65.4363
861.366	64.8852
863.05	64.4515
864.732	64.0736
866.415	63.7989
868.098	62.9014
869.779	61.7438
871.461	60.9311
873.141	59.5166
874.823	58.3813
876.505	57.791
878.184	57.2415
879.865	56.2041
881.545	55.6211
883.223	55.3029
884.903	54.8661
886.581	54.5181
888.26	52.8414
889.937	52.3706
891.616	51.3302
893.294	50.8539
894.97	50.8413
896.648	51.0218
898.323	50.8773
900	51.5871
901.675	51.5491
903.351	52.0334
905.026	51.8761
906.701	51.4936
908.375	50.4628
910.05	49.1608
911.723	49.3017
913.398	48.1761
915.07	47.5634
916.742	47.4665
918.415	48.0085
920.087	46.7409
921.76	45.5973
923.43	44.8909
925.103	44.5415
926.773	44.1725
928.443	43.7029
930.114	43.9119
931.783	43.1665
933.454	43.1887
935.123	42.1064
936.791	42.1684
938.461	41.8054
940.128	41.2109
941.796	41.2803
943.464	41.2484
945.131	41.0363
946.797	40.3129
948.465	40.0833
950.131	39.4277
951.797	38.7786
953.462	38.4859
955.128	37.4505
956.793	36.4643
958.457	35.9673
960.121	35.7204
961.786	35.6287
963.45	34.8905
965.113	35.3743
966.775	35.6712
968.44	35.6879
970.102	35.3407
971.763	35.5886
973.425	35.5378
975.086	35.3979
976.748	35.6265
978.409	35.8731
980.069	35.3649
981.729	35.3088
983.388	36.1675
985.048	35.3313
986.708	35.6051
988.367	35.1875
990.025	34.3969
991.683	34.0476
993.341	33.1211
994.998	32.8659
996.655	32.017
998.312	32.2415
999.969	32.0932
1001.62	31.7936
1003.28	31.5483
1004.94	32.5137
1006.59	33.2771
1008.25	33.2657
1009.9	32.3431
1011.56	31.7297
1013.21	30.3285
1014.86	29.7457
1016.52	29.1748
1018.17	28.1852
1019.82	26.9437
1021.48	26.1177
1023.13	25.4657
1024.78	24.5772
1026.43	24.4621
1028.08	22.9877
1029.73	22.699
1031.38	23.3592
1033.03	22.129
1034.68	21.5837
1036.33	20.2423
1037.98	18.554
1039.63	17.0822
1041.28	17.212
1042.93	16.2285
1044.57	15.9364
1046.22	15.8377
1047.87	15.5289
1049.52	15.2207
1051.16	14.7029
1052.81	14.8396
1054.45	15.1777
1056.1	14.2769
1057.75	14.4726
1059.39	14.2368
1061.04	13.8917
1062.68	12.4213
1064.32	12.737
1065.97	12.3282
1067.61	11.483
1069.25	11.6234
1070.9	11.2405
1072.54	10.573
1074.18	11.0278
1075.82	10.7949
1077.47	11.2023
1079.11	11.6342
1080.75	12.0826
1082.39	11.9743
1084.03	12.2427
1085.67	12.9006
1087.31	13.3079
1088.95	12.9998
1090.59	12.3249
1092.22	12.5984
1093.86	12.1652
1095.5	12.1165
1097.14	13.122
1098.78	12.7319
1100.41	12.9197
1102.05	12.7898
1103.69	13.3299
1105.32	13.9407
1106.96	13.4298
1108.59	13.4228
1110.23	12.738
1111.86	13.401
1113.5	12.4395
1115.13	11.7986
1116.77	11.3122
1118.4	10.1558
1120.03	9.57727
1121.67	8.63147
1123.3	8.79355
1124.93	8.09655
1126.56	8.63866
1128.19	8.20379
1129.83	8.25127
1131.46	8.33705
1133.09	8.00361
1134.72	7.88962
1136.35	7.48074
1137.98	7.65337
1139.61	7.68951
1141.24	7.3146
1142.86	7.46225
1144.49	6.59212
1146.12	7.7448
1147.75	7.75533
1149.38	7.45195
1151	7.58506
1152.63	7.3498
1154.26	6.41519
1155.88	6.65114
1157.51	6.35141
1159.14	5.76
1160.76	6.45125
1162.39	6.32698
1164.01	5.99529
1165.63	6.51728
1167.26	7.39909
1168.88	7.2999
1170.51	7.20989
1172.13	6.22662
1173.75	6.56524
1175.38	6.49358
1177	7.04335
1178.62	8.12415
1180.24	8.14317
1181.86	7.79577
1183.48	7.99825
1185.1	7.90067
1186.72	7.95729
1188.34	6.94016
1189.96	7.25254
1191.58	6.76715
1193.2	6.94192
1194.82	7.14499
1196.44	8.07087
1198.06	7.46514
1199.68	7.98977
1201.29	8.88095
1202.91	9.36176
1204.53	10.3045
1206.14	11.3006
1207.76	12.0989
1209.38	13.5888
1210.99	14.3495
1212.61	15.2981
1214.22	16.6547
1215.84	18.6377
1217.45	20.3571
1219.07	21.5219
1220.68	22.6587
1222.29	23.2157
1223.91	24.4077
1225.52	24.9609
1227.13	25.9961
1228.74	26.1187
1230.36	26.202
1231.97	26.5758
1233.58	27.6021
1235.19	28.4929
1236.8	29.457
1238.41	29.9785
1240.02	30.1875
1241.63	31.5847
1243.24	31.7644
1244.85	32.2585
1246.46	32.7545
1248.07	32.8555
1249.67	31.8827
1251.28	32.1927
1252.89	32.0504
1254.5	33.1499
1256.1	32.9583
1257.71	33.1861
1259.32	32.9108
1260.92	32.5146
1262.53	32.2289
1264.13	32.6971
1265.74	32.7139
1267.34	33.1568
1268.95	32.7068
1270.55	33.8363
1272.15	34.0906
1273.76	35.1272
1275.36	36.217
1276.97	36.213
1278.57	35.7015
1280.17	36.3061
1281.77	36.9468
1283.37	36.9463
1284.97	37.9037
1286.58	38.5561
1288.18	38.374
1289.78	39.6463
1291.38	39.4014
1292.98	41.0671
1294.58	41.8242
1296.18	41.6341
1297.78	42.0254
1299.37	42.1236
1300.97	42.4875
1302.57	41.7708
1304.17	42.5459
1305.77	42.6538
1307.36	42.7603
1308.96	43.067
1310.55	43.4233
1312.15	43.9631
1313.75	45.1227
1315.34	45.3912
1316.94	45.7528
1318.53	46.1516
1320.13	46.5339
1321.72	47.0019
1323.32	46.6082
1324.91	46.5769
1326.5	46.8666
1328.1	45.6844
1329.69	45.8504
1331.28	46.2361
1332.87	45.8673
1334.47	45.6114
1336.06	45.5309
1337.65	45.2883
1339.24	45.3072
1340.83	46.0056
1342.42	45.7305
1344.01	46.2108
1345.6	46.4149
1347.19	45.5433
1348.78	44.711
1350.37	44.7626
1351.96	43.3694
1353.54	43.3206
1355.13	43.4648
1356.72	42.1332
1358.31	41.6166
1359.89	41.1934
1361.48	40.381
1363.07	39.222
1364.65	39.0198
1366.24	38.1574
1367.82	37.162
1369.41	37.3932
1370.99	36.2492
1372.58	35.1306
1374.16	33.3029
1375.75	32.5589
1377.33	32.7518
1378.91	31.9363
1380.5	31.2883
1382.08	30.4594
1383.66	30.9313
1385.25	29.8653
1386.83	29.7014
1388.41	29.2158
1389.99	29.0373
1391.57	28.358
1393.15	28.0021
1394.73	27.6726
1396.31	27.4845
1397.89	26.907
1399.47	26.1286
1401.05	24.9624
1402.63	25.477
1404.21	25.1625
1405.78	25.0397
1407.36	24.605
1408.94	25.7997
1410.52	25.4784
1412.1	26.2094
1413.67	27.0394
1415.25	28.4889
1416.82	29.1272
1418.4	30.6431
1419.98	31.9016
1421.55	33.3308
1423.13	34.6029
1424.7	36.0498
1426.28	37.1484
1427.85	39.3144
1429.42	41.1964
1431	43.5355
1432.57	46.3654
1434.14	47.1235
1435.71	48.4416
1437.29	50.1278
1438.86	51.705
1440.43	53.5698
1442	55.3812
1443.57	56.2417
1445.14	55.9669
1446.71	56.4878
1448.28	56.6942
1449.85	56.5865
1451.42	56.0761
1452.99	56.2517
1454.56	57.1901
1456.13	56.7687
1457.7	56.4235
1459.26	54.9936
1460.83	54.4894
1462.4	53.4758
1463.97	51.5844
1465.54	50.523
1467.1	48.2381
1468.67	45.731
1470.23	43.3751
1471.8	41.2056
1473.36	39.7051
1474.93	37.4681
1476.49	34.6116
1478.06	31.8283
1479.62	29.9696
1481.19	28.3434
1482.75	25.4148
1484.31	23.6085
1485.88	21.8287
1487.44	20.3754
1489	18.8534
1490.56	17.8521
1492.13	16.8527
1493.69	15.8308
1495.25	14.1031
1496.81	13.3184
1498.37	12.5942
1499.93	12.6784
1501.49	11.5783
1503.05	11.4612
1504.61	10.9485
1506.17	10.8841
1507.73	11.0138
1509.28	11.4239
1510.84	11.5993
1512.4	11.6692
1513.96	13.0584
1515.52	13.2151
1517.07	14.0732
1518.63	14.1771
1520.19	13.8044
1521.74	13.9037
1523.3	13.9314
1524.85	15.308
1526.41	16.2246
1527.96	17.6685
1529.52	18.4442
1531.07	20.0169
1532.63	21.4469
1534.18	22.4229
1535.73	23.4388
1537.29	24.524
1538.84	25.8562
1540.39	26.2676
1541.94	27.6508
1543.5	28.5126
1545.05	29.252
1546.6	29.8811
1548.15	30.3885
1549.7	30.9465
1551.25	32.0985
1552.8	31.8328
1554.35	32.5308
1555.9	33.3764
1557.45	33.9017
1559	34.739
1560.55	36.0881
1562.1	36.6929
1563.65	37.9379
1565.19	38.3814
1566.74	38.8096
1568.29	39.1057
1569.83	40.1755
1571.38	41.2833
1572.93	41.7493
1574.47	43.2153
1576.02	43.3462
1577.56	44.5874
1579.11	43.8351
1580.66	44.0887
1582.2	44.6054
1583.74	45.2088
1585.29	45.5667
1586.83	45.809
1588.38	46.1153
1589.92	45.972
1591.46	45.8041
1593.01	45.9927
1594.55	45.5403
1596.09	45.3343
1597.63	44.5769
1599.17	43.9959
1600.71	43.2754
1602.25	43.8404
1603.79	43.6831
1605.34	43.6467
1606.88	42.95
1608.41	42.5481
1609.95	42.9426
1611.49	42.5593
1613.03	42.1028
1614.57	41.4158
1616.11	40.8245
1617.65	40.3229
1619.18	39.5026
1620.72	38.8572
1622.26	38.1964
1623.79	38.1886
1625.33	38.0086
1626.87	38.5738
1628.4	39.6268
1629.94	39.5372
1631.48	40.9645
1633.01	41.1737
1634.55	41.8103
1636.08	43.4692
1637.61	44.2322
1639.15	44.2911
1640.68	44.701
1642.21	45.2034
1643.75	46.9106
1645.28	47.7583
1646.81	49.1371
1648.34	49.9012
1649.88	49.8973
1651.41	50.8117
1652.94	50.3044
1654.47	50.3376
1656	50.23
1657.53	51.11
1659.06	51.5603
1660.59	50.9719
1662.12	50.9107
1663.65	50.5446
1665.18	49.8045
1666.71	48.7536
1668.24	47.8018
1669.76	46.5626
1671.29	44.8064
1672.82	43.67
1674.35	42.1229
1675.87	40.5201
1677.4	40.0953
1678.93	38.8737
1680.45	36.6531
1681.98	34.8905
1683.5	32.6218
1685.03	30.6206
1686.55	29.3319
1688.08	26.9137
1689.6	25.4616
1691.13	23.5884
1692.65	21.1
1694.17	19.1615
1695.7	18.0613
1697.22	17.6792
1698.74	16.5361
1700.27	15.7211
1701.79	14.4283
1703.31	13.3698
1704.83	12.6111
1706.35	10.7573
1707.87	9.91026
1709.39	8.54299
1710.91	7.78132
1712.43	6.77641
1713.95	5.57504
1715.47	4.35206
1716.99	4.15528
1718.51	4.04024
1720.03	4.03406
1721.55	3.44831
1723.07	3.29752
1724.58	2.50889
1726.1	2.72329
1727.62	2.41157
1729.13	1.98842
1730.65	2.07172
1732.17	3.15401
1733.68	2.97234
1735.2	2.69414
1736.72	3.06976
1738.23	3.05258
1739.74	2.33929
1741.26	2.3826
1742.77	2.48282
1744.29	2.37752
1745.8	2.36963
1747.32	2.89481
1748.83	2.25335
1750.34	2.59028
1751.85	2.39165
1753.37	3.28973
1754.88	2.6241
1756.39	2.70034
1757.9	2.93929
1759.41	2.88164
1760.92	3.21579
1762.44	3.0998
1763.95	3.11089
1765.46	3.22207
1766.96	3.14718
1768.47	2.83482
1769.98	4.15184
1771.49	4.52238
1773	4.098
1774.51	3.62149
1776.02	3.50022
1777.53	3.56177
1779.03	3.53304
1780.54	3.58459
1782.05	3.08021
1783.55	3.24695
1785.06	3.29857
1786.57	3.3478
1788.07	3.34346
1789.58	3.69161
1791.08	3.78511
1792.59	3.83483
1794.09	3.28647
1795.6	3.40156
1797.1	3.52787
1798.61	2.93337
1800.11	2.88505
1801.61	3.06229
1803.12	2.83746
1804.62	3.23514
1806.12	3.74833
1807.62	3.96946
1809.12	3.68645
1810.63	3.62297
1812.13	3.77416
1813.63	2.99407
1815.13	3.36388
1816.63	3.92466
1818.13	3.8358
1819.63	3.62888
1821.13	3.43817
1822.63	3.66317
1824.13	3.21665
1825.63	3.94006
1827.13	3.97691
1828.62	4.3081
1830.12	3.97864
1831.62	4.74256
1833.12	4.62329
1834.61	4.58352
1836.11	4.54824
1837.61	4.35495
1839.1	4.82647
1840.6	4.38615
1842.09	4.49209
1843.59	4.31827
1845.09	4.012
1846.58	3.33912
1848.08	3.24533
1849.57	3.17884
1851.06	2.92992
1852.56	2.95699
1854.05	2.99081
1855.54	3.59189
1857.04	3.20885
1858.53	3.1809
1860.02	2.73072
1861.51	2.85958
1863.01	2.94895
1864.5	2.48831
1865.99	2.60643
1867.48	2.56723
1868.97	2.67718
1870.46	2.68287
1871.95	2.93913
1873.44	2.52982
1874.93	3.12803
1876.42	3.01889
1877.91	3.3238
1879.4	3.23394
1880.89	3.21066
1882.37	3.14546
1882.46	3.33128
1883.95	3.49663
1885.45	3.61385
1886.94	3.70431
1888.43	4.23931
1889.93	4.13918
1891.42	4.1571
1892.91	4.15269
1894.41	4.63744
1895.9	5.14819
1897.39	5.64552
1898.88	6.47385
1900.37	6.55396
1901.86	7.04634
1903.36	7.44831
1904.85	7.7374
1906.34	7.36139
1907.83	7.54302
1909.32	7.94787
1910.81	7.99639
1912.29	7.56925
1913.78	7.40087
1915.27	7.5018
1916.76	7.66772
1918.25	7.25038
1919.74	7.0764
1921.23	7.15811
1922.71	6.90708
1924.2	7.35224
1925.69	7.53216
1927.17	7.81868
1928.66	7.83382
1930.15	7.11919
1931.63	6.57642
1933.12	6.26809
1934.6	6.41856
1936.09	6.20177
1937.57	5.43465
1939.06	6.08341
1940.54	5.62377
1942.02	5.46089
1943.51	4.80415
1944.99	4.35129
1946.47	3.87876
1947.96	3.82936
1949.44	2.96178
1950.92	2.58858
1952.4	2.63789
1953.88	2.65805
1955.37	2.45138
1956.85	3.04216
1958.33	2.46578
1959.81	1.64364
1961.29	1.4514
1962.77	1.43066
1964.25	1.09977
1965.73	1.39364
1967.21	1.39444
1968.69	1.72407
1970.16	1.96063
1971.64	2.27864
1973.12	2.4647
1974.6	2.55089
1976.08	2.96907
1977.55	3.48483
1979.03	3.21475
1980.51	3.58418
1981.98	3.81301
1983.46	3.65152
1984.94	3.51368
1986.41	3.67732
1987.89	4.10404
1989.36	3.99185
1990.84	3.64619
1992.31	3.63298
1993.79	3.6687
1995.26	4.33325
1996.73	4.31725
1998.21	4.40203
1999.68	4.69647
2001.15	4.60739
2002.63	4.10832
2004.1	4.03368
2005.57	3.72211
2007.04	4.17704
2008.51	3.90933
2009.99	4.27725
2011.46	4.23522
2012.93	4.63916
2014.4	4.74418
2015.87	5.59714
2017.34	5.33845
2018.81	5.79492
2020.28	6.25211
2021.75	6.67932
2023.21	7.04833
2024.68	7.8187
2026.15	8.52055
2027.62	8.38736
2029.09	8.57857
2030.56	8.99407
2032.02	8.35556
2033.49	8.52852
2034.96	8.95122
2036.42	9.58265
2037.89	9.83294
2039.36	10.2539
2040.82	10.1724
2042.29	10.3778
2043.75	10.4467
2045.22	10.7453
2046.68	11.036
2048.14	11.3393
2049.61	10.9739
2051.07	10.9849
2052.54	10.2378
2054	10.4696
2055.46	10.4438
2056.93	9.98528
2058.39	10.1924
2059.85	9.73135
2061.31	9.45402
2062.77	9.03805
2064.23	9.38608
2065.7	10.6111
2067.16	10.0389
2068.62	10.0538
2070.08	9.55363
2071.54	9.74505
2073	10.1193
2074.46	9.86226
2075.92	10.3003
2077.38	10.7291
2078.83	11.0865
2080.29	11.1852
2081.75	10.7542
2083.21	11.2398
2084.67	11.3162
2086.12	11.9124
2087.58	12.0826
2089.04	11.9859
2090.49	11.1389
2091.95	11.2207
2093.41	11.5321
2094.86	11.6546
2096.32	11.3294
2097.77	11.0454
2099.23	11.0224
2100.68	10.7035
2102.14	10.6628
2103.59	11.128
2105.05	10.411
2106.5	10.1573
2107.95	10.2012
2109.41	10.8636
2110.86	10.9669
2112.31	11.5251
2113.76	12.2224
2115.21	13.0582
2116.67	13.705
2118.12	14.2625
2119.57	14.284
2121.02	14.7235
2122.47	15.3174
2123.92	15.9716
2125.37	16.3521
2126.82	17.5116
2128.27	17.7405
2129.72	17.756
2131.17	17.8259
2132.62	18.068
2134.07	18.9796
2135.51	19.5457
2136.96	20.9419
2138.41	21.9417
2139.86	22.0491
2141.31	23.2237
2142.75	23.9142
2144.2	24.9268
2145.65	26.0572
2147.09	26.9254
2148.54	27.6393
2149.98	27.9549
2151.43	28.3285
2152.87	28.4721
2154.32	28.9906
2155.76	29.51
2157.21	30.0105
2158.65	29.958
2160.1	29.9367
2161.54	29.7611
2162.98	29.7724
2164.43	30.644
2165.87	30.9815
2167.31	30.6769
2168.75	30.4121
2170.2	30.6617
2171.64	30.5343
2173.08	30.0149
2174.52	30.3725
2175.96	30.6382
2177.4	30.4173
2178.84	31.3226
2180.28	31.7735
2181.72	32.0427
2183.16	31.7258
2184.6	31.9367
2186.04	31.7993
2187.48	31.3364
2188.92	30.9523
2190.36	30.6248
2191.79	30.3408
2193.23	30.8573
2194.67	30.3198
2196.11	29.484
2197.54	28.584
2198.98	27.8997
2200.42	26.557
2201.85	25.5819
2203.29	25.6314
2204.72	25.6566
2206.16	25.8709
2207.59	25.1546
2209.03	24.6559
2210.46	24.3529
2211.9	23.8086
2213.33	23.4724
2214.77	22.5475
2216.2	21.8175
2217.63	21.2102
2219.07	20.3671
2220.5	19.7839
2221.93	18.7106
2223.36	18.2545
2224.8	17.1709
2226.23	16.6841
2227.66	15.7464
2229.09	15.6927
2230.52	14.7504
2231.95	14.1178
2233.39	13.2832
2234.81	13.2626
2236.25	12.874
2237.67	11.8611
2239.1	11.7412
2240.53	11.3611
2241.96	10.9197
2243.39	10.5545
2244.82	10.8889
2246.25	10.8326
2247.68	10.6055
2249.1	10.6653
2250.53	10.37
2251.96	10.1343
2253.38	10.4049
2254.81	10.1006
2256.24	10.7331
2257.66	10.8158
2259.09	10.8397
2260.51	10.7397
2261.94	11.0614
2263.36	11.1374
2264.79	11.1206
2266.21	10.4074
2267.64	10.3129
2269.06	9.79503
2270.49	9.89897
2271.91	10.0974
2273.33	10.0936
2274.76	10.6017
2276.18	10.7143
2277.6	10.3787
2279.02	9.90948
2280.44	10.3089
2281.87	10.8409
2283.29	10.2773
2284.71	10.0119
2286.13	9.14888
2287.55	9.17241
2288.97	9.01485
2290.39	8.25494
2291.81	7.81763
2293.23	7.06087
2294.65	7.16822
2296.07	7.23477
2297.49	7.40787
2298.91	7.21978
2300.33	7.11209
2301.74	7.2302
2303.16	8.11312
2304.58	8.22533
2306	8.31316
2307.41	8.16493
2308.83	8.37895
2310.25	9.0003
2311.66	8.97809
2313.08	9.05905
2314.5	9.55764
2315.91	9.6983
2317.33	9.7885
2318.74	9.83588
2320.16	9.63109
2321.57	9.29028
2322.98	9.4268
2324.4	9.57336
2325.81	9.05402
2327.23	9.07864
2328.64	8.54728
2330.05	7.97401
2331.46	7.9976
2332.88	7.79955
2334.29	6.68602
2335.7	6.43278
2337.11	6.10116
2338.52	5.95715
2339.94	5.82069
2341.35	5.67607
2342.76	5.7468
2344.17	5.19688
2345.58	4.93232
2346.99	4.76097
2348.4	3.9382
2349.81	3.82643
2351.22	3.37638
2352.62	2.68865
2354.03	2.40925
2355.44	1.66159
2356.85	1.01562
2358.26	1.6298
2359.67	0.63888
2361.07	0.446736
2362.48	0.391736
2363.89	1.06493
2365.29	1.73178
2366.7	2.12631
2368.11	2.07726
2369.51	2.65269
2370.92	3.32192
2372.32	4.0417
2373.73	3.77297
2375.13	3.43229
2376.54	4.06219
2377.94	4.41146
2379.35	4.70402
2380.75	4.91974
2382.15	4.65996
2383.56	4.99358
2384.96	4.77305
2386.36	4.85123
2387.76	4.77062
2389.17	4.55926
2390.57	4.86778
2391.97	5.00735
2393.37	4.74828
2394.77	4.32722
2396.17	4.44278
2397.58	4.47125
2398.98	4.42274
2400.38	3.92355
2401.78	4.40779
2403.18	4.01827
2404.58	4.05142
2405.97	4.91125
2407.37	5.14906
2408.77	5.00967
2410.17	4.71532
2411.57	4.37807
2412.97	4.37221
2414.37	3.8801
2415.76	3.83967
2417.16	4.07131
2418.56	3.88041
2419.95	3.53924
2421.35	3.5289
2422.75	3.72596
2424.14	3.56499
2425.54	2.84821
2426.93	3.29729
2428.33	2.79824
2429.72	1.75361
2431.12	1.8063
2432.51	1.59618
2433.91	1.83048
2435.3	1.69308
2436.7	1.42841
2438.09	1.34431
2439.48	1.52964
2440.88	1.47054
2442.27	1.39019
2443.66	1.3385
2445.05	1.80033
2446.44	2.30226
2447.84	1.59997
2449.23	1.07899
2450.62	1.22824
2452.01	1.40535
2453.4	1.23774
2454.79	0.794254
2456.18	0.805489
2457.57	0.831286
2458.96	1.1949
2460.35	1.11707
2461.74	0.808646
2463.13	0.35148
2464.52	0.482268
2465.91	1.10697
2467.29	1.09696
2468.68	1.39304
2470.07	1.92376
2471.46	3.05886
2472.85	3.09902
2474.23	3.14115
2475.62	3.21175
2477.01	2.71884
2478.39	2.40628
2479.78	2.30782
2481.16	2.61199
2482.55	2.7535
2483.93	3.14664
2485.32	3.7342
2486.7	3.74398
2488.09	3.74756
2489.47	3.72506
2490.86	4.01968
2492.24	4.06119
2493.62	3.78004
2495.01	3.86101
2496.39	3.72911
2497.77	3.73094
2499.15	4.13755
2500.54	4.2588
2501.92	4.28354
2503.3	4.24124
2504.68	4.89473
2506.06	4.98138
2507.45	4.9106
2508.83	4.53746
2510.21	4.524
2511.59	4.49693
2512.97	4.62154
2514.35	4.23263
2515.73	3.87703
2517.11	3.41573
2518.48	3.58751
2519.86	3.96354
2521.24	3.93952
2522.62	3.73915
2524	4.04428
2525.38	4.28469
2526.75	4.45281
2528.13	4.52702
2529.51	4.69188
2530.89	4.85266
2532.26	4.83864
2533.64	5.42753
2535.02	5.78747
2536.39	5.97429
2537.77	5.73694
2539.14	5.52945
2540.52	5.68247
2541.89	5.43221
2543.27	5.23238
2544.64	5.41021
2546.01	5.7511
2547.39	6.08867
2548.76	6.42762
2550.14	6.64326
2551.51	6.40263
2552.88	6.78039
2554.25	6.43979
2555.63	6.77415
2557	6.92116
2558.37	6.88974
2559.74	6.90259
2561.11	7.04513
2562.49	7.00629
2563.86	6.88265
2565.23	6.32099
2566.6	6.46288
2567.97	5.85736
2569.34	5.84708
2570.71	5.28541
2572.08	5.42457
2573.45	5.37869
2574.82	4.6381
2576.18	4.4636
2577.55	5.06187
2578.92	5.0504
2580.29	4.92864
2581.66	5.21604
2583.02	4.83033
2584.39	5.13525
2585.76	5.73922
2587.13	5.72602
2588.49	5.93277
2589.86	5.56515
2591.22	5.26415
2592.59	5.75857
2593.96	5.85304
2595.32	5.68903
2596.69	5.77716
2598.05	5.54553
2599.42	5.00263
2600.78	4.77152
2602.14	4.2066
2603.51	3.98384
2604.87	3.65475
2606.23	3.53865
2607.6	3.45907
2608.96	3.3179
2610.32	2.93649
2611.69	2.4886
2613.05	2.61449
2614.41	2.76265
2615.77	2.18678
2617.13	1.95464
2618.49	1.65985
2619.86	1.22942
2621.22	0.827934
2622.58	0.803385
2623.94	1.39201
2625.3	1.2803
2626.66	1.13276
2628.02	0.818637
2629.37	1.02014
2630.73	0.611704
2632.09	0.289738
2633.45	0.585903
2634.81	0.979443
2636.17	1.23577
2637.53	1.67364
2638.88	1.97794
2640.24	2.8299
2641.6	2.51081
2642.96	2.69693
2644.31	3.42467
2645.67	3.833
2647.02	3.34713
2648.38	4.02883
2649.74	4.37956
2651.09	4.18528
2652.45	4.48779
2653.8	4.88748
2655.16	4.58908
2656.51	4.62889
2657.86	4.31991
2659.22	4.77664
2660.57	4.7825
2661.93	4.17316
2663.28	3.6565
2664.63	3.34841
2665.98	3.28752
2667.34	3.2557
2668.69	3.70615
2670.04	3.14182
2671.39	3.54302
2672.75	3.38933
2674.09	3.3836
2675.45	3.33043
2676.8	3.40755
2678.15	3.31702
2679.5	3.52013
2680.85	3.63614
2682.2	3.61948
2683.55	3.18265
2684.9	3.41843
2686.25	3.75578
2687.6	3.52523
2688.94	3.83547
2690.29	4.09771
2691.64	3.80056
2692.99	4.05413
2694.34	3.9032
2695.68	4.01852
2697.03	4.1946
2698.38	4.10715
2699.73	4.42298
2701.07	5.24861
2702.42	5.23213
2703.76	5.7821
2705.11	5.87356
2706.45	6.5741
2707.8	6.82467
2709.15	7.10905
2710.49	8.15154
2711.83	8.31918
2713.18	8.0873
2714.52	8.24628
2715.87	8.61104
2717.21	8.68533
2718.55	8.63514
2719.9	8.88511
2721.24	8.9017
2722.58	8.54338
2723.93	8.65614
2725.27	8.70228
2726.61	9.00914
2727.95	8.76046
2729.29	8.79311
2730.63	8.61492
2731.98	8.8329
2733.32	9.31158
2734.66	8.98492
2736	8.39337
2737.34	7.82036
2738.68	7.65447
2740.02	7.57746
2741.36	7.70217
2742.7	7.80054
2744.03	6.98678
2745.37	6.70042
2746.71	6.88915
2748.05	6.59213
2749.39	6.29869
2750.72	5.91899
2752.06	5.47384
2753.4	4.92741
2754.74	3.48934
2756.07	2.87713
2757.41	2.39773
2758.75	2.08889
2760.08	2.28637
2761.42	1.94063
2762.76	1.48461
2764.09	1.13965
2765.42	1.2904
2766.76	1.22401
2768.09	1.60464
2769.43	1.69823
2770.76	2.25559
2772.1	2.06142
2773.43	2.40086
2774.76	2.52556
2776.1	2.41594
2777.43	2.00942
2778.76	1.3203
2780.1	1.41602
2781.43	1.49134
2782.76	1.56693
2784.09	1.71902
2785.42	1.64028
2786.75	1.64697
2788.09	1.71799
2789.42	1.42056
2790.75	1.39434
2792.08	1.82401
2793.41	1.59515
2794.74	1.60926
2796.07	1.35112
2797.4	1.42269
2798.73	1.2853
2800.06	1.21814
2801.39	0.607939
2802.71	0.46928
2804.04	0.73506
2805.37	0.843473
2806.7	0.962103
2808.03	0.579843
2809.35	-0.225834
2810.68	-0.836086
2812.01	-0.749677
2813.33	-1.08828
2814.66	-1.46669
2815.99	-2.06427
2817.31	-1.90211
2818.64	-1.70324
2819.96	-1.16771
2821.29	-1.09655
2822.61	-0.0446779
2823.94	1.15866
2825.26	2.3128
2826.59	3.84005
2827.91	5.11487
2829.23	6.71936
2830.56	8.39607
2831.88	9.71352
2833.21	11.2971
2834.53	12.9151
2835.85	14.0175
2837.17	15.5373
2838.5	17.3509
2839.82	19.2344
2841.14	21.0205
2842.46	23.1739
2843.78	25.1151
2845.1	27.6968
2846.42	30.4361
2847.74	32.623
2849.06	35.9591
2850.38	38.7022
2851.71	40.9941
2853.03	43.3069
2854.34	45.9364
2855.66	48.5566
2856.98	51.501
2858.3	54.4526
2859.62	56.8196
2860.94	59.2165
2862.26	61.0224
2863.57	62.7203
2864.89	64.7053
2866.21	66.4023
2867.53	68.3178
2868.84	70.4927
2870.16	72.4893
2871.48	73.736
2872.79	74.429
2874.11	75.3474
2875.42	75.7527
2876.74	76.6734
2878.05	78.0987
2879.37	78.8736
2880.68	80.0531
2882	81.6156
2883.31	82.9208
2884.63	83.2685
2885.94	84.0835
2887.26	84.7381
2888.57	86.4491
2889.88	87.8682
2891.19	89.129
2892.51	89.9723
2893.82	91.025
2895.13	91.9945
2896.44	93.1685
2897.76	94.0771
2899.07	95.1886
2900.38	96.2399
2901.69	98.1743
2903	100.001
2904.31	101.93
2905.62	103.812
2906.93	106.036
2908.24	108.423
2909.55	110.498
2910.86	113.602
2912.17	116.822
2913.48	119.229
2914.79	122.605
2916.1	124.721
2917.41	126.906
2918.71	129.111
2920.02	131.584
2921.33	133.511
2922.64	134.971
2923.94	136.364
2925.25	136.614
2926.56	136.71
2927.86	137.485
2929.17	137.265
2930.48	138.018
2931.78	137.643
2933.09	137.947
2934.39	137.659
2935.7	136.627
2937	134.894
2938.31	133.13
2939.61	131.541
2940.92	129.454
2942.22	127.907
2943.53	126.719
2944.83	124.055
2946.13	122.28
2947.43	119.818
2948.74	116.918
2950.04	114.187
2951.34	111.727
2952.64	108.979
2953.95	106.555
2955.25	103.679
2956.55	101.264
2957.85	98.3545
2959.15	95.2935
2960.45	92.0005
2961.75	89.5752
2963.05	86.5748
2964.35	83.3722
2965.65	80.7593
2966.95	79.0494
2968.25	76.6262
2969.55	75.1056
2970.85	72.9364
2972.15	70.7973
2973.45	69.0108
2974.75	67.019
2976.05	64.9282
2977.34	62.7172
2978.64	60.0982
2979.94	57.9851
2981.24	55.5967
2982.53	53.294
2983.83	50.7374
2985.13	48.171
2986.42	45.3384
2987.72	42.6444
2989.01	40.1539
2990.31	37.3266
2991.61	35.6182
2992.9	33.7219
2994.19	31.1379
2995.49	29.8327
2996.78	27.854
2998.08	26.1523
2999.37	23.9841
3000.67	21.8876
3001.96	19.7827
3003.25	18.0817
3004.55	16.7008
3005.84	15.1308
3007.13	13.6115
3008.42	12.5387
3009.72	10.8915
3011.01	9.6588
3012.3	8.21999
3013.59	7.17443
3014.88	6.07652
3016.17	5.38118
3017.46	5.27815
3018.76	4.32171
3020.05	3.58001
3021.34	2.90119
3022.63	1.64751
3023.92	0.5676
3025.21	0.430773
3026.49	0.819893
3027.78	0.543755
3029.07	0.686687
3030.36	1.19172
3031.65	2.07596
3032.94	2.06431
3034.23	2.07271
3035.51	2.24557
3036.8	2.59042
3038.09	2.88499
3039.38	2.80483
3040.66	3.37138
3041.95	4.04518
3043.23	4.52975
3044.52	5.16362
3045.81	5.85186
3047.09	6.29554
3048.38	6.22723
3049.66	7.05155
3050.95	7.83994
3052.23	8.69469
3053.52	8.79434
3054.8	9.03608
3056.09	9.44653
3057.37	9.45477
3058.65	9.70133
3059.94	10.5014
3061.22	10.2796
3062.5	9.75309
3063.79	9.43829
3065.07	9.6722
3066.35	9.54394
3067.63	9.28404
3068.92	8.79376
3070.2	7.89011
3071.48	7.36534
3072.76	7.2894
3074.04	6.95639
3075.32	6.36627
3076.6	5.9563
3077.88	5.3883
3079.16	5.24502
3080.44	4.75538
3081.72	3.65087
3083	2.08164
3084.28	1.80645
3085.56	1.19578
3086.84	0.723721
3088.12	0.311517
3089.4	0.484971
3090.67	0.688181
3091.95	0.591319
3093.23	0.590681
3094.51	0.671727
3095.78	1.17296
3097.06	0.981616
3098.34	1.26601
3099.61	1.65978
3100.89	1.30318
3102.17	1.40574
3103.44	1.58861
3104.72	2.12415
3105.99	2.65501
3107.27	3.29722
3108.54	4.21183
3109.82	4.39514
3111.09	5.03191
3112.37	5.29528
3113.64	6.39148
3114.92	6.9164
3116.19	6.92683
3117.46	7.15708
3118.74	7.99563
3120.01	8.61014
3121.28	9.07341
3122.55	9.63729
3123.83	9.975
3125.1	9.69292
3126.37	9.98356
3127.64	10.8183
3128.91	11.6203
3130.19	11.7994
3131.46	11.8496
3132.73	11.8472
3134	11.9163
3135.27	12.5605
3136.54	12.7591
3137.81	12.7926
3139.08	12.7911
3140.35	12.7975
3141.62	12.9934
3142.89	13.0663
3144.16	13.1054
3145.42	13.5508
3146.69	14.0894
3147.96	14.314
3149.23	15.6358
