#Acq. time (s)=	45
#Accumulations=	2
#Range (cm-¹)=	200...3150
#Windows=	2
#Auto scanning=	Off
#Autofocus=	Off
#Macrospot=	Off
#AutoExposure=	Off
#Spike filter=	Multiple accum.
#Delay time (s)=	0
#Binning=	1
#Readout mode=	Signal
#DeNoise=	Off
#ICS correction=	On
#Dark correction=	Off
#Inst. Process=	Off
#Detector Gain=	Best Dynamic Range
#Detector ADC=	20 kHz       
#Detector temperature (°C)=	-69.85
#Instrument=	LabRAM HR Evol
#Detector=	Synapse
#Objective=	x100
#Grating=	600 gr/mm
#ND Filter=	100%
#Laser (nm)=	532 
#Hole=	100.021
#Range=	Auto
#Laser Pol.=	No
#Raman. Pol.=	No
#Laser Pol. (°)=	-0.0007625
#Raman Pol. (°)=	89.9995
#Collection=	Microscope
#StageXY=	Marzhauser
#StageZ=	Marzhauser
#X (µm)=	-5132.5
#Y (µm)=	1520
#Z (µm)=	63.4
#Full time(mm:ss)=	3:18
#Project=	
#Sample=	
#Site=	
#Title=	Thy_50_12_37_2x_45s_532 nm_x100_100%_600 gr_mm
#Remark=	
#Date=	07.07.2022 11:59
#Acquired=	07.07.2022 11:59:20
#Base:Fit=	10.08.2022 10:04:30
#Base:Sub=	10.08.2022 10:04:45
#Filter:Polynom=	16.08.2022 10:20:25
#AxisType[0]=Intens
#AxisUnit[0]=Cnt
#AxisType[1]=Spectr
#AxisUnit[1]=1/cm
200.43	17.1273
202.246	17.2854
204.061	17.0217
205.875	17.0584
207.688	16.8591
209.501	16.2841
211.316	15.5709
213.129	14.1158
214.941	13.9336
216.753	12.7009
218.566	12.4636
220.377	10.8361
222.188	10.4709
223.999	8.05797
225.809	6.41384
227.618	5.64301
229.43	6.10593
231.239	6.47571
233.047	5.34139
234.855	5.8942
236.663	5.40302
238.471	4.44167
240.278	4.63597
242.087	5.02661
243.894	3.9404
245.7	3.50213
247.506	2.82685
249.311	2.74429
251.116	1.34349
252.921	1.11526
254.725	0.993221
256.529	0.671146
258.333	0.800151
260.136	2.11842
261.939	3.34622
263.744	3.52818
265.546	3.20396
267.348	2.71084
269.15	2.83974
270.951	2.57974
272.752	2.47873
274.552	2.81723
276.353	3.25615
278.152	4.01594
279.952	3.85326
281.751	4.10492
283.55	4.28579
285.348	4.75512
287.146	4.37641
288.942	4.07922
290.739	4.91943
292.536	4.7008
294.333	4.11408
296.129	4.13215
297.925	3.77786
299.721	4.37584
301.516	4.46706
303.311	4.56076
305.106	5.3617
306.9	4.66958
308.694	4.89086
310.486	4.25095
312.279	4.98286
314.072	4.48619
315.864	4.8122
317.656	6.25244
319.448	6.87244
321.24	7.44296
323.029	8.17647
324.819	8.71388
326.61	8.40175
328.4	8.81313
330.19	8.93756
331.977	9.11396
333.766	8.65729
335.555	9.75021
337.343	9.7612
339.131	9.82668
340.917	9.20174
342.704	9.66933
344.491	9.37409
346.277	9.10758
348.062	8.73386
349.848	8.99243
351.633	8.96577
353.416	7.84355
355.201	6.89996
356.986	6.60384
358.77	5.99995
360.552	6.3396
362.335	5.85096
364.118	6.71577
365.899	7.03837
367.682	6.91577
369.464	7.20345
371.243	6.44229
373.025	5.49437
374.806	5.1595
376.585	4.66305
378.365	4.78944
380.143	4.07143
381.923	2.70736
383.702	3.2579
385.479	4.32845
387.258	4.05153
389.034	4.47987
390.812	3.58653
392.59	2.98282
394.365	2.15557
396.142	2.22212
397.916	2.49911
399.693	2.97018
401.467	2.80511
403.242	2.87646
405.015	2.77351
406.79	3.81626
408.565	4.42107
410.337	5.46335
412.111	5.19563
413.882	4.03906
415.656	4.80479
417.426	5.47888
419.197	5.58547
420.969	5.81534
422.739	6.38764
424.51	6.15556
426.279	5.34221
428.05	4.57364
429.819	4.24356
431.589	3.89417
433.356	3.23307
435.124	3.23553
436.893	4.22312
438.66	5.00247
440.428	4.49416
442.194	4.21641
443.96	4.84136
445.727	4.52751
447.492	5.54316
449.259	6.47406
451.023	6.38691
452.787	7.8968
454.553	7.55196
456.316	7.86509
458.079	8.23982
459.844	8.456
461.606	9.77873
463.368	11.2891
465.132	12.0264
466.893	12.7875
468.654	14.1881
470.415	15.2849
472.177	16.3576
473.937	16.8462
475.696	17.3238
477.456	17.6577
479.217	17.8891
480.975	18.4429
482.733	19.0226
484.491	19.4361
486.251	19.9053
488.008	20.2194
489.765	20.338
491.522	20.8195
493.278	21.561
495.036	22.5001
496.791	23.7342
498.546	23.6658
500.301	23.3068
502.056	24.1017
503.81	24.4807
505.566	24.8029
507.319	24.8078
509.073	24.4658
510.825	25.1644
512.578	24.3272
514.33	24.6351
516.082	25.2496
517.833	25.959
519.587	25.7952
521.337	25.9391
523.088	26.9653
524.838	27.6319
526.588	27.3404
528.337	27.1919
530.087	28.0891
531.835	27.8935
533.584	28.1793
535.332	28.051
537.08	27.3365
538.827	27.573
540.574	27.4134
542.321	26.4119
544.068	26.164
545.814	25.7951
547.56	25.6867
549.305	25.4516
551.05	24.7758
552.795	24.5841
554.54	25.1378
556.284	24.5877
558.027	23.4408
559.771	22.7538
561.514	20.9452
563.257	20.4353
564.999	18.7153
566.742	16.8816
568.481	15.9042
570.223	14.6705
571.964	13.3732
573.705	11.9198
575.445	10.8092
577.185	10.7425
578.925	10.4352
580.665	10.0784
582.402	9.07087
584.141	9.07881
585.879	7.42616
587.617	7.06629
589.355	7.15091
591.092	5.83228
592.828	6.97087
594.564	6.45964
596.301	6.29005
598.037	7.10631
599.773	7.7452
601.506	8.29742
603.242	8.90202
604.976	9.1704
606.711	10.7932
608.443	11.3465
610.177	11.7169
611.91	11.3923
613.644	12.2891
615.374	13.3052
617.107	13.4556
618.839	13.118
620.569	13.6834
622.3	13.2067
624.032	14.574
625.761	15.3872
627.491	14.8168
629.221	15.5169
630.949	16.1623
632.679	16.7897
634.408	17.4986
636.135	18.5011
637.863	18.3405
639.592	19.0812
641.318	18.4655
643.045	17.595
644.77	17.8806
646.497	17.7297
648.224	17.5426
649.948	18.2336
651.674	17.8411
653.398	18.1866
655.123	18.4419
656.846	17.5682
658.57	17.6097
660.293	17.8676
662.017	19.8562
663.738	21.5621
665.462	22.3115
667.185	22.7395
668.905	23.8045
670.628	24.4697
672.348	23.9113
674.067	23.7465
675.789	24.7363
677.508	25.6083
679.228	27.9041
680.947	28.512
682.667	29.6569
684.385	30.4953
686.104	31.5397
687.821	32.5589
689.538	33.7827
691.256	34.588
692.972	35.0762
694.69	34.8116
696.406	36.568
698.121	37.0734
699.837	37.9562
701.552	38.5647
703.268	38.1232
704.982	39.0607
706.695	40.0375
708.41	40.25
710.123	40.1827
711.836	40.3615
713.55	39.9002
715.262	40.2621
716.973	40.4916
718.685	40.2152
720.398	40.1342
722.108	40.8365
723.818	41.0774
725.53	42.297
727.24	42.66
728.949	43.9855
730.658	44.804
732.369	45.5449
734.077	46.8748
735.785	47.3102
737.493	48.3831
739.2	49.1464
740.909	49.6517
742.616	51.5862
744.322	54.6879
746.028	56.6724
747.734	58.4393
749.441	59.9643
751.146	61.6887
752.851	62.7273
754.555	63.1291
756.26	63.6502
757.963	64.5488
759.667	66.9844
761.372	69.9682
763.075	70.1367
764.777	71.8344
766.479	72.6624
768.181	73.5418
769.883	75.1351
771.584	76.0953
773.285	77.1916
774.986	78.455
776.686	79.1204
778.386	79.376
780.085	80.2865
781.785	80.7264
783.484	79.3809
785.182	79.2892
786.881	79.3041
788.579	79.5058
790.276	80.2749
791.974	80.7461
793.671	81.3309
795.367	80.9874
797.064	81.5506
798.76	80.6103
800.456	80.2401
802.151	80.1711
803.846	79.8116
805.541	78.8012
807.236	79.0161
808.93	78.7781
810.624	78.4172
812.317	78.1904
814.01	77.2668
815.703	76.6888
817.394	76.3775
819.086	76.3903
820.778	76.0187
822.47	75.1508
824.161	74.5119
825.852	74.4404
827.543	74.181
829.231	73.616
830.921	71.8799
832.611	71.6606
834.3	71.2371
835.989	71.3568
837.676	69.0368
839.364	68.1081
841.053	68.2585
842.74	67.3559
844.426	66.3385
846.113	64.9572
847.8	63.6919
849.486	64.537
851.171	62.8993
852.857	62.3681
854.542	60.8762
856.227	60.3867
857.911	61.1791
859.595	60.7807
861.279	60.6352
862.961	59.8889
864.645	59.8319
866.329	58.6185
868.01	58.1283
869.692	58.8936
871.375	58.6437
873.055	59.4995
874.737	59.7676
876.418	58.9901
878.097	58.4862
879.778	56.9665
881.457	56.6581
883.137	56.1213
884.817	55.9305
886.495	55.8829
888.174	56.1411
889.851	54.8544
891.53	54.7818
893.206	55.3944
894.884	54.0868
896.562	53.5528
898.237	52.4986
899.914	52.1554
901.589	52.1335
903.265	51.9231
904.94	51.0607
906.615	48.6439
908.289	48.346
909.964	47.7459
911.637	46.4719
913.31	46.2658
914.984	45.7134
916.656	44.7443
918.33	43.3189
920.001	41.5311
921.674	39.9313
923.345	40.8278
925.015	40.4123
926.687	39.3188
928.357	39.0896
930.028	39.1621
931.698	37.2932
933.366	35.7198
935.037	34.2624
936.705	34.6184
938.373	34.1125
940.043	34.692
941.71	34.1022
943.379	32.7413
945.046	31.9367
946.712	30.5659
948.378	30.7922
950.046	30.7511
951.711	31.8076
953.376	31.8
955.043	31.1181
956.708	31.1133
958.372	30
960.036	28.989
961.701	29.5888
963.364	30.6512
965.027	32.068
966.69	33.3049
968.354	33.77
970.016	33.7686
971.678	33.3816
973.339	33.0743
975	33.323
976.661	34.3074
978.324	34.7027
979.984	35.5549
981.644	36.1121
983.303	36.9773
984.962	37.5621
986.621	37.5385
988.282	38.0216
989.94	37.2578
991.598	38.3903
993.256	38.9762
994.913	39.2492
996.57	39.3012
998.227	39.3742
999.884	41.0308
1001.54	41.1682
1003.2	42.0838
1004.85	42.482
1006.51	42.9741
1008.16	43.1495
1009.82	42.8251
1011.47	42.4321
1013.12	41.2252
1014.78	40.5946
1016.43	40.5995
1018.08	40.5963
1019.74	40.8442
1021.39	40.9984
1023.04	40.2192
1024.69	39.4408
1026.34	39.9114
1028	40.7854
1029.65	41.4256
1031.3	41.4753
1032.95	40.987
1034.6	39.6816
1036.25	38.5979
1037.9	37.7594
1039.55	36.5051
1041.19	36.0857
1042.84	36.3579
1044.49	36.8225
1046.14	36.5458
1047.79	35.2164
1049.43	34.0661
1051.08	32.4376
1052.73	31.4338
1054.37	30.116
1056.02	29.3014
1057.66	27.8746
1059.31	27.2968
1060.95	26.5549
1062.6	25.3796
1064.24	24.0711
1065.88	22.481
1067.53	20.8286
1069.17	20.6969
1070.81	19.8057
1072.46	18.6019
1074.1	18.7734
1075.74	18.1763
1077.38	17.8675
1079.02	17.2837
1080.66	17.1264
1082.3	16.9883
1083.94	15.342
1085.58	15.7281
1087.22	14.9931
1088.86	16.1349
1090.5	15.401
1092.14	14.761
1093.78	15.021
1095.42	15.2969
1097.05	16.178
1098.69	16.3102
1100.33	16.6292
1101.97	17.2334
1103.6	17.5679
1105.24	17.0926
1106.87	17.8177
1108.51	19.2363
1110.15	19.4879
1111.78	18.5904
1113.41	17.4802
1115.05	16.8719
1116.68	16.3854
1118.31	16.8822
1119.95	16.3304
1121.58	15.7286
1123.21	15.5522
1124.85	15.1345
1126.48	14.2056
1128.11	13.4394
1129.74	12.2397
1131.37	11.8877
1133	10.5695
1134.63	10.3773
1136.26	9.13681
1137.89	8.89494
1139.52	8.44328
1141.15	8.14841
1142.78	7.27437
1144.41	6.69819
1146.04	5.53392
1147.66	4.66997
1149.29	4.75292
1150.92	5.27577
1152.55	4.37654
1154.17	3.95573
1155.8	2.54382
1157.43	2.34667
1159.05	1.5556
1160.68	1.28101
1162.3	0.287277
1163.93	-0.11206
1165.55	-0.320369
1167.17	-0.639908
1168.8	-0.885479
1170.42	-0.20076
1172.05	-0.920525
1173.67	0.693873
1175.29	1.21944
1176.91	0.653428
1178.54	0.248507
1180.16	0.106494
1181.78	-0.127846
1183.4	0.320634
1185.02	0.680767
1186.64	0.971336
1188.26	1.46128
1189.88	1.33607
1191.5	1.50217
1193.12	1.42236
1194.74	0.714616
1196.36	1.96044
1197.97	3.00553
1199.59	4.06051
1201.21	4.29206
1202.83	4.67083
1204.44	5.18399
1206.06	6.8451
1207.68	7.54422
1209.29	8.54802
1210.91	9.57538
1212.52	11.1087
1214.14	12.5208
1215.75	14.79
1217.37	16.5017
1218.98	18.3494
1220.6	20.1457
1222.21	21.4961
1223.82	23.1473
1225.44	25.3219
1227.05	27.4848
1228.66	29.461
1230.27	32.0373
1231.88	33.994
1233.49	35.4241
1235.1	36.9703
1236.72	38.3002
1238.33	40.4018
1239.94	41.8483
1241.55	43.8516
1243.16	45.9447
1244.76	48.0355
1246.37	51.0555
1247.98	53.3058
1249.59	55.2537
1251.2	56.592
1252.8	56.9128
1254.41	58.7103
1256.02	58.3854
1257.63	58.4375
1259.23	58.5808
1260.84	60.4301
1262.44	61.9123
1264.05	63.7806
1265.66	64.5544
1267.26	66.9222
1268.87	68.8572
1270.47	70.8301
1272.07	72.356
1273.68	74.046
1275.28	74.6761
1276.88	76.596
1278.48	77.9012
1280.09	78.6017
1281.69	79.2102
1283.29	79.762
1284.89	80.6167
1286.49	82.228
1288.09	82.1496
1289.69	83.308
1291.3	84.1819
1292.9	85.1888
1294.49	86.7025
1296.09	86.8364
1297.69	88.1061
1299.29	87.8965
1300.89	87.8713
1302.49	87.4195
1304.09	88.5855
1305.68	89.0938
1307.28	89.2285
1308.88	88.8137
1310.47	88.7233
1312.07	88.4532
1313.66	87.7874
1315.26	87.0563
1316.86	85.3721
1318.45	84.4193
1320.05	84.1662
1321.64	82.8751
1323.23	82.1768
1324.83	80.438
1326.42	78.9435
1328.01	76.5222
1329.61	73.2366
1331.2	71.7495
1332.79	70.4541
1334.38	69.0095
1335.98	67.4583
1337.57	65.6236
1339.16	64.9262
1340.75	65.7678
1342.34	64.7016
1343.93	64.1464
1345.52	63.2252
1347.11	62.9083
1348.7	61.6054
1350.29	60.5502
1351.87	58.8427
1353.46	57.6939
1355.05	56.2612
1356.64	54.6919
1358.23	54.0513
1359.81	52.6812
1361.4	51.9977
1362.99	50.4529
1364.57	49.2569
1366.16	49.2308
1367.74	47.3894
1369.33	46.2543
1370.91	45.008
1372.5	43.9652
1374.08	43.3961
1375.67	41.929
1377.25	42.2076
1378.83	40.3569
1380.42	39.477
1382	40.7357
1383.58	41.6064
1385.16	41.0114
1386.75	40.2921
1388.33	39.8635
1389.91	39.5092
1391.49	38.7633
1393.07	37.2965
1394.65	37.1008
1396.23	36.1641
1397.81	36.5901
1399.39	36.9688
1400.97	37.6484
1402.55	38.3623
1404.13	38.6586
1405.7	38.94
1407.28	39.8478
1408.86	41.4999
1410.44	44.2668
1412.01	45.7094
1413.59	46.8516
1415.17	48.9741
1416.74	50.8403
1418.32	54.5468
1419.89	58.1847
1421.47	60.8489
1423.05	64.4436
1424.62	67.8888
1426.19	70.7398
1427.77	74.5724
1429.34	77.9168
1430.92	80.3168
1432.49	83.6815
1434.06	86.546
1435.63	89.287
1437.2	92.486
1438.78	94.7065
1440.35	96.3524
1441.92	97.363
1443.49	99.1776
1445.06	100.888
1446.63	100.375
1448.2	100.868
1449.77	102.483
1451.34	102.734
1452.91	103.014
1454.48	101.865
1456.05	101.903
1457.62	100.092
1459.18	99.1277
1460.75	97.8393
1462.32	94.3385
1463.89	90.9555
1465.45	87.9933
1467.02	85.2404
1468.59	81.1004
1470.15	77.435
1471.72	73.8681
1473.28	70.7833
1474.85	66.659
1476.41	62.8894
1477.98	59.2355
1479.54	55.6694
1481.11	52.274
1482.67	49.45
1484.23	47.0572
1485.8	44.997
1487.36	42.1698
1488.92	39.2144
1490.48	36.9179
1492.05	34.7819
1493.61	33.7719
1495.17	32.5268
1496.73	30.9016
1498.29	29.7833
1499.85	27.6041
1501.41	25.8193
1502.97	25.7665
1504.53	25.0434
1506.09	25.2544
1507.65	24.8976
1509.2	24.7146
1510.76	24.42
1512.32	23.9764
1513.88	24.021
1515.44	24.0868
1516.99	25.021
1518.55	26.1087
1520.1	27.3194
1521.66	29.1855
1523.22	29.4146
1524.77	30.7959
1526.33	32.5214
1527.88	34.2124
1529.44	34.289
1530.99	34.9678
1532.55	35.0286
1534.1	36.428
1535.65	37.1351
1537.21	38.1197
1538.76	39.3929
1540.31	41.1956
1541.86	43.2389
1543.42	45.2885
1544.97	47.5935
1546.52	48.8696
1548.07	51.3598
1549.62	53.2772
1551.17	54.7777
1552.72	56.6519
1554.27	58.2266
1555.82	60.021
1557.37	61.5913
1558.92	63.6383
1560.47	66.0981
1562.02	67.3717
1563.57	67.7329
1565.11	68.1484
1566.66	69.963
1568.21	71.2019
1569.75	72.329
1571.3	73.1567
1572.85	73.7277
1574.39	74.5435
1575.94	75.587
1577.49	76.3698
1579.03	78.3099
1580.58	80.8291
1582.12	80.8353
1583.67	81.7558
1585.21	82.6512
1586.75	83.3638
1588.3	83.4995
1589.84	84.4853
1591.38	84.9926
1592.93	87.2882
1594.47	87.9824
1596.01	88.2125
1597.55	87.4398
1599.09	87.2015
1600.63	85.5412
1602.18	85.1804
1603.72	84.1594
1605.26	82.5828
1606.8	81.5377
1608.34	80.7839
1609.87	80.5613
1611.41	80.6429
1612.95	80.9317
1614.49	80.7126
1616.03	81.3194
1617.57	81.6641
1619.11	82.4411
1620.64	83.1498
1622.18	83.2965
1623.72	83.4094
1625.25	84.0668
1626.79	84.6558
1628.32	85.1198
1629.86	85.9436
1631.4	86.1831
1632.93	86.9875
1634.47	88.2956
1636	89.9438
1637.53	91.9445
1639.07	91.9371
1640.6	92.5569
1642.14	94.7633
1643.67	96.5702
1645.2	97.7029
1646.73	98.508
1648.27	99.5303
1649.8	101.482
1651.33	102.142
1652.86	103.743
1654.39	104.866
1655.92	105.337
1657.45	106.792
1658.98	106.643
1660.51	106.809
1662.04	106.849
1663.57	105.999
1665.1	104.614
1666.63	103.241
1668.16	101.514
1669.69	100.064
1671.21	97.0618
1672.74	94.215
1674.27	90.8634
1675.79	89.1694
1677.32	85.413
1678.85	82.4506
1680.37	79.2699
1681.9	75.415
1683.42	72.7168
1684.95	69.145
1686.47	66.9256
1688	63.6413
1689.52	61.1512
1691.05	58.0125
1692.57	55.5611
1694.1	53.4143
1695.62	50.6179
1697.14	47.6103
1698.66	45.0922
1700.19	42.817
1701.71	39.7211
1703.23	36.6498
1704.75	33.9521
1706.27	31.5582
1707.79	29.7028
1709.32	28.0707
1710.83	26.759
1712.35	25.8113
1713.88	24.4891
1715.39	22.6179
1716.91	21.9189
1718.43	21.189
1719.95	20.4019
1721.47	18.9333
1722.99	18.2082
1724.5	18.3974
1726.02	18.3893
1727.54	18.1785
1729.06	18.2536
1730.57	17.745
1732.09	18.3184
1733.61	18.5902
1735.12	17.2376
1736.64	17.2624
1738.15	17.0596
1739.67	16.8385
1741.18	16.2224
1742.7	15.559
1744.21	14.9925
1745.72	14.4494
1747.24	13.9887
1748.75	13.8671
1750.26	13.9583
1751.78	14.0014
1753.29	13.3008
1754.8	13.457
1756.31	13.6447
1757.82	13.6493
1759.34	14.024
1760.85	13.4568
1762.36	13.8761
1763.87	13.1485
1765.38	12.4266
1766.89	12.5703
1768.4	12.3178
1769.91	12.2648
1771.41	11.059
1772.92	10.437
1774.43	9.52871
1775.94	8.37699
1777.45	7.80553
1778.96	7.62085
1780.46	7.60885
1781.97	7.4839
1783.48	7.66131
1784.98	7.55726
1786.49	7.50226
1788	7.41472
1789.5	6.71244
1791.01	6.27553
1792.51	5.61323
1794.01	4.93035
1795.52	4.37794
1797.02	3.9515
1798.53	4.46368
1800.03	4.6392
1801.54	4.13973
1803.04	3.97061
1804.54	3.62634
1806.04	4.34762
1807.54	4.4367
1809.05	3.92691
1810.55	4.11926
1812.05	4.66171
1813.55	4.65272
1815.05	4.63081
1816.55	3.70147
1818.05	3.49418
1819.55	3.61625
1821.05	4.28732
1822.55	5.14699
1824.05	5.76956
1825.55	6.24144
1827.05	6.59608
1828.55	7.32154
1830.04	7.17733
1831.54	6.96714
1833.04	6.30392
1834.54	6.4027
1836.03	5.61702
1837.53	5.90427
1839.03	5.9391
1840.52	5.91637
1842.02	6.04958
1843.51	5.74124
1845.01	5.71826
1846.5	5.16377
1848	5.50646
1849.49	5.8521
1850.99	6.1625
1852.48	5.87389
1853.97	5.90127
1855.47	5.85967
1856.96	5.71284
1858.45	5.3852
1859.94	4.59186
1861.44	4.5771
1862.93	3.99717
1864.42	3.37
1865.91	2.74687
1867.4	2.41855
1868.89	3.03503
1870.38	2.88637
1871.87	3.00961
1873.36	3.59138
1874.85	3.72395
1876.34	4.10657
1877.83	4.70337
1879.32	5.24519
1880.81	5.80035
1882.3	5.34009
1882.56	5.27982
1884.06	5.24644
1885.55	5.67161
1887.04	5.76675
1888.54	5.10469
1890.03	4.44945
1891.52	4.87255
1893.02	5.28047
1894.51	5.24921
1896	5.22935
1897.49	4.95875
1898.99	4.81105
1900.48	4.12909
1901.97	3.57242
1903.46	2.69789
1904.95	2.11727
1906.44	1.86208
1907.93	2.12289
1909.42	2.03384
1910.91	1.73138
1912.4	2.06065
1913.89	1.89189
1915.38	1.87143
1916.86	2.17498
1918.35	2.13242
1919.84	2.05625
1921.33	1.79096
1922.82	1.22052
1924.3	1.30756
1925.79	0.846099
1927.28	1.33233
1928.76	1.21769
1930.25	1.16561
1931.74	1.28382
1933.22	2.07096
1934.71	2.75483
1936.19	2.12703
1937.67	2.26188
1939.16	3.40717
1940.64	3.97551
1942.13	4.12087
1943.61	4.00523
1945.09	5.08503
1946.58	6.11566
1948.06	5.9178
1949.54	6.77735
1951.03	6.78288
1952.51	6.94005
1953.99	6.17939
1955.47	6.27051
1956.95	6.83017
1958.43	6.54754
1959.91	6.35051
1961.39	6.20244
1962.87	5.24024
1964.35	4.92359
1965.83	5.49121
1967.31	5.02546
1968.79	4.83518
1970.27	4.70732
1971.75	4.2911
1973.22	3.7868
1974.7	3.63458
1976.18	3.45247
1977.66	3.01809
1979.13	3.05626
1980.61	3.54333
1982.09	4.0206
1983.56	4.07386
1985.04	3.99762
1986.52	4.33571
1987.99	3.68637
1989.47	3.96886
1990.94	3.55272
1992.41	3.47507
1993.89	3.79312
1995.36	3.82646
1996.84	4.37415
1998.31	4.7944
1999.78	5.44874
2001.26	6.15924
2002.73	6.15073
2004.2	6.93763
2005.67	6.39932
2007.15	6.42397
2008.62	6.21439
2010.09	6.19313
2011.56	6.76696
2013.03	7.84073
2014.5	7.25168
2015.97	7.58912
2017.44	8.66415
2018.91	9.56896
2020.38	10.1137
2021.85	10.3319
2023.32	11.0197
2024.79	10.8776
2026.25	10.9361
2027.72	11.0047
2029.19	11.7951
2030.66	11.8937
2032.13	11.6001
2033.59	11.9111
2035.06	12.4592
2036.53	11.7741
2037.99	12.2369
2039.46	12.2142
2040.92	12.223
2042.39	12.9478
2043.85	13.1263
2045.32	13.1286
2046.78	13.2739
2048.25	13.2726
2049.71	13.116
2051.18	12.865
2052.64	13.5163
2054.1	14.1486
2055.56	14.3323
2057.03	14.3754
2058.49	14.4073
2059.95	14.1313
2061.42	14.2114
2062.88	14.9104
2064.34	14.9414
2065.8	15.7444
2067.26	16.932
2068.72	17.1949
2070.18	17.8113
2071.64	18.4121
2073.1	19.4623
2074.56	19.6518
2076.02	20.3496
2077.48	21.4822
2078.94	21.9088
2080.39	23.2086
2081.85	24.4848
2083.31	25.6011
2084.77	26.8244
2086.22	28.0036
2087.68	29.1982
2089.14	31.0559
2090.6	32.4477
2092.05	33.5764
2093.51	34.7897
2094.96	36.2413
2096.42	37.4137
2097.87	38.8454
2099.33	40.2174
2100.78	41.6753
2102.24	43.4118
2103.69	45.3734
2105.15	46.2038
2106.6	48.1949
2108.05	49.5553
2109.51	51.2507
2110.96	53.059
2112.41	54.4571
2113.86	56.5745
2115.32	58.0385
2116.77	59.971
2118.22	62.1502
2119.67	64.1665
2121.12	65.5765
2122.57	67.7768
2124.02	69.9847
2125.47	73.371
2126.92	76.2931
2128.37	78.2831
2129.82	80.7365
2131.27	82.7814
2132.72	85.9454
2134.17	88.4478
2135.62	91.6571
2137.06	93.6564
2138.51	95.9181
2139.96	98.0597
2141.41	100.007
2142.85	102.39
2144.3	105.048
2145.75	107.222
2147.19	109.359
2148.64	111.6
2150.09	113.649
2151.53	115.421
2152.97	117.161
2154.42	118.774
2155.86	120.145
2157.31	121.614
2158.75	123.571
2160.2	124.512
2161.64	126.207
2163.08	127.343
2164.53	128.567
2165.97	129.086
2167.41	130.175
2168.86	130.502
2170.3	130.976
2171.74	131.43
2173.18	131.472
2174.62	132.274
2176.06	131.837
2177.5	130.945
2178.94	130.126
2180.38	128.972
2181.82	128.142
2183.26	126.756
2184.7	125.632
2186.14	124.007
2187.58	122.489
2189.02	121.366
2190.46	119.694
2191.89	118.088
2193.33	115.983
2194.77	115.12
2196.21	113.376
2197.64	111.6
2199.08	108.917
2200.52	106.737
2201.95	105.089
2203.39	103.045
2204.83	101.499
2206.26	98.5775
2207.7	96.382
2209.13	93.1862
2210.57	90.5562
2212	88.2392
2213.43	86.201
2214.87	83.8493
2216.3	81.9258
2217.73	79.7421
2219.17	77.7352
2220.6	75.3888
2222.03	73.2357
2223.47	71.2138
2224.9	69.1845
2226.33	66.8077
2227.76	65.4847
2229.19	63.7809
2230.62	62.5997
2232.05	60.6989
2233.49	59.6411
2234.91	57.3099
2236.34	55.2899
2237.77	53.6514
2239.2	52.1172
2240.63	50.5304
2242.06	48.9636
2243.49	47.846
2244.92	45.7458
2246.35	44.5861
2247.78	42.0248
2249.2	40.6534
2250.63	39.6493
2252.06	38.944
2253.48	37.2097
2254.91	36.3965
2256.34	35.5481
2257.76	34.571
2259.19	34.1503
2260.61	33.5433
2262.04	33.1077
2263.46	32.478
2264.89	31.3625
2266.31	31.5317
2267.74	29.6616
2269.16	29.0553
2270.59	28.5273
2272.01	28.0354
2273.43	27.6529
2274.85	26.9278
2276.28	26.2712
2277.7	25.6174
2279.12	25.2503
2280.54	24.8373
2281.97	24.5938
2283.39	24.2694
2284.81	24.091
2286.23	23.4889
2287.65	23.1097
2289.07	22.2972
2290.49	21.0444
2291.91	19.8666
2293.33	18.8692
2294.75	18.5544
2296.17	18.3675
2297.59	17.1866
2299.01	17.4193
2300.42	16.9597
2301.84	16.7013
2303.26	16.1636
2304.68	15.5398
2306.1	15.5648
2307.51	16.1355
2308.93	15.6924
2310.35	15.4133
2311.76	15.397
2313.18	14.5305
2314.59	14.4385
2316.01	14.0494
2317.43	13.4725
2318.84	13.731
2320.26	13.763
2321.67	13.4363
2323.08	12.7518
2324.5	12.3021
2325.91	12.3182
2327.33	11.513
2328.74	10.5879
2330.15	10.067
2331.56	9.295
2332.98	8.76111
2334.39	7.95346
2335.8	7.42835
2337.21	6.32253
2338.62	5.43033
2340.04	5.68757
2341.45	5.22652
2342.86	4.48829
2344.27	4.82434
2345.68	4.25425
2347.09	4.35978
2348.5	4.11423
2349.91	3.74688
2351.31	3.484
2352.72	3.37317
2354.13	3.02077
2355.54	2.43866
2356.95	1.45222
2358.36	1.06278
2359.76	0.248132
2361.17	-0.0151081
2362.58	-0.128131
2363.98	0.486627
2365.39	1.07106
2366.8	0.707045
2368.21	0.219175
2369.61	1.79738
2371.02	1.59515
2372.42	2.44474
2373.83	2.94349
2375.23	3.2247
2376.64	3.6488
2378.04	3.56958
2379.44	3.56539
2380.85	4.18184
2382.25	3.41161
2383.66	3.43159
2385.06	3.90966
2386.46	3.7228
2387.86	3.60413
2389.26	3.89076
2390.67	3.23071
2392.07	3.61009
2393.47	3.37365
2394.87	2.96415
2396.27	2.62914
2397.67	2.64416
2399.07	2.99632
2400.47	2.949
2401.87	2.72489
2403.27	2.51495
2404.67	2.17643
2406.07	2.63324
2407.47	3.00618
2408.87	3.36615
2410.27	3.55151
2411.67	3.02578
2413.07	3.72367
2414.46	4.33943
2415.86	5.06257
2417.26	5.37163
2418.66	5.35614
2420.05	5.60587
2421.45	5.98599
2422.84	6.3857
2424.24	6.22451
2425.64	5.96451
2427.03	6.31971
2428.43	6.85725
2429.82	7.35229
2431.22	7.84997
2432.61	7.2108
2434.01	6.94362
2435.4	7.04234
2436.79	7.58346
2438.19	8.13319
2439.58	8.66568
2440.97	8.80912
2442.37	8.89043
2443.76	8.16314
2445.15	7.94229
2446.54	7.95091
2447.93	8.01763
2449.33	8.01583
2450.72	7.59215
2452.11	6.74512
2453.5	6.98832
2454.89	7.00883
2456.28	6.89727
2457.67	6.66356
2459.06	6.13825
2460.45	5.86597
2461.84	5.8393
2463.23	5.54589
2464.62	4.91202
2466	5.50916
2467.39	5.51603
2468.78	5.46126
2470.17	5.3478
2471.55	4.96701
2472.94	4.97103
2474.33	4.78843
2475.72	5.16767
2477.1	5.31061
2478.49	4.95101
2479.87	5.44975
2481.26	5.69657
2482.65	6.14911
2484.03	5.79005
2485.42	6.09264
2486.8	5.66834
2488.19	5.81235
2489.57	5.40455
2490.95	5.40983
2492.34	5.05784
2493.72	4.77011
2495.1	4.37421
2496.49	4.16467
2497.87	4.36856
2499.25	4.01895
2500.63	3.05748
2502.02	2.06305
2503.4	2.03818
2504.78	2.77509
2506.16	2.32197
2507.54	1.71654
2508.92	1.2869
2510.3	0.928805
2511.68	0.285276
2513.06	0.00785021
2514.44	0.359792
2515.82	0.356435
2517.2	0.459003
2518.58	0.564171
2519.96	0.434816
2521.34	0.217454
2522.72	0.588152
2524.1	0.841201
2525.47	1.21662
2526.85	1.34722
2528.23	1.04987
2529.6	1.14817
2530.98	1.30836
2532.36	1.65119
2533.74	1.83063
2535.11	2.79655
2536.49	2.80452
2537.86	3.05015
2539.24	3.08805
2540.61	3.14903
2541.99	3.95411
2543.36	4.52169
2544.74	5.18212
2546.11	5.68196
2547.49	6.38936
2548.86	6.69838
2550.23	6.92515
2551.61	6.61471
2552.98	7.40471
2554.35	7.71271
2555.72	7.64257
2557.09	7.39526
2558.47	7.41121
2559.84	7.76682
2561.21	7.76723
2562.58	8.30738
2563.95	8.00626
2565.32	8.48322
2566.69	8.53422
2568.06	7.62544
2569.43	7.70498
2570.8	7.32054
2572.17	7.59402
2573.54	7.08973
2574.91	6.5917
2576.28	5.89453
2577.65	6.1178
2579.02	5.83189
2580.39	5.46672
2581.75	5.20457
2583.12	4.89029
2584.49	4.18521
2585.85	4.17141
2587.22	4.14374
2588.59	2.92964
2589.95	3.67112
2591.32	3.49874
2592.68	3.17533
2594.05	2.87651
2595.42	2.35436
2596.78	2.37193
2598.15	2.38514
2599.51	2.61232
2600.88	2.24885
2602.24	1.87443
2603.6	1.91972
2604.97	2.19164
2606.33	2.39116
2607.69	2.24809
2609.06	2.36419
2610.42	2.3757
2611.78	2.54791
2613.14	2.39376
2614.51	3.1745
2615.87	4.01231
2617.23	4.66689
2618.59	5.2127
2619.95	6.06604
2621.31	6.16388
2622.67	5.76279
2624.03	5.76086
2625.39	5.97365
2626.75	5.84088
2628.11	5.86044
2629.47	6.52084
2630.83	6.69807
2632.19	6.31581
2633.55	6.3143
2634.91	5.75085
2636.26	5.35264
2637.62	5.11232
2638.98	5.20269
2640.34	5.64861
2641.69	5.3911
2643.05	5.28834
2644.41	5.16368
2645.76	5.28657
2647.12	4.73937
2648.48	5.05544
2649.83	4.74091
2651.19	4.69336
2652.54	5.13091
2653.9	5.42618
2655.25	5.55936
2656.6	5.34665
2657.96	5.71684
2659.31	5.23029
2660.67	5.18545
2662.02	5.7195
2663.37	5.9093
2664.73	5.95943
2666.08	5.63584
2667.43	5.47746
2668.78	5.31877
2670.14	5.45452
2671.49	6.17488
2672.84	5.83814
2674.19	5.68385
2675.54	5.31179
2676.89	5.54832
2678.24	6.01078
2679.59	6.18842
2680.94	6.88695
2682.29	7.42252
2683.64	7.29764
2684.99	7.2647
2686.34	6.72391
2687.69	6.97335
2689.04	6.3154
2690.39	6.56972
2691.74	6.49055
2693.08	7.02765
2694.43	7.15565
2695.78	7.63037
2697.13	7.4966
2698.47	7.21975
2699.82	7.68658
2701.17	7.48138
2702.51	7.39253
2703.86	8.11797
2705.21	9.01556
2706.55	9.84677
2707.9	9.79691
2709.24	9.47958
2710.58	9.40832
2711.93	9.8961
2713.27	9.91996
2714.62	10.4648
2715.96	10.7697
2717.3	11.0622
2718.65	11.6223
2719.99	11.582
2721.33	11.3865
2722.68	11.9134
2724.02	12.2966
2725.36	12.7772
2726.71	13.5281
2728.05	13.6218
2729.39	13.9727
2730.73	13.5554
2732.07	13.4459
2733.41	13.4579
2734.75	13.345
2736.09	13.6246
2737.43	12.9695
2738.77	13.0221
2740.11	12.0214
2741.45	11.608
2742.79	11.3164
2744.13	10.8569
2745.47	10.8911
2746.81	10.7419
2748.14	10.5218
2749.48	9.50569
2750.82	9.11755
2752.16	9.09787
2753.49	8.3145
2754.83	8.43055
2756.17	7.74878
2757.5	7.19776
2758.84	7.11793
2760.18	6.88745
2761.51	6.05918
2762.85	5.88853
2764.18	5.38719
2765.52	5.08822
2766.85	4.87299
2768.19	3.72251
2769.52	3.76685
2770.86	3.39488
2772.19	2.70634
2773.52	1.93512
2774.86	1.44122
2776.19	0.778318
2777.52	0.596982
2778.86	0.279268
2780.19	0.394219
2781.52	-0.0048723
2782.85	0.225842
2784.19	-0.00930559
2785.52	-0.697104
2786.85	-0.503021
2788.18	-0.16255
2789.51	0.255645
2790.84	0.0703845
2792.17	0.62168
2793.5	0.102394
2794.83	0.217354
2796.16	0.154966
2797.49	0.107767
2798.82	0.584243
2800.15	0.796135
2801.48	0.188289
2802.81	0.13238
2804.13	-0.228763
2805.46	-0.109676
2806.79	-0.655912
2808.12	-0.839944
2809.45	-0.34157
2810.77	-0.716297
2812.1	-0.643521
2813.43	-0.774336
2814.75	-0.8709
2816.08	-0.417754
2817.41	0.120708
2818.73	1.19314
2820.06	2.93455
2821.38	5.5664
2822.71	7.7742
2824.03	11.0577
2825.36	14.2775
2826.68	17.1618
2828	20.4266
2829.33	24.4959
2830.65	28.1372
2831.98	31.4904
2833.3	35.4124
2834.62	38.7553
2835.94	42.5757
2837.27	45.9608
2838.59	50.3173
2839.91	54.4853
2841.23	58.4695
2842.55	62.8537
2843.87	67.2492
2845.2	71.6672
2846.52	76.5733
2847.84	81.7475
2849.16	86.8753
2850.48	91.4384
2851.8	96.8263
2853.12	102.858
2854.44	109.086
2855.76	114.757
2857.08	120.986
2858.39	126.643
2859.71	131.651
2861.03	137.049
2862.35	142.039
2863.67	147.371
2864.98	152.214
2866.3	155.854
2867.62	159.739
2868.94	163.293
2870.25	166.763
2871.57	169.229
2872.88	171.526
2874.2	174.062
2875.52	176.575
2876.83	178.687
2878.15	180.76
2879.46	183.304
2880.78	185.978
2882.09	188.236
2883.41	191.075
2884.72	194.298
2886.03	197.49
2887.35	200.649
2888.66	203.426
2889.97	206.183
2891.29	207.785
2892.6	209.542
2893.91	211.762
2895.22	215.158
2896.54	217.338
2897.85	219.308
2899.16	222.076
2900.47	224.659
2901.78	228.315
2903.09	231.869
2904.4	236.475
2905.71	240.554
2907.02	245.824
2908.33	251.351
2909.64	256.47
2910.95	262.465
2912.26	268.382
2913.57	274.143
2914.88	279.596
2916.19	285.925
2917.5	291.715
2918.81	297.952
2920.11	302.997
2921.42	307.463
2922.73	311.67
2924.04	314.896
2925.34	318.379
2926.65	321.065
2927.96	323.113
2929.26	325.246
2930.57	325.609
2931.87	324.847
2933.18	324.316
2934.49	322.673
2935.79	320.917
2937.1	318.259
2938.4	316.013
2939.7	312.769
2941.01	309.305
2942.31	305.961
2943.62	300.776
2944.92	296.492
2946.22	290.786
2947.53	284.85
2948.83	278.986
2950.13	273.061
2951.43	267.179
2952.74	260.636
2954.04	253.942
2955.34	247.178
2956.64	239.991
2957.94	233.344
2959.24	227.132
2960.54	220.602
2961.84	213.622
2963.15	207.385
2964.45	200.987
2965.75	195.316
2967.05	190.445
2968.34	184.743
2969.64	179.342
2970.94	173.592
2972.24	168.739
2973.54	162.939
2974.84	157.157
2976.14	151.924
2977.43	146.417
2978.73	140.955
2980.03	136.218
2981.33	130.96
2982.62	125.382
2983.92	120.122
2985.22	114.279
2986.51	108.596
2987.81	103.406
2989.11	97.7802
2990.4	92.7289
2991.7	87.2221
2992.99	82.1115
2994.29	77.5584
2995.58	71.7454
2996.88	67.0909
2998.17	63.2524
2999.46	59.3929
3000.76	55.2166
3002.05	51.8952
3003.34	48.3874
3004.64	44.6153
3005.93	41.7507
3007.22	38.1991
3008.52	34.3256
3009.81	31.4492
3011.1	28.1142
3012.39	25.4769
3013.68	23.3111
3014.97	21.6372
3016.27	19.9771
3017.56	18.3198
3018.85	16.6248
3020.14	14.4811
3021.43	12.7144
3022.72	11.0422
3024.01	10.0697
3025.3	9.57305
3026.59	9.54235
3027.88	8.81881
3029.16	8.40726
3030.45	8.60857
3031.74	8.78325
3033.03	8.20555
3034.32	8.02803
3035.6	8.45947
3036.89	9.09967
3038.18	9.53358
3039.47	10.4793
3040.75	11.3729
3042.04	12.2886
3043.33	12.9978
3044.61	13.9502
3045.9	13.9298
3047.18	14.0745
3048.47	14.7348
3049.75	15.4468
3051.04	15.4053
3052.32	16.2019
3053.61	16.226
3054.89	16.7898
3056.18	16.695
3057.46	16.6838
3058.74	16.4845
3060.03	16.1602
3061.31	16.2363
3062.59	16.1025
3063.88	15.6829
3065.16	14.8658
3066.44	14.2094
3067.72	13.3159
3069	12.5381
3070.29	12.0087
3071.57	10.3978
3072.85	9.93148
3074.13	8.56126
3075.41	7.70807
3076.69	6.76306
3077.97	6.26379
3079.25	5.36267
3080.53	4.42798
3081.81	3.31709
3083.09	1.79053
3084.37	0.920883
3085.65	0.612992
3086.93	0.35987
3088.21	0.208097
3089.49	-0.047408
3090.76	-0.155391
3092.04	-0.459923
3093.32	-0.22305
3094.6	-0.0224781
3095.87	-0.202784
3097.15	-0.304503
3098.43	0.0955684
3099.7	0.680373
3100.98	1.31983
3102.26	2.17989
3103.53	2.58103
3104.81	3.19206
3106.08	3.52429
3107.36	4.27198
3108.63	4.82918
3109.91	5.17298
3111.18	5.70493
3112.46	6.51181
3113.73	6.96031
3115	6.96456
3116.28	7.74765
3117.55	8.3925
3118.83	8.87395
3120.1	9.28697
3121.37	9.91196
3122.64	10.897
3123.92	11.9657
3125.19	12.9319
3126.46	13.8189
3127.73	14.3349
3129	14.8352
3130.27	15.6184
3131.55	16.6095
3132.82	17.4873
3134.09	18.2212
3135.36	18.5654
3136.63	19.6204
3137.9	19.8291
3139.17	21.0309
3140.44	22.059
3141.71	23.1973
3142.98	24.3681
3144.24	25.6227
3145.51	26.8605
3146.78	28.249
3148.05	29.2032
3149.32	29.5663
