#Acq. time (s)=	45
#Accumulations=	2
#Range (cm-¹)=	200...3150
#Windows=	2
#Auto scanning=	Off
#Autofocus=	Off
#Macrospot=	Off
#AutoExposure=	Off
#Spike filter=	Multiple accum.
#Delay time (s)=	0
#Binning=	1
#Readout mode=	Signal
#DeNoise=	Off
#ICS correction=	On
#Dark correction=	Off
#Inst. Process=	Off
#Detector Gain=	Best Dynamic Range
#Detector ADC=	20 kHz       
#Detector temperature (°C)=	-69.85
#Instrument=	LabRAM HR Evol
#Detector=	Synapse
#Objective=	x100
#Grating=	600 gr/mm
#ND Filter=	100%
#Laser (nm)=	532 
#Hole=	100.021
#Range=	Auto
#Laser Pol.=	No
#Raman. Pol.=	No
#Laser Pol. (°)=	-0.0007625
#Raman Pol. (°)=	89.9995
#Collection=	Microscope
#StageXY=	Marzhauser
#StageZ=	Marzhauser
#X (µm)=	-1426.6
#Y (µm)=	-622.7
#Z (µm)=	-227.9
#Full time(mm:ss)=	3:18
#Project=	
#Sample=	
#Site=	
#Title=	Thy_00_07_47_2x_45s_532 nm_x100_100%_600 gr_mm
#Remark=	
#Date=	29.06.2022 09:49
#Acquired=	29.06.2022 09:49:01
#Base:Fit=	10.08.2022 10:07:56
#Base:Sub=	10.08.2022 10:08:40
#Filter:Polynom=	16.08.2022 10:26:06
#AxisType[0]=Intens
#AxisUnit[0]=Cnt
#AxisType[1]=Spectr
#AxisUnit[1]=1/cm
200.523	-0.24459
202.339	2.46488
204.154	3.9272
205.967	5.97767
207.781	6.41328
209.596	6.91658
211.409	7.76647
213.222	8.58262
215.034	8.56429
216.848	9.23732
218.659	9.83758
220.47	10.2529
222.281	10.5661
224.091	11.1687
225.903	9.9947
227.713	10.6722
229.522	10.2717
231.331	10.1487
233.14	10.4379
234.948	9.97101
236.756	9.09892
238.566	8.88503
240.373	8.20123
242.18	7.75242
243.986	7.66684
245.792	7.11341
247.598	7.98382
249.403	7.67226
251.208	8.34464
253.013	7.30582
254.818	5.2404
256.624	5.20675
258.427	3.66313
260.231	4.04182
262.034	3.79191
263.836	2.52655
265.638	2.7936
267.44	2.1839
269.242	1.90124
271.043	1.28557
272.844	-0.235318
274.645	-0.467228
276.445	-0.0646279
278.245	0.286482
280.044	0.717112
281.843	1.06341
283.642	1.30669
285.44	2.47951
287.238	3.60508
289.036	4.34088
290.833	4.80315
292.63	5.28637
294.425	6.68839
296.221	6.86647
298.017	8.33141
299.813	9.20332
301.608	10.5015
303.403	10.8428
305.198	12.251
306.992	13.1872
308.786	13.7264
310.579	15.2555
312.371	16.0672
314.163	16.8513
315.956	17.1595
317.748	18.4809
319.54	18.3073
321.331	19.3433
323.122	19.4783
324.911	20.3973
326.701	20.7148
328.491	21.406
330.281	21.5873
332.071	21.8651
333.857	22.3135
335.646	22.4711
337.434	22.9637
339.222	22.0233
341.008	22.2277
342.795	21.2778
344.582	21.4237
346.369	21.3256
348.153	20.765
349.939	20.0639
351.724	18.8866
353.51	19.3842
355.292	19.0808
357.077	18.3075
358.861	17.2015
360.643	16.8913
362.426	16.6868
364.21	15.7875
365.99	15.5096
367.773	15.259
369.555	15.4518
371.335	15.3778
373.116	15.9194
374.897	16.3415
376.676	16.9321
378.456	16.9829
380.236	16.6521
382.014	16.4928
383.793	16.6144
385.57	16.6445
387.349	17.0398
389.127	17.1325
390.903	16.9046
392.681	17.048
394.456	16.578
396.233	15.4456
398.007	16.2222
399.784	16.0558
401.56	15.0193
403.333	15.2273
405.108	15.0168
406.881	14.1341
408.656	14.1611
410.428	14.6646
412.202	15.0571
413.973	14.9841
415.746	14.5874
417.517	14.3476
419.29	14.8645
421.06	15.0997
422.831	16.0819
424.601	16.8252
426.37	15.9103
428.141	15.8306
429.909	14.8015
431.679	14.2572
433.447	13.3631
435.216	12.4052
436.983	12.1915
438.75	12.1809
440.519	13.0908
442.285	14.35
444.052	14.6734
445.818	16.8382
447.583	18.1107
449.349	19.4372
451.114	20.865
452.878	21.7863
454.643	24.9405
456.407	27.3313
458.169	30.0525
459.934	31.4679
461.696	33.3371
463.458	35.7512
465.222	37.9542
466.983	39.2524
468.744	40.5183
470.507	43.0601
472.267	44.3776
474.027	44.866
475.787	44.4069
477.548	44.4237
479.307	45.3458
481.065	45.7567
482.823	46.3182
484.583	47.4761
486.341	48.0986
488.098	48.3993
489.855	48.8767
491.612	49.5619
493.37	50.0913
495.126	50.3596
496.881	50.4714
498.636	50.3716
500.391	50.218
502.148	48.2858
503.902	47.9822
505.656	46.484
507.409	45.3335
509.162	42.9583
510.915	40.2183
512.668	37.1549
514.42	33.8506
516.174	31.8539
517.925	29.127
519.676	28.1188
521.427	26.5118
523.178	25.4266
524.928	24.6485
526.678	24.2378
528.427	23.6959
530.176	22.8478
531.925	22.5225
533.673	21.9741
535.422	20.5539
537.169	19.4816
538.917	19.5905
540.664	18.471
542.411	18.9104
544.157	19.0499
545.903	19.2023
547.649	18.4222
549.395	18.6716
551.14	18.4006
552.884	17.5504
554.629	17.4071
556.373	17.0828
558.117	17.5962
559.86	16.9862
561.603	17.263
563.346	18.5021
565.089	19.011
566.831	19.1136
568.573	19.0167
570.314	20.0478
572.053	19.6747
573.794	19.6976
575.534	20.4451
577.274	20.701
579.014	21.7942
580.754	22.1511
582.493	22.3015
584.23	21.7459
585.968	21.9788
587.706	20.9611
589.444	19.9771
591.181	18.9312
592.919	17.4292
594.653	16.6983
596.39	15.6595
598.126	15.3424
599.862	14.7971
601.595	13.9571
603.33	13.7131
605.065	13.453
606.8	13.8041
608.532	13.7916
610.266	12.9914
611.999	12.4935
613.732	12.2354
615.463	11.9763
617.196	11.8189
618.928	11.7471
620.66	11.3172
622.389	10.8596
624.12	10.7822
625.851	10.8769
627.58	10.5599
629.31	10.6582
631.04	10.7862
632.767	9.57494
634.497	9.48548
636.223	9.61358
637.952	9.37846
639.68	10.8698
641.406	11.2446
643.134	11.524
644.861	12.3662
646.586	12.9401
648.312	13.4607
650.037	13.684
651.762	12.6564
653.486	12.5003
655.211	12.4951
656.936	13.0288
658.659	13.326
660.383	14.3452
662.105	15.4699
663.829	15.3637
665.55	16.0494
667.273	15.2808
668.994	15.3986
670.716	13.8773
672.436	13.6739
674.158	13.8101
675.877	14.5426
677.598	14.5436
679.317	16.187
681.035	17.172
682.755	17.6911
684.473	18.9678
686.192	19.273
687.909	19.7428
689.628	21.5519
691.344	22.4022
693.06	23.0185
694.778	23.5478
696.493	23.4479
698.211	24.8592
699.925	25.4409
701.64	25.8816
703.356	26.0239
705.07	27.0889
706.783	27.7186
708.498	27.7384
710.211	28.4447
711.924	29.0956
713.638	30.0097
715.35	30.072
717.061	31.3457
718.774	32.3687
720.485	33.9161
722.196	35.1059
723.906	36.2178
725.618	37.3276
727.328	37.6175
729.037	37.7122
730.746	39.5337
732.456	40.3561
734.165	41.0958
735.873	41.5748
737.58	42.4391
739.289	43.7621
740.997	44.3622
742.703	46.3765
744.41	47.1614
746.116	48.0625
747.823	48.4833
749.529	49.0748
751.234	50.9319
752.938	51.8109
754.643	53.6404
756.347	55.7117
758.051	58.411
759.756	60.2176
761.459	61.8366
763.162	62.4825
764.865	63.4699
766.567	63.8809
768.269	64.5605
769.97	65.0607
771.671	65.791
773.372	67.322
775.073	69.3062
776.773	69.4117
778.473	69.8194
780.174	69.9198
781.874	69.9167
783.573	69.9938
785.271	69.6434
786.97	69.8024
788.668	69.9341
790.365	70.5507
792.063	70.09
793.76	70.0405
795.456	70.5536
797.153	70.279
798.847	69.8216
800.543	69.0515
802.238	69.4272
803.933	70.1234
805.628	68.689
807.322	68.6773
809.017	68.9844
810.71	69.4292
812.404	69.636
814.097	69.0412
815.79	70.0777
817.483	70.4574
819.173	72.1974
820.865	73.2875
822.556	74.0461
824.248	74.6982
825.939	74.5787
827.629	75.2291
829.318	75.123
831.008	75.8756
832.697	76.3916
834.387	77.7081
836.076	78.7474
837.765	79.6755
839.451	80.4008
841.139	80.0691
842.827	79.2776
844.514	77.708
846.2	76.8059
847.886	74.9388
849.573	74.2882
851.259	73.7331
852.943	73.018
854.629	73.0918
856.314	72.9057
857.997	71.6001
859.682	69.8692
861.366	67.0972
863.05	65.4343
864.732	62.7341
866.415	60.8466
868.098	59.075
869.779	57.2097
871.461	55.5322
873.141	53.942
874.823	53.3752
876.505	50.6592
878.184	49.4667
879.865	47.6092
881.545	45.6081
883.223	44.5764
884.903	44.1842
886.581	43.6321
888.26	43.9679
889.937	41.5761
891.616	42.4498
893.294	42.6673
894.97	43.1468
896.648	43.2753
898.323	43.5876
900	45.7742
901.675	47.5468
903.351	48.5449
905.026	48.9547
906.701	49.314
908.375	50.5502
910.05	51.6775
911.723	53.4231
913.398	54.8649
915.07	55.9502
916.742	57.3267
918.415	58.8658
920.087	58.5859
921.76	59.3176
923.43	58.7743
925.103	58.7288
926.773	59.0946
928.443	58.4529
930.114	59.4705
931.783	59.6633
933.454	60.172
935.123	60.3987
936.791	59.661
938.461	58.481
940.128	56.4644
941.796	54.6505
943.464	53.0373
945.131	50.7141
946.797	48.6252
948.465	45.4109
950.131	43.1725
951.797	41.1282
953.462	38.5614
955.128	37.2528
956.793	33.846
958.457	31.7561
960.121	27.9267
961.786	26.9335
963.45	24.6868
965.113	23.6848
966.775	23.285
968.44	22.439
970.102	21.6819
971.763	21.9897
973.425	20.7085
975.086	20.8474
976.748	20.7631
978.409	20.3816
980.069	19.4727
981.729	19.3659
983.388	19.37
985.048	19.1999
986.708	18.649
988.367	19.0519
990.025	19.0002
991.683	19.2737
993.341	19.6788
994.998	20.6697
996.655	20.4742
998.312	20.729
999.969	21.878
1001.62	22.509
1003.28	23.6074
1004.94	25.6046
1006.59	26.8383
1008.25	28.3719
1009.9	28.7033
1011.56	30.389
1013.21	32.3904
1014.86	32.4141
1016.52	33.882
1018.17	34.9154
1019.82	34.959
1021.48	35.4762
1023.13	36.0026
1024.78	36.22
1026.43	36.486
1028.08	36.2362
1029.73	35.7681
1031.38	35.9454
1033.03	36.0064
1034.68	36.432
1036.33	36.0641
1037.98	36.9028
1039.63	36.1406
1041.28	37.0436
1042.93	37.5878
1044.57	39.1255
1046.22	39.9285
1047.87	40.419
1049.52	41.0829
1051.16	41.685
1052.81	43.0308
1054.45	42.9756
1056.1	42.5933
1057.75	42.2451
1059.39	42.011
1061.04	41.1513
1062.68	41.3565
1064.32	41.9494
1065.97	41.428
1067.61	41.0116
1069.25	39.9228
1070.9	40.0756
1072.54	39.4311
1074.18	39.1686
1075.82	39.8565
1077.47	40.1027
1079.11	38.9673
1080.75	39.2975
1082.39	39.7837
1084.03	40.0944
1085.67	40.8276
1087.31	40.9831
1088.95	42.3623
1090.59	42.8981
1092.22	43.6269
1093.86	44.987
1095.5	45.8895
1097.14	46.8914
1098.78	48.7625
1100.41	49.1435
1102.05	49.0042
1103.69	49.909
1105.32	50.7199
1106.96	50.6266
1108.59	51.0182
1110.23	51.9403
1111.86	51.5731
1113.5	51.3256
1115.13	50.8606
1116.77	50.3197
1118.4	50.8057
1120.03	51.014
1121.67	50.9694
1123.3	50.7122
1124.93	50.8542
1126.56	50.0226
1128.19	49.4732
1129.83	49.0576
1131.46	49.0933
1133.09	48.0754
1134.72	46.9845
1136.35	44.8673
1137.98	43.7217
1139.61	42.198
1141.24	40.61
1142.86	38.7362
1144.49	37.2486
1146.12	34.5642
1147.75	32.1609
1149.38	29.8424
1151	27.3041
1152.63	25.6204
1154.26	22.7054
1155.88	20.4315
1157.51	18.1068
1159.14	16.0125
1160.76	12.7569
1162.39	10.9561
1164.01	9.46817
1165.63	9.21431
1167.26	8.63462
1168.88	7.63739
1170.51	6.73175
1172.13	5.98301
1173.75	6.39475
1175.38	6.89433
1177	6.67082
1178.62	6.31554
1180.24	6.00405
1181.86	5.07676
1183.48	4.95149
1185.1	6.08767
1186.72	6.36281
1188.34	5.87464
1189.96	6.48605
1191.58	7.27326
1193.2	6.42004
1194.82	7.86309
1196.44	9.09131
1198.06	9.67197
1199.68	11.1317
1201.29	11.1514
1202.91	12.2761
1204.53	12.5613
1206.14	14.0554
1207.76	15.827
1209.38	17.8475
1210.99	19.3941
1212.61	20.254
1214.22	21.2308
1215.84	22.3793
1217.45	23.2153
1219.07	24.4052
1220.68	25.4717
1222.29	26.2794
1223.91	28.4523
1225.52	29.494
1227.13	31.495
1228.74	33.1142
1230.36	34.138
1231.97	34.7244
1233.58	36.1809
1235.19	36.5063
1236.8	37.595
1238.41	38.615
1240.02	40.1075
1241.63	40.1889
1243.24	41.7124
1244.85	44.0396
1246.46	44.7828
1248.07	45.6247
1249.67	46.3569
1251.28	46.6676
1252.89	47.8434
1254.5	47.2812
1256.1	46.4458
1257.71	46.0131
1259.32	45.5576
1260.92	45.3624
1262.53	45.2389
1264.13	45.8022
1265.74	45.2916
1267.34	44.1848
1268.95	44.2577
1270.55	43.9257
1272.15	43.3146
1273.76	42.2741
1275.36	42.3046
1276.97	41.862
1278.57	41.4031
1280.17	42.1146
1281.77	43.3259
1283.37	43.8599
1284.97	44.7487
1286.58	46.3759
1288.18	46.7413
1289.78	47.182
1291.38	47.6646
1292.98	48.2035
1294.58	49.032
1296.18	50.9827
1297.78	52.5947
1299.37	55.0936
1300.97	58.2588
1302.57	60.923
1304.17	63.6944
1305.77	66.4299
1307.36	70.6527
1308.96	72.6051
1310.55	75.6773
1312.15	78.3924
1313.75	81.2344
1315.34	83.7258
1316.94	86.2332
1318.53	87.909
1320.13	89.9999
1321.72	91.2317
1323.32	93.8194
1324.91	96.3138
1326.5	97.3609
1328.1	99.4705
1329.69	99.0082
1331.28	99.5835
1332.87	100.758
1334.47	100.791
1336.06	101.606
1337.65	101.645
1339.24	100.896
1340.83	100.642
1342.42	99.2977
1344.01	97.326
1345.6	95.9429
1347.19	94.3083
1348.78	92.3287
1350.37	90.3616
1351.96	89.37
1353.54	88.075
1355.13	86.6775
1356.72	85.4935
1358.31	83.4615
1359.89	81.529
1361.48	78.991
1363.07	76.8621
1364.65	74.9336
1366.24	73.3847
1367.82	71.4291
1369.41	69.8475
1370.99	68.4352
1372.58	66.8263
1374.16	66.701
1375.75	67.1063
1377.33	66.3159
1378.91	65.8049
1380.5	65.4861
1382.08	64.4225
1383.66	64.0422
1385.25	64.4298
1386.83	65.2582
1388.41	64.5186
1389.99	64.4976
1391.57	63.6779
1393.15	62.1702
1394.73	60.6179
1396.31	59.8369
1397.89	59.4909
1399.47	60.1392
1401.05	60.0525
1402.63	60.2835
1404.21	59.5155
1405.78	58.9013
1407.36	59.6749
1408.94	59.0543
1410.52	60.0829
1412.1	59.5919
1413.67	60.0112
1415.25	60.3631
1416.82	59.9416
1418.4	59.5867
1419.98	60.0904
1421.55	60.1782
1423.13	61.6851
1424.7	63.1642
1426.28	64.4949
1427.85	65.8447
1429.42	68.5256
1431	70.8392
1432.57	72.1979
1434.14	73.8975
1435.71	75.5682
1437.29	77.0238
1438.86	78.9357
1440.43	80.7335
1442	81.9278
1443.57	82.174
1445.14	82.9924
1446.71	83.5065
1448.28	83.5984
1449.85	83.3305
1451.42	82.7182
1452.99	83.1102
1454.56	81.732
1456.13	80.5269
1457.7	79.2078
1459.26	78.6173
1460.83	77.3614
1462.4	75.7568
1463.97	73.6814
1465.54	71.1019
1467.1	66.2821
1468.67	63.2356
1470.23	59.988
1471.8	56.3974
1473.36	53.2292
1474.93	51.2263
1476.49	48.0419
1478.06	45.664
1479.62	42.339
1481.19	39.1661
1482.75	36.3515
1484.31	34.3733
1485.88	31.6827
1487.44	27.6953
1489	25.5966
1490.56	22.4403
1492.13	19.9131
1493.69	16.8968
1495.25	14.5788
1496.81	13.6688
1498.37	13.494
1499.93	12.4438
1501.49	12.0605
1503.05	11.2436
1504.61	10.9157
1506.17	10.6159
1507.73	11.4736
1509.28	12.6152
1510.84	12.1312
1512.4	12.248
1513.96	12.0799
1515.52	12.2012
1517.07	11.6207
1518.63	11.6102
1520.19	11.839
1521.74	11.6639
1523.3	12.1531
1524.85	11.7064
1526.41	12.1858
1527.96	13.0962
1529.52	14.6361
1531.07	16.2846
1532.63	17.2965
1534.18	17.6264
1535.73	18.7685
1537.29	19.6114
1538.84	20.1175
1540.39	20.0145
1541.94	19.859
1543.5	20.1798
1545.05	21.0978
1546.6	22.8204
1548.15	23.9891
1549.7	24.4233
1551.25	25.9793
1552.8	27.6647
1554.35	28.8165
1555.9	29.9096
1557.45	30.7087
1559	31.9453
1560.55	32.9221
1562.1	33.3832
1563.65	33.5193
1565.19	34.6352
1566.74	36.0055
1568.29	36.325
1569.83	37.5539
1571.38	40.1411
1572.93	42.2013
1574.47	44.0651
1576.02	45.7562
1577.56	46.7308
1579.11	48.5823
1580.66	50.0484
1582.2	51.5355
1583.74	53.065
1585.29	54.7686
1586.83	55.5964
1588.38	55.9669
1589.92	56.722
1591.46	58.092
1593.01	58.2987
1594.55	58.5577
1596.09	59.6434
1597.63	59.6612
1599.17	58.5047
1600.71	59.5574
1602.25	59.1631
1603.79	60.6152
1605.34	59.9667
1606.88	59.4224
1608.41	58.9963
1609.95	57.9137
1611.49	56.8898
1613.03	57.0342
1614.57	55.6201
1616.11	54.7233
1617.65	53.9731
1619.18	53.7082
1620.72	53.0593
1622.26	52.3012
1623.79	52.0026
1625.33	51.7217
1626.87	51.7791
1628.4	51.4865
1629.94	51.4216
1631.48	51.4187
1633.01	51.4187
1634.55	51.621
1636.08	51.6445
1637.61	51.7521
1639.15	52.2687
1640.68	53.253
1642.21	53.6057
1643.75	53.9395
1645.28	53.6109
1646.81	54.1291
1648.34	55.179
1649.88	54.534
1651.41	55.084
1652.94	55.6687
1654.47	56.2972
1656	56.532
1657.53	55.746
1659.06	55.844
1660.59	55.8119
1662.12	55.6838
1663.65	54.8447
1665.18	54.7834
1666.71	53.5273
1668.24	52.7984
1669.76	50.7184
1671.29	49.5953
1672.82	48.6285
1674.35	47.0671
1675.87	45.7984
1677.4	45.6995
1678.93	43.7027
1680.45	42.6122
1681.98	41.1147
1683.5	40.7503
1685.03	38.8248
1686.55	37.5044
1688.08	35.8781
1689.6	34.22
1691.13	33.1135
1692.65	32.0675
1694.17	30.5501
1695.7	28.7071
1697.22	26.2231
1698.74	24.6666
1700.27	23.8697
1701.79	23.146
1703.31	22.5972
1704.83	21.9764
1706.35	21.9461
1707.87	21.4148
1709.39	20.7023
1710.91	20.0266
1712.43	19.3984
1713.95	19.0539
1715.47	17.8728
1716.99	16.6532
1718.51	15.363
1720.03	14.7453
1721.55	13.7589
1723.07	13.3602
1724.58	12.9445
1726.1	12.7633
1727.62	13.0754
1729.13	12.9445
1730.65	12.1503
1732.17	11.1603
1733.68	10.9051
1735.2	10.2705
1736.72	9.6435
1738.23	9.3817
1739.74	9.14157
1741.26	8.50629
1742.77	7.65036
1744.29	7.27387
1745.8	6.73603
1747.32	6.85743
1748.83	6.17674
1750.34	6.03801
1751.85	6.14768
1753.37	5.67194
1754.88	5.17694
1756.39	4.81025
1757.9	4.7742
1759.41	4.33329
1760.92	3.11246
1762.44	3.06841
1763.95	2.42151
1765.46	2.19026
1766.96	2.20207
1768.47	1.4466
1769.98	1.08815
1771.49	1.17996
1773	1.16876
1774.51	1.61053
1776.02	1.97324
1777.53	2.79567
1779.03	3.3017
1780.54	3.52356
1782.05	2.76479
1783.55	2.14313
1785.06	1.62708
1786.57	1.77646
1788.07	1.41322
1789.58	1.62957
1791.08	1.36017
1792.59	1.42405
1794.09	1.6066
1795.6	1.04759
1797.1	0.94798
1798.61	1.36272
1800.11	1.45401
1801.61	1.40303
1803.12	1.69538
1804.62	1.85279
1806.12	1.55856
1807.62	1.84524
1809.12	2.0634
1810.63	2.09196
1812.13	2.93066
1813.63	3.63512
1815.13	3.54436
1816.63	3.19552
1818.13	2.98415
1819.63	2.71489
1821.13	2.8285
1822.63	3.13989
1824.13	3.04852
1825.63	3.13715
1827.13	3.18667
1828.62	3.36501
1830.12	3.70458
1831.62	3.53152
1833.12	3.46672
1834.61	3.65471
1836.11	3.47935
1837.61	3.76258
1839.1	3.9057
1840.6	4.14981
1842.09	4.4113
1843.59	4.27062
1845.09	4.86598
1846.58	5.24189
1848.08	4.81367
1849.57	4.75873
1851.06	4.23089
1852.56	4.28808
1854.05	3.78485
1855.54	3.13211
1857.04	3.08299
1858.53	3.67179
1860.02	4.59461
1861.51	5.10159
1863.01	4.44311
1864.5	4.59049
1865.99	4.68142
1867.48	4.50038
1868.97	4.72456
1870.46	4.62319
1871.95	5.12521
1873.44	4.76956
1874.93	4.38444
1876.42	4.44702
1877.91	4.7497
1879.4	4.70081
1880.89	4.38368
1882.37	4.35794
1882.46	3.9871
1883.95	3.81683
1885.45	3.85317
1886.94	3.0921
1888.43	2.90883
1889.93	2.8413
1891.42	2.74758
1892.91	2.81828
1894.41	2.85207
1895.9	3.33992
1897.39	3.36576
1898.88	2.79678
1900.37	2.92072
1901.86	2.8992
1903.36	3.28316
1904.85	3.78275
1906.34	3.82054
1907.83	4.74227
1909.32	4.35933
1910.81	4.08598
1912.29	3.80693
1913.78	3.47141
1915.27	2.78646
1916.76	1.96312
1918.25	1.6228
1919.74	1.39719
1921.23	0.672878
1922.71	1.11566
1924.2	1.14146
1925.69	1.07986
1927.17	1.21461
1928.66	0.772869
1930.15	1.1594
1931.63	1.46577
1933.12	1.53811
1934.6	1.65804
1936.09	1.26268
1937.57	1.55083
1939.06	1.6296
1940.54	2.07991
1942.02	2.0059
1943.51	2.22956
1944.99	2.35344
1946.47	2.10192
1947.96	1.98294
1949.44	1.70475
1950.92	2.20826
1952.4	2.0025
1953.88	1.63728
1955.37	1.76022
1956.85	1.6135
1958.33	2.56616
1959.81	2.74338
1961.29	2.86594
1962.77	3.99027
1964.25	4.06576
1965.73	4.4364
1967.21	4.68775
1968.69	4.94898
1970.16	5.72953
1971.64	5.42841
1973.12	5.37387
1974.6	5.72363
1976.08	6.59267
1977.55	7.03677
1979.03	6.53436
1980.51	6.27559
1981.98	5.94454
1983.46	5.07502
1984.94	4.8478
1986.41	4.57365
1987.89	4.26803
1989.36	3.69855
1990.84	3.67251
1992.31	4.04629
1993.79	4.23209
1995.26	4.29695
1996.73	4.18939
1998.21	3.51469
1999.68	2.65813
2001.15	3.20452
2002.63	3.09535
2004.1	3.94297
2005.57	4.29894
2007.04	3.77681
2008.51	3.89343
2009.99	3.64327
2011.46	4.01149
2012.93	4.06624
2014.4	4.44552
2015.87	4.52453
2017.34	4.40305
2018.81	4.25563
2020.28	4.33173
2021.75	4.43709
2023.21	5.02538
2024.68	5.48145
2026.15	5.30355
2027.62	5.82748
2029.09	6.56862
2030.56	7.06519
2032.02	7.71325
2033.49	7.52237
2034.96	7.7475
2036.42	7.65118
2037.89	7.66081
2039.36	7.79225
2040.82	7.4969
2042.29	7.24813
2043.75	7.78429
2045.22	8.13305
2046.68	8.32124
2048.14	8.68596
2049.61	8.84184
2051.07	8.94037
2052.54	8.75275
2054	8.97544
2055.46	8.7969
2056.93	8.63868
2058.39	9.0562
2059.85	8.69002
2061.31	8.69239
2062.77	8.93411
2064.23	9.12838
2065.7	8.59015
2067.16	7.94434
2068.62	8.33768
2070.08	8.17985
2071.54	7.95358
2073	7.84917
2074.46	8.17098
2075.92	7.33659
2077.38	7.17237
2078.83	6.28426
2080.29	6.14455
2081.75	6.90543
2083.21	6.88934
2084.67	6.6995
2086.12	6.63501
2087.58	6.31122
2089.04	5.94932
2090.49	5.48415
2091.95	5.64899
2093.41	5.57289
2094.86	5.54508
2096.32	5.09887
2097.77	4.82312
2099.23	4.74523
2100.68	5.35861
2102.14	4.77155
2103.59	4.19328
2105.05	3.78195
2106.5	3.84959
2107.95	3.55391
2109.41	3.6096
2110.86	3.20743
2112.31	2.65728
2113.76	2.63711
2115.21	2.89317
2116.67	3.63451
2118.12	3.14902
2119.57	2.56334
2121.02	2.3649
2122.47	1.96022
2123.92	2.20214
2125.37	1.73054
2126.82	2.19841
2128.27	2.58513
2129.72	2.89886
2131.17	3.3837
2132.62	3.18176
2134.07	3.05693
2135.51	3.09821
2136.96	2.58128
2138.41	3.3374
2139.86	4.03502
2141.31	5.34472
2142.75	5.27918
2144.2	5.72949
2145.65	6.33067
2147.09	6.40669
2148.54	6.86819
2149.98	7.36857
2151.43	7.57314
2152.87	8.37723
2154.32	8.28237
2155.76	7.89622
2157.21	7.6949
2158.65	7.4336
2160.1	6.85227
2161.54	7.06504
2162.98	7.1291
2164.43	7.87774
2165.87	7.80694
2167.31	7.87627
2168.75	7.812
2170.2	7.97761
2171.64	8.25156
2173.08	8.9627
2174.52	8.2744
2175.96	8.9719
2177.4	8.83049
2178.84	8.86119
2180.28	8.41377
2181.72	8.38594
2183.16	7.60408
2184.6	7.7377
2186.04	8.11749
2187.48	7.97022
2188.92	7.29683
2190.36	6.69002
2191.79	6.42596
2193.23	5.92301
2194.67	6.07666
2196.11	5.95117
2197.54	5.45969
2198.98	5.40181
2200.42	5.35087
2201.85	5.55911
2203.29	5.32328
2204.72	5.13822
2206.16	5.0884
2207.59	5.65305
2209.03	5.73757
2210.46	6.46783
2211.9	5.99329
2213.33	6.11096
2214.77	5.70525
2216.2	5.59903
2217.63	5.72677
2219.07	5.34832
2220.5	5.53719
2221.93	5.05566
2223.36	4.77548
2224.8	4.16591
2226.23	3.88677
2227.66	4.12452
2229.09	4.02121
2230.52	3.70984
2231.95	3.83877
2233.39	4.06017
2234.81	3.7533
2236.25	3.72473
2237.67	3.64823
2239.1	4.1345
2240.53	4.70194
2241.96	4.80749
2243.39	5.0176
2244.82	5.02802
2246.25	4.61807
2247.68	4.96625
2249.1	4.47628
2250.53	4.48029
2251.96	4.38051
2253.38	3.80321
2254.81	3.48245
2256.24	3.60547
2257.66	3.57111
2259.09	2.84865
2260.51	1.90017
2261.94	1.89979
2263.36	1.43807
2264.79	0.996813
2266.21	0.721787
2267.64	0.906644
2269.06	1.50309
2270.49	1.84219
2271.91	1.945
2273.33	1.96605
2274.76	1.42072
2276.18	1.29425
2277.6	1.79733
2279.02	1.5633
2280.44	1.50375
2281.87	2.14731
2283.29	2.12748
2284.71	2.49808
2286.13	3.01172
2287.55	2.79657
2288.97	2.94532
2290.39	2.34606
2291.81	2.45626
2293.23	2.51449
2294.65	2.84798
2296.07	3.09027
2297.49	4.06871
2298.91	4.36339
2300.33	4.42191
2301.74	4.80159
2303.16	5.09347
2304.58	5.10676
2306	4.92985
2307.41	5.70838
2308.83	6.60548
2310.25	6.28211
2311.66	6.37607
2313.08	6.45023
2314.5	6.11771
2315.91	6.2436
2317.33	6.27753
2318.74	6.31184
2320.16	6.05457
2321.57	6.10098
2322.98	6.57159
2324.4	6.61087
2325.81	6.85273
2327.23	6.6047
2328.64	5.97798
2330.05	5.65369
2331.46	5.56625
2332.88	5.28434
2334.29	5.59575
2335.7	5.21372
2337.11	4.93523
2338.52	5.15462
2339.94	4.17034
2341.35	3.25401
2342.76	2.97931
2344.17	3.0272
2345.58	2.7568
2346.99	2.45456
2348.4	2.06124
2349.81	1.54718
2351.22	1.70262
2352.62	2.07013
2354.03	1.61023
2355.44	1.28675
2356.85	0.487739
2358.26	-0.708601
2359.67	-0.458822
2361.07	-0.0556409
2362.48	0.368623
2363.89	0.95395
2365.29	1.26483
2366.7	1.23768
2368.11	1.12676
2369.51	0.689229
2370.92	0.864613
2372.32	0.660369
2373.73	0.658838
2375.13	0.773154
2376.54	0.752671
2377.94	1.28822
2379.35	1.25069
2380.75	1.61001
2382.15	2.24311
2383.56	2.58629
2384.96	2.56978
2386.36	3.15324
2387.76	3.12336
2389.17	3.20405
2390.57	3.22004
2391.97	3.14766
2393.37	3.05531
2394.77	2.87279
2396.17	2.72619
2397.58	2.16357
2398.98	2.31333
2400.38	3.20971
2401.78	3.22619
2403.18	2.89171
2404.58	3.64426
2405.97	2.88877
2407.37	3.05594
2408.77	3.68926
2410.17	4.02235
2411.57	5.18718
2412.97	5.9713
2414.37	5.79965
2415.76	5.59024
2417.16	5.64396
2418.56	6.38791
2419.95	6.8631
2421.35	7.0818
2422.75	7.82347
2424.14	7.63423
2425.54	8.22044
2426.93	8.48809
2428.33	9.1002
2429.72	10.2465
2431.12	10.6864
2432.51	11.0192
2433.91	11.1556
2435.3	11.1381
2436.7	11.1857
2438.09	11.4443
2439.48	11.7704
2440.88	11.6926
2442.27	11.534
2443.66	11.2034
2445.05	10.9842
2446.44	10.2938
2447.84	9.56857
2449.23	9.47979
2450.62	9.41734
2452.01	9.10977
2453.4	8.76248
2454.79	8.0275
2456.18	6.97019
2457.57	6.333
2458.96	5.81527
2460.35	5.77144
2461.74	5.28495
2463.13	4.98815
2464.52	4.87836
2465.91	4.19704
2467.29	4.11111
2468.68	4.59832
2470.07	4.60755
2471.46	4.29662
2472.85	3.97987
2474.23	4.35913
2475.62	3.82938
2477.01	4.17035
2478.39	3.80812
2479.78	3.84877
2481.16	3.3551
2482.55	2.85001
2483.93	2.16481
2485.32	2.17276
2486.7	1.56604
2488.09	1.56412
2489.47	1.72574
2490.86	2.36081
2492.24	3.02478
2493.62	2.88505
2495.01	3.09103
2496.39	3.23487
2497.77	3.35041
2499.15	3.36484
2500.54	3.41769
2501.92	3.48558
2503.3	3.26742
2504.68	3.44597
2506.06	3.10887
2507.45	2.7403
2508.83	2.24349
2510.21	1.83179
2511.59	1.3618
2512.97	1.01205
2514.35	0.972231
2515.73	0.770012
2517.11	1.0597
2518.48	1.44369
2519.86	1.33364
2521.24	1.8115
2522.62	2.13334
2524	1.91788
2525.38	2.34486
2526.75	3.06167
2528.13	3.39888
2529.51	3.80382
2530.89	3.70195
2532.26	3.85674
2533.64	4.0439
2535.02	4.45591
2536.39	4.85546
2537.77	4.89265
2539.14	4.77111
2540.52	5.03831
2541.89	4.45551
2543.27	4.78011
2544.64	4.32419
2546.01	4.20484
2547.39	4.08672
2548.76	4.3052
2550.14	4.58717
2551.51	4.78648
2552.88	4.56948
2554.25	4.59068
2555.63	4.21684
2557	5.15809
2558.37	5.37999
2559.74	5.07828
2561.11	4.56055
2562.49	4.15253
2563.86	4.1346
2565.23	4.12397
2566.6	3.59328
2567.97	3.5158
2569.34	3.62433
2570.71	3.14817
2572.08	2.74905
2573.45	2.20651
2574.82	1.75687
2576.18	1.34667
2577.55	1.22166
2578.92	1.06402
2580.29	1.09401
2581.66	1.32041
2583.02	1.49719
2584.39	2.03263
2585.76	2.10942
2587.13	2.244
2588.49	2.97065
2589.86	3.67113
2591.22	4.30125
2592.59	3.93225
2593.96	4.27325
2595.32	4.05301
2596.69	4.35079
2598.05	4.31581
2599.42	4.54944
2600.78	4.49647
2602.14	4.41977
2603.51	4.34509
2604.87	5.18592
2606.23	5.40426
2607.6	5.47008
2608.96	5.92263
2610.32	6.00327
2611.69	6.71303
2613.05	6.69425
2614.41	7.37036
2615.77	7.99894
2617.13	8.23745
2618.49	8.57863
2619.86	8.34001
2621.22	8.47551
2622.58	8.22654
2623.94	7.88071
2625.3	7.91585
2626.66	7.22339
2628.02	7.2661
2629.37	6.73336
2630.73	6.38139
2632.09	6.52095
2633.45	6.29518
2634.81	6.44658
2636.17	6.3864
2637.53	6.37803
2638.88	6.14987
2640.24	5.50821
2641.6	5.20643
2642.96	5.35588
2644.31	5.0349
2645.67	4.75731
2647.02	4.91377
2648.38	5.36083
2649.74	5.31256
2651.09	5.77834
2652.45	5.67577
2653.8	5.1109
2655.16	4.68494
2656.51	4.38971
2657.86	4.32783
2659.22	4.07543
2660.57	3.48317
2661.93	3.78295
2663.28	3.34739
2664.63	3.47506
2665.98	2.71057
2667.34	2.56423
2668.69	2.17449
2670.04	2.36423
2671.39	2.74034
2672.75	3.14869
2674.09	2.24609
2675.45	2.81157
2676.8	3.14945
2678.15	3.46172
2679.5	3.62501
2680.85	3.80553
2682.2	4.10728
2683.55	3.77742
2684.9	3.94797
2686.25	4.09409
2687.6	4.53133
2688.94	4.83234
2690.29	5.31321
2691.64	5.9247
2692.99	6.40406
2694.34	6.42085
2695.68	6.64216
2697.03	6.6521
2698.38	7.20945
2699.73	8.00273
2701.07	8.21818
2702.42	8.5096
2703.76	8.94604
2705.11	9.0356
2706.45	9.23834
2707.8	9.24318
2709.15	9.79692
2710.49	10.0119
2711.83	10.2225
2713.18	10.5648
2714.52	11.2615
2715.87	11.8679
2717.21	11.4765
2718.55	11.6338
2719.9	11.1976
2721.24	11.3302
2722.58	11.3335
2723.93	11.6697
2725.27	12.5421
2726.61	12.2693
2727.95	12.3411
2729.29	12.3247
2730.63	11.67
2731.98	11.4605
2733.32	11.8581
2734.66	11.9837
2736	12.2271
2737.34	12.2022
2738.68	11.9676
2740.02	11.9926
2741.36	12.4903
2742.7	12.4643
2744.03	11.9876
2745.37	11.4839
2746.71	10.9297
2748.05	10.737
2749.39	10.7449
2750.72	10.4703
2752.06	10.4839
2753.4	9.60615
2754.74	9.42531
2756.07	8.98234
2757.41	8.38553
2758.75	7.61467
2760.08	6.87059
2761.42	6.17196
2762.76	5.83676
2764.09	5.82231
2765.42	5.34162
2766.76	5.07915
2768.09	4.63004
2769.43	4.09291
2770.76	4.37299
2772.1	3.74349
2773.43	3.58737
2774.76	3.28746
2776.1	2.73941
2777.43	2.0995
2778.76	1.79102
2780.1	1.51157
2781.43	1.24756
2782.76	1.14229
2784.09	0.638028
2785.42	0.957623
2786.75	1.23031
2788.09	1.16988
2789.42	1.35131
2790.75	1.68586
2792.08	1.44088
2793.41	1.42937
2794.74	2.03527
2796.07	2.16955
2797.4	1.8132
2798.73	2.23321
2800.06	2.41369
2801.39	1.75988
2802.71	1.36681
2804.04	1.11568
2805.37	1.324
2806.7	1.30954
2808.03	1.21808
2809.35	0.301257
2810.68	0.747245
2812.01	0.744241
2813.33	0.977456
2814.66	0.884744
2815.99	0.732744
2817.31	1.15434
2818.64	2.00756
2819.96	2.61787
2821.29	4.08294
2822.61	4.72144
2823.94	5.74718
2825.26	7.47168
2826.59	8.83242
2827.91	10.8921
2829.23	13.0449
2830.56	15.0079
2831.88	16.9961
2833.21	18.8996
2834.53	21.3696
2835.85	23.1228
2837.17	25.2284
2838.5	27.7714
2839.82	30.4944
2841.14	33.6498
2842.46	36.8618
2843.78	40.233
2845.1	43.8373
2846.42	47.0803
2847.74	51.0048
2849.06	55.2251
2850.38	59.596
2851.71	64.9317
2853.03	69.0912
2854.34	73.3789
2855.66	78.7386
2856.98	82.7005
2858.3	87.0295
2859.62	92.2527
2860.94	96.6694
2862.26	101.606
2863.57	106.268
2864.89	111.325
2866.21	115.984
2867.53	120.265
2868.84	124.97
2870.16	130.665
2871.48	135.372
2872.79	139.696
2874.11	144.839
2875.42	149.181
2876.74	154.418
2878.05	159.216
2879.37	164.11
2880.68	169.079
2882	174.213
2883.31	179.405
2884.63	183.993
2885.94	188.626
2887.26	193.032
2888.57	196.98
2889.88	202.007
2891.19	207.153
2892.51	211.723
2893.82	217.001
2895.13	220.983
2896.44	225.127
2897.76	228.664
2899.07	232.532
2900.38	236.828
2901.69	240.41
2903	244.972
2904.31	249.154
2905.62	253.137
2906.93	257.028
2908.24	261.113
2909.55	264.343
2910.86	267.185
2912.17	270.978
2913.48	274.79
2914.79	278.309
2916.1	281.095
2917.41	283.113
2918.71	284.97
2920.02	287.075
2921.33	288.372
2922.64	288.388
2923.94	289.259
2925.25	289.793
2926.56	289.727
2927.86	289.65
2929.17	288.593
2930.48	286.75
2931.78	284.737
2933.09	282.77
2934.39	280.826
2935.7	278.299
2937	274.709
2938.31	271.6
2939.61	268.791
2940.92	264.796
2942.22	262.031
2943.53	258.336
2944.83	253.948
2946.13	249.355
2947.43	245.506
2948.74	241.073
2950.04	236.897
2951.34	232.674
2952.64	228.355
2953.95	223.652
2955.25	219.496
2956.55	214.657
2957.85	209.64
2959.15	205.02
2960.45	199.789
2961.75	195.367
2963.05	190.321
2964.35	185.793
2965.65	181.135
2966.95	176.473
2968.25	171.981
2969.55	166.993
2970.85	163.068
2972.15	158.439
2973.45	153.96
2974.75	148.799
2976.05	143.96
2977.34	139.771
2978.64	134.36
2979.94	129.147
2981.24	123.694
2982.53	118.052
2983.83	113.409
2985.13	107.803
2986.42	102.074
2987.72	96.9969
2989.01	92.2602
2990.31	87.3978
2991.61	82.6705
2992.9	78.1485
2994.19	73.2768
2995.49	67.7861
2996.78	63.407
2998.08	59.0933
2999.37	54.1864
3000.67	50.1188
3001.96	46.4669
3003.25	42.4699
3004.55	38.573
3005.84	34.8216
3007.13	31.7993
3008.42	28.4196
3009.72	25.0779
3011.01	22.0722
3012.3	20.0181
3013.59	17.2143
3014.88	15.2223
3016.17	13.4934
3017.46	12.1347
3018.76	9.90215
3020.05	8.68493
3021.34	7.54245
3022.63	6.33428
3023.92	5.7087
3025.21	4.81038
3026.49	3.89712
3027.78	2.66594
3029.07	1.96853
3030.36	2.02998
3031.65	1.77065
3032.94	1.71931
3034.23	1.47994
3035.51	1.64718
3036.8	1.85838
3038.09	2.02088
3039.38	2.2237
3040.66	2.55467
3041.95	3.11412
3043.23	3.94515
3044.52	4.24636
3045.81	5.09852
3047.09	6.21237
3048.38	7.171
3049.66	8.35001
3050.95	9.3438
3052.23	10.4536
3053.52	11.021
3054.8	11.8552
3056.09	12.1169
3057.37	12.5034
3058.65	12.3626
3059.94	12.063
3061.22	12.5655
3062.5	12.7683
3063.79	12.712
3065.07	12.8612
3066.35	12.6801
3067.63	12.0825
3068.92	11.8488
3070.2	11.9527
3071.48	11.7828
3072.76	11.5074
3074.04	10.9712
3075.32	10.7624
3076.6	11.1978
3077.88	11.2256
3079.16	10.9113
3080.44	11.1655
3081.72	10.6938
3083	10.2118
3084.28	10.5397
3085.56	10.1661
3086.84	9.58494
3088.12	9.88168
3089.4	9.44198
3090.67	9.71146
3091.95	10.1379
3093.23	10.8571
3094.51	11.773
3095.78	12.6863
3097.06	13.262
3098.34	13.9154
3099.61	14.5633
3100.89	15.7278
3102.17	16.7018
3103.44	17.9763
3104.72	19.1998
3105.99	20.6014
3107.27	21.6332
3108.54	22.3377
3109.82	24.7189
3111.09	26.243
3112.37	27.5769
3113.64	29.6754
3114.92	31.3206
3116.19	32.4939
3117.46	34.1508
3118.74	35.6464
3120.01	36.8156
3121.28	38.5558
3122.55	39.7254
3123.83	41.4103
3125.1	43.1444
3126.37	44.7072
3127.64	46.1994
3128.91	47.7971
3130.19	49.2595
3131.46	50.4589
3132.73	51.5866
3134	53.224
3135.27	54.3625
3136.54	55.7199
3137.81	57.1097
3139.08	58.5912
3140.35	60.0281
3141.62	61.2262
3142.89	62.4593
3144.16	63.6784
3145.42	64.803
3146.69	65.3845
3147.96	66.0857
3149.23	68.1584
