#Acq. time (s)=	45
#Accumulations=	2
#Range (cm-¹)=	200...3150
#Windows=	2
#Auto scanning=	Off
#Autofocus=	Off
#Macrospot=	Off
#AutoExposure=	Off
#Spike filter=	Multiple accum.
#Delay time (s)=	0
#Binning=	1
#Readout mode=	Signal
#DeNoise=	Off
#ICS correction=	On
#Dark correction=	Off
#Inst. Process=	Off
#Detector Gain=	Best Dynamic Range
#Detector ADC=	20 kHz       
#Detector temperature (°C)=	-69.85
#Instrument=	LabRAM HR Evol
#Detector=	Synapse
#Objective=	x100
#Grating=	600 gr/mm
#ND Filter=	100%
#Laser (nm)=	532 
#Hole=	100.021
#Range=	Auto
#Laser Pol.=	No
#Raman. Pol.=	No
#Laser Pol. (°)=	-0.0007625
#Raman Pol. (°)=	89.9995
#Collection=	Microscope
#StageXY=	Marzhauser
#StageZ=	Marzhauser
#X (µm)=	-5107.7
#Y (µm)=	1504.9
#Z (µm)=	63.1
#Full time(mm:ss)=	3:19
#Project=	
#Sample=	
#Site=	
#Title=	Thy_50_12_09_2x_45s_532 nm_x100_100%_600 gr_mm
#Remark=	
#Date=	07.07.2022 09:53
#Acquired=	07.07.2022 09:53:02
#Base:Fit=	10.08.2022 10:03:08
#Base:Fit=	10.08.2022 10:03:15
#Base:Fit=	10.08.2022 10:03:19
#Base:Fit=	10.08.2022 10:04:29
#Base:Sub=	10.08.2022 10:04:45
#Filter:Polynom=	16.08.2022 10:20:24
#AxisType[0]=Intens
#AxisUnit[0]=Cnt
#AxisType[1]=Spectr
#AxisUnit[1]=1/cm
200.43	22.3528
202.246	21.407
204.061	20.7585
205.875	21.0955
207.688	20.0742
209.501	19.2208
211.316	18.0712
213.129	17.2225
214.941	16.6263
216.753	15.6949
218.566	14.0164
220.377	12.9079
222.188	12.935
223.999	11.4719
225.809	11.3842
227.618	10.4055
229.43	10.8568
231.239	10.9616
233.047	9.94487
234.855	9.2441
236.663	8.18409
238.471	8.09347
240.278	8.41758
242.087	8.03647
243.894	9.2242
245.7	9.35878
247.506	8.66448
249.311	8.53259
251.116	8.13728
252.921	9.04363
254.725	9.77483
256.529	10.3411
258.333	10.731
260.136	10.5863
261.939	11.3232
263.744	10.633
265.546	11.3688
267.348	11.1817
269.15	12.7557
270.951	13.9213
272.752	16.1677
274.552	15.8262
276.353	17.9086
278.152	17.4979
279.952	17.4624
281.751	18.6038
283.55	19.38
285.348	18.9777
287.146	19.0436
288.942	19.1773
290.739	18.7936
292.536	20.1976
294.333	20.779
296.129	20.747
297.925	21.9763
299.721	22.3924
301.516	21.2454
303.311	21.9168
305.106	21.5846
306.9	20.7477
308.694	20.0385
310.486	19.6761
312.279	18.9736
314.072	18.0681
315.864	18.7514
317.656	18.2501
319.448	18.2029
321.24	17.468
323.029	16.8086
324.819	16.7916
326.61	16.5387
328.4	17.5252
330.19	18.1787
331.977	18.4767
333.766	19.4031
335.555	18.0827
337.343	17.6456
339.131	17.6417
340.917	17.8871
342.704	18.4979
344.491	18.1176
346.277	17.1987
348.062	17.6035
349.848	17.9874
351.633	18.8055
353.416	18.4957
355.201	18.8514
356.986	18.7933
358.77	18.422
360.552	16.5712
362.335	15.2846
364.118	13.9312
365.899	14.9372
367.682	13.8912
369.464	14.4739
371.243	14.9535
373.025	14.252
374.806	13.2198
376.585	12.6022
378.365	11.9183
380.143	11.9453
381.923	11.8862
383.702	11.1858
385.479	9.76763
387.258	9.46844
389.034	8.38398
390.812	7.09004
392.59	7.14835
394.365	5.93993
396.142	5.52972
397.916	5.81415
399.693	5.63533
401.467	5.2826
403.242	5.51804
405.015	6.09304
406.79	5.43473
408.565	5.08443
410.337	5.44344
412.111	5.96563
413.882	6.50286
415.656	7.2099
417.426	8.95998
419.197	8.93262
420.969	9.23922
422.739	9.07633
424.51	7.98824
426.279	8.86091
428.05	9.91071
429.819	10.8973
431.589	11.0641
433.356	10.2085
435.124	10.4152
436.893	11.3166
438.66	11.5805
440.428	11.2519
442.194	10.725
443.96	9.79017
445.727	10.3511
447.492	10.2519
449.259	10.4321
451.023	10.2118
452.787	11.7932
454.553	12.281
456.316	12.8643
458.079	13.6904
459.844	13.882
461.606	14.931
463.368	15.2874
465.132	15.0163
466.893	16.1017
468.654	17.0504
470.415	16.9854
472.177	18.1033
473.937	19.3061
475.696	20.3279
477.456	20.3777
479.217	20.4891
480.975	21.1507
482.733	21.6641
484.491	22.5833
486.251	22.6352
488.008	22.7808
489.765	23.2665
491.522	23.961
493.278	24.5053
495.036	24.4726
496.791	25.1435
498.546	26.9712
500.301	27.9218
502.056	29.1363
503.81	29.7528
505.566	29.9209
507.319	28.4857
509.073	29.2055
510.825	28.9971
512.578	29.0218
514.33	29.2139
516.082	29.2319
517.833	28.1419
519.587	27.8248
521.337	27.444
523.088	27.9421
524.838	28.3043
526.588	27.2257
528.337	26.8322
530.087	26.1282
531.835	25.9878
533.584	26.1191
535.332	24.7594
537.08	23.2811
538.827	22.967
540.574	23.8932
542.321	23.2207
544.068	23.6687
545.814	23.2489
547.56	22.5611
549.305	22.6593
551.05	22.6092
552.795	22.5001
554.54	23.26
556.284	23.2112
558.027	23.1516
559.771	23.0046
561.514	21.4703
563.257	20.5209
564.999	19.6483
566.742	18.5917
568.481	18.9818
570.223	18.5931
571.964	17.8311
573.705	17.5657
575.445	17.0476
577.185	16.0796
578.925	15.2588
580.665	15.1745
582.402	15.9432
584.141	16.648
585.879	16.7625
587.617	15.4428
589.355	15.9732
591.092	15.1894
592.828	15.1276
594.564	14.0599
596.301	14.3035
598.037	13.5917
599.773	13.3288
601.506	12.6487
603.242	14.2318
604.976	13.6874
606.711	13.358
608.443	12.5743
610.177	11.0026
611.91	11.4886
613.644	10.8579
615.374	11.171
617.107	11.036
618.839	11.4563
620.569	11.3199
622.3	12.4719
624.032	13.5105
625.761	14.9581
627.491	16.3339
629.221	18.1697
630.949	20.0479
632.679	21.7176
634.408	23.0668
636.135	24.5012
637.863	25.4855
639.592	25.789
641.318	26.477
643.045	27.5018
644.77	28.2628
646.497	27.4558
648.224	27.9459
649.948	29.0458
651.674	29.2495
653.398	30.0447
655.123	30.5138
656.846	30.2323
658.57	30.5309
660.293	31.3553
662.017	30.5973
663.738	31.16
665.462	31.6007
667.185	32.1383
668.905	32.8107
670.628	33.1309
672.348	32.7358
674.067	33.9167
675.789	34.3905
677.508	33.3295
679.228	33.0987
680.947	31.7769
682.667	31.705
684.385	32.5967
686.104	33.7391
687.821	34.0019
689.538	35.334
691.256	34.2958
692.972	34.7496
694.69	35.5905
696.406	35.4156
698.121	37.8171
699.837	36.9464
701.552	37.6345
703.268	38.4285
704.982	39.0365
706.695	40.4773
708.41	42.2438
710.123	43.4871
711.836	44.9721
713.55	46.5573
715.262	47.5732
716.973	49.3405
718.685	50.0081
720.398	51.8034
722.108	52.5535
723.818	54.0093
725.53	55.5219
727.24	56.2745
728.949	58.0527
730.658	58.466
732.369	58.5244
734.077	58.8861
735.785	61.0806
737.493	62.0887
739.2	62.5882
740.909	62.3538
742.616	62.9381
744.322	64.8142
746.028	65.4784
747.734	66.5432
749.441	67.8576
751.146	68.9071
752.851	69.9955
754.555	70.8295
756.26	72.753
757.963	72.7492
759.667	73.9122
761.372	73.7871
763.075	75.1636
764.777	77.0064
766.479	77.3431
768.181	78.8826
769.883	80.5883
771.584	80.984
773.285	80.5628
774.986	81.5468
776.686	82.0428
778.386	82.1093
780.085	82.8129
781.785	83.0027
783.484	84.7995
785.182	84.9261
786.881	86.3754
788.579	87.4784
790.276	88.7455
791.974	90.1911
793.671	91.1181
795.367	90.6941
797.064	90.6902
798.76	91.1384
800.456	92.3805
802.151	93.3233
803.846	93.6188
805.541	94.6331
807.236	93.9977
808.93	94.6831
810.624	94.0064
812.317	93.9267
814.01	94.4269
815.703	93.8343
817.394	94.1915
819.086	94.32
820.778	95.848
822.47	94.949
824.161	93.5302
825.852	92.4339
827.543	92.4455
829.231	92.804
830.921	90.8341
832.611	90.7856
834.3	89.6765
835.989	88.1461
837.676	86.9733
839.364	85.8367
841.053	85.12
842.74	83.444
844.426	83.3562
846.113	82.2661
847.8	80.5179
849.486	79.1484
851.171	77.9143
852.857	77.0873
854.542	75.6098
856.227	74.1326
857.911	73.0877
859.595	72.3244
861.279	70.8905
862.961	69.1813
864.645	68.6296
866.329	67.4989
868.01	66.6729
869.692	64.7946
871.375	63.7648
873.055	62.4094
874.737	60.5097
876.418	59.027
878.097	58.0831
879.778	56.9274
881.457	57.6051
883.137	57.572
884.817	56.9166
886.495	56.618
888.174	57.1458
889.851	56.3419
891.53	55.4201
893.206	55.6573
894.884	54.9785
896.562	55.6716
898.237	55.7704
899.914	56.0533
901.589	56.3157
903.265	55.8891
904.94	55.3472
906.615	54.9016
908.289	54.1689
909.964	53.447
911.637	53.7556
913.31	53.9804
914.984	52.8952
916.656	52.9128
918.33	52.0475
920.001	51.3303
921.674	51.2629
923.345	51.2151
925.015	51.6415
926.687	52.0256
928.357	51.7444
930.028	51.35
931.698	51.0807
933.366	51.9035
935.037	51.4913
936.705	50.8467
938.373	50.2269
940.043	49.2182
941.71	48.8189
943.379	47.4939
945.046	47.167
946.712	46.7429
948.378	46.0363
950.046	45.9379
951.711	45.4049
953.376	44.9205
955.043	45.2869
956.708	44.2366
958.372	43.4175
960.036	43.6109
961.701	43.0251
963.364	43.0975
965.027	42.6331
966.69	41.6744
968.354	40.7945
970.016	40.7742
971.678	40.1869
973.339	39.3356
975	39.0748
976.661	39.4376
978.324	39.4484
979.984	38.9351
981.644	37.7514
983.303	37.0369
984.962	36.4098
986.621	35.6043
988.282	35.2158
989.94	34.0066
991.598	33.4852
993.256	31.8303
994.913	32.19
996.57	31.3043
998.227	30.3462
999.884	30.5463
1001.54	29.6766
1003.2	29.8282
1004.85	29.1658
1006.51	29.3706
1008.16	29.5997
1009.82	29.4748
1011.47	29.7889
1013.12	30.2595
1014.78	31.4856
1016.43	32.8055
1018.08	32.7643
1019.74	32.7484
1021.39	33.2184
1023.04	33.7715
1024.69	34.0765
1026.34	34.7908
1028	35.298
1029.65	35.955
1031.3	36.4295
1032.95	37.7858
1034.6	37.7832
1036.25	38.3425
1037.9	38.6027
1039.55	37.832
1041.19	37.806
1042.84	37.8689
1044.49	37.7373
1046.14	38.1531
1047.79	36.8154
1049.43	36.904
1051.08	36.45
1052.73	37.0716
1054.37	36.6357
1056.02	36.0699
1057.66	35.5361
1059.31	34.9185
1060.95	34.2771
1062.6	32.7951
1064.24	32.0691
1065.88	30.9089
1067.53	29.9358
1069.17	28.2228
1070.81	27.1176
1072.46	25.8303
1074.1	25.7422
1075.74	23.4198
1077.38	23.1008
1079.02	21.172
1080.66	20.1237
1082.3	19.1133
1083.94	17.8295
1085.58	17.1058
1087.22	15.9551
1088.86	14.9561
1090.5	14.0638
1092.14	14.0029
1093.78	14.8642
1095.42	15.0435
1097.05	16.4926
1098.69	16.5083
1100.33	15.8559
1101.97	15.7673
1103.6	16.833
1105.24	17.2805
1106.87	16.4749
1108.51	17.5691
1110.15	17.6182
1111.78	19.0269
1113.41	19.7472
1115.05	19.4587
1116.68	18.4718
1118.31	18.1007
1119.95	17.2859
1121.58	17.1759
1123.21	16.6099
1124.85	16.6398
1126.48	16.2628
1128.11	15.7893
1129.74	16.0876
1131.37	16.5146
1133	15.7268
1134.63	15.8981
1136.26	14.5989
1137.89	14.7461
1139.52	15.1162
1141.15	14.419
1142.78	13.7914
1144.41	12.7607
1146.04	12.6361
1147.66	11.2551
1149.29	11.2924
1150.92	10.0697
1152.55	9.45202
1154.17	8.90177
1155.8	7.16814
1157.43	5.67108
1159.05	5.54161
1160.68	4.84634
1162.3	4.56965
1163.93	4.29093
1165.55	3.6241
1167.17	2.43556
1168.8	2.97988
1170.42	2.85003
1172.05	3.34643
1173.67	4.67861
1175.29	5.55998
1176.91	5.67959
1178.54	6.37259
1180.16	6.47821
1181.78	7.02298
1183.4	7.88138
1185.02	7.59801
1186.64	8.36777
1188.26	8.62073
1189.88	10.1051
1191.5	10.5523
1193.12	10.6928
1194.74	10.1594
1196.36	9.19169
1197.97	9.1067
1199.59	8.96505
1201.21	9.52686
1202.83	10.4233
1204.44	9.99981
1206.06	11.0735
1207.68	11.0011
1209.29	11.2627
1210.91	12.3829
1212.52	12.5513
1214.14	12.6353
1215.75	14.062
1217.37	14.6416
1218.98	15.8419
1220.6	17.0614
1222.21	17.5348
1223.82	18.3113
1225.44	20.0669
1227.05	21.1241
1228.66	20.5284
1230.27	21.4963
1231.88	21.4088
1233.49	21.9893
1235.1	23.2543
1236.72	23.5134
1238.33	25.5946
1239.94	26.7004
1241.55	27.4493
1243.16	27.8487
1244.76	29.1058
1246.37	30.0422
1247.98	31.1494
1249.59	33.0198
1251.2	33.2151
1252.8	33.9919
1254.41	34.3956
1256.02	35.8266
1257.63	36.7983
1259.23	38.1595
1260.84	39.0459
1262.44	41.0181
1264.05	42.2387
1265.66	42.1076
1267.26	45.0155
1268.87	46.2497
1270.47	47.0565
1272.07	47.4396
1273.68	47.5276
1275.28	48.3402
1276.88	49.0344
1278.48	49.1659
1280.09	50.0452
1281.69	51.623
1283.29	53.4298
1284.89	53.4659
1286.49	54.2723
1288.09	54.7997
1289.69	55.9742
1291.3	56.6126
1292.9	56.797
1294.49	57.2345
1296.09	57.7389
1297.69	56.9854
1299.29	56.9404
1300.89	56.9864
1302.49	56.5164
1304.09	56.6929
1305.68	56.5673
1307.28	55.5215
1308.88	53.8325
1310.47	52.9115
1312.07	52.0665
1313.66	51.4953
1315.26	51.5582
1316.86	51.1034
1318.45	50.4119
1320.05	49.4123
1321.64	48.8622
1323.23	48.2497
1324.83	47.8689
1326.42	46.7699
1328.01	45.7196
1329.61	44.5626
1331.2	42.6632
1332.79	41.5324
1334.38	40.8184
1335.98	41.2122
1337.57	40.2496
1339.16	39.1833
1340.75	38.4989
1342.34	38.7363
1343.93	36.899
1345.52	36.2725
1347.11	36.784
1348.7	35.7152
1350.29	34.8764
1351.87	34.0686
1353.46	34.156
1355.05	34.5413
1356.64	34.1775
1358.23	33.5473
1359.81	35.0174
1361.4	34.9083
1362.99	34.0296
1364.57	33.2348
1366.16	33.8292
1367.74	34.0877
1369.33	33.238
1370.91	32.0449
1372.5	31.7993
1374.08	31.0795
1375.67	30.8918
1377.25	30.9559
1378.83	31.4096
1380.42	31.7714
1382	32.1814
1383.58	32.8269
1385.16	32.2965
1386.75	32.687
1388.33	31.8658
1389.91	31.7663
1391.49	32.0902
1393.07	32.4954
1394.65	33.5479
1396.23	32.8436
1397.81	33.0567
1399.39	33.579
1400.97	32.686
1402.55	33.589
1404.13	33.8835
1405.7	34.5304
1407.28	34.5645
1408.86	35.0725
1410.44	35.1132
1412.01	36.6013
1413.59	37.7669
1415.17	38.481
1416.74	39.1545
1418.32	39.5361
1419.89	40.7425
1421.47	42.0986
1423.05	43.0197
1424.62	45.2083
1426.19	47.3599
1427.77	49.0084
1429.34	50.7331
1430.92	52.3396
1432.49	54.2428
1434.06	56.3772
1435.63	57.9618
1437.2	60.1371
1438.78	62.1432
1440.35	62.4107
1441.92	63.8028
1443.49	65.4235
1445.06	65.8585
1446.63	66.1667
1448.2	66.1997
1449.77	66.77
1451.34	66.7129
1452.91	67.0806
1454.48	67.444
1456.05	65.8771
1457.62	63.9759
1459.18	63.7243
1460.75	62.6053
1462.32	60.6339
1463.89	57.8818
1465.45	55.3525
1467.02	52.9633
1468.59	50.2315
1470.15	48.1604
1471.72	45.5063
1473.28	42.2675
1474.85	39.1936
1476.41	37.5653
1477.98	34.4659
1479.54	32.6838
1481.11	31.1578
1482.67	27.9786
1484.23	25.7711
1485.8	22.7237
1487.36	20.608
1488.92	18.8067
1490.48	17.3219
1492.05	15.1444
1493.61	13.1161
1495.17	12.0504
1496.73	10.5889
1498.29	10.2034
1499.85	9.9212
1501.41	9.66101
1502.97	9.84102
1504.53	10.6901
1506.09	9.81156
1507.65	9.45679
1509.2	9.46769
1510.76	10.3502
1512.32	11.0367
1513.88	11.0726
1515.44	12.2121
1516.99	12.4763
1518.55	13.5191
1520.1	14.1168
1521.66	14.8797
1523.22	15.8333
1524.77	16.6377
1526.33	16.4874
1527.88	17.4043
1529.44	17.8748
1530.99	19.3473
1532.55	19.3683
1534.1	19.1705
1535.65	20.8918
1537.21	22.7041
1538.76	23.4029
1540.31	23.7667
1541.86	25.2109
1543.42	27.4476
1544.97	29.1214
1546.52	30.1238
1548.07	31.6457
1549.62	32.8567
1551.17	34.5827
1552.72	37.0184
1554.27	39.2993
1555.82	40.6012
1557.37	42.26
1558.92	42.9121
1560.47	44.1922
1562.02	45.9005
1563.57	46.8258
1565.11	49.1265
1566.66	50.4035
1568.21	51.1695
1569.75	52.102
1571.3	53.1858
1572.85	53.9669
1574.39	54.4676
1575.94	54.9
1577.49	55.3755
1579.03	55.7793
1580.58	55.584
1582.12	55.6646
1583.67	54.1763
1585.21	53.8834
1586.75	53.1233
1588.3	52.3573
1589.84	52.1731
1591.38	51.8257
1592.93	51.7658
1594.47	50.3934
1596.01	49.1796
1597.55	48.1074
1599.09	48.1368
1600.63	47.1218
1602.18	45.8612
1603.72	45.0385
1605.26	45.4151
1606.8	44.9035
1608.34	45.0623
1609.87	44.4765
1611.41	44.4327
1612.95	45.2624
1614.49	44.2575
1616.03	44.562
1617.57	44.0164
1619.11	44.8746
1620.64	44.9124
1622.18	43.9016
1623.72	43.7738
1625.25	44.2269
1626.79	44.8084
1628.32	45.064
1629.86	46.0211
1631.4	47.3026
1632.93	48.0238
1634.47	49.0636
1636	51.0454
1637.53	52.498
1639.07	53.5518
1640.6	54.3782
1642.14	55.8025
1643.67	55.6563
1645.2	55.759
1646.73	56.1765
1648.27	56.797
1649.8	57.1396
1651.33	57.0825
1652.86	56.4846
1654.39	56.7699
1655.92	56.234
1657.45	55.7712
1658.98	54.6665
1660.51	53.2089
1662.04	53.2323
1663.57	52.7199
1665.1	51.7167
1666.63	51.9108
1668.16	50.0909
1669.69	48.3746
1671.21	47.0819
1672.74	46.8767
1674.27	46.2768
1675.79	45.7376
1677.32	43.7777
1678.85	43.1523
1680.37	42.1682
1681.9	41.2706
1683.42	39.628
1684.95	37.5802
1686.47	34.5506
1688	31.8474
1689.52	30.3755
1691.05	27.5873
1692.57	26.6611
1694.1	24.1777
1695.62	22.5439
1697.14	20.8949
1698.66	18.8327
1700.19	18.7276
1701.71	17.8736
1703.23	16.1904
1704.75	14.9206
1706.27	14.3608
1707.79	14.4845
1709.32	13.9557
1710.83	13.1316
1712.35	12.7854
1713.88	11.292
1715.39	9.91916
1716.91	9.50198
1718.43	8.52357
1719.95	8.11468
1721.47	7.67037
1722.99	7.67291
1724.5	7.54323
1726.02	6.69926
1727.54	5.23932
1729.06	5.03508
1730.57	5.26362
1732.09	4.98082
1733.61	4.90252
1735.12	4.51608
1736.64	4.76861
1738.15	4.66449
1739.67	4.51038
1741.18	3.76879
1742.7	4.18443
1744.21	3.32151
1745.72	3.83601
1747.24	3.9091
1748.75	4.59904
1750.26	4.68335
1751.78	4.71875
1753.29	4.55767
1754.8	5.04541
1756.31	4.27589
1757.82	3.62441
1759.34	3.14445
1760.85	2.87323
1762.36	2.94472
1763.87	3.66566
1765.38	3.71775
1766.89	3.44744
1768.4	3.66898
1769.91	3.13728
1771.41	3.29883
1772.92	3.51036
1774.43	2.97395
1775.94	3.03684
1777.45	2.04992
1778.96	1.66792
1780.46	1.309
1781.97	1.80366
1783.48	2.0149
1784.98	1.73818
1786.49	1.43206
1788	1.68848
1789.5	1.4929
1791.01	1.37137
1792.51	1.62636
1794.01	0.956362
1795.52	1.17785
1797.02	0.49721
1798.53	1.35577
1800.03	1.28008
1801.54	0.70881
1803.04	0.735504
1804.54	1.43946
1806.04	1.51214
1807.54	1.13603
1809.05	1.02904
1810.55	1.0917
1812.05	0.73175
1813.55	0.41113
1815.05	0.750201
1816.55	0.177129
1818.05	-0.256368
1819.55	-0.255933
1821.05	-0.081039
1822.55	-0.26877
1824.05	1.08646
1825.55	0.825949
1827.05	0.348036
1828.55	0.885865
1830.04	1.17476
1831.54	0.831872
1833.04	0.760377
1834.54	1.03624
1836.03	1.03126
1837.53	1.09622
1839.03	0.938537
1840.52	0.547819
1842.02	0.938773
1843.51	1.1937
1845.01	1.61454
1846.5	2.05014
1848	2.20239
1849.49	1.91241
1850.99	1.82454
1852.48	2.25619
1853.97	3.12512
1855.47	3.76463
1856.96	4.17451
1858.45	4.59246
1859.94	4.14543
1861.44	3.70884
1862.93	3.87509
1864.42	3.81658
1865.91	3.6971
1867.4	3.87088
1868.89	4.26037
1870.38	5.20333
1871.87	5.10895
1873.36	5.69392
1874.85	5.30214
1876.34	5.81962
1877.83	6.45178
1879.32	6.35958
1880.81	6.77011
1882.3	7.2063
1882.56	7.62139
1884.06	7.96144
1885.55	7.7775
1887.04	7.59354
1888.54	7.69899
1890.03	7.66754
1891.52	8.18775
1893.02	9.01483
1894.51	8.57625
1896	8.86341
1897.49	9.99627
1898.99	10.0083
1900.48	9.72551
1901.97	10.3501
1903.46	10.0022
1904.95	8.98274
1906.44	8.20729
1907.93	8.38247
1909.42	8.16718
1910.91	8.14843
1912.4	8.49395
1913.89	8.38797
1915.38	8.97956
1916.86	8.87962
1918.35	9.20518
1919.84	8.94751
1921.33	9.16818
1922.82	9.44803
1924.3	10.182
1925.79	10.1158
1927.28	10.1995
1928.76	9.7165
1930.25	8.42947
1931.74	8.01937
1933.22	6.68706
1934.71	6.3577
1936.19	6.00443
1937.67	5.78278
1939.16	5.05624
1940.64	5.02687
1942.13	5.00039
1943.61	4.74397
1945.09	4.55999
1946.58	4.54019
1948.06	4.55925
1949.54	4.90984
1951.03	4.73595
1952.51	3.84556
1953.99	3.68276
1955.47	3.78541
1956.95	3.46797
1958.43	3.97978
1959.91	3.92517
1961.39	4.1598
1962.87	4.88006
1964.35	5.44474
1965.83	5.46193
1967.31	5.43663
1968.79	4.95495
1970.27	5.05859
1971.75	5.47796
1973.22	4.90908
1974.7	4.18357
1976.18	4.19724
1977.66	3.78346
1979.13	3.48967
1980.61	4.25444
1982.09	4.81554
1983.56	5.32363
1985.04	5.77095
1986.52	6.35169
1987.99	6.46499
1989.47	7.61893
1990.94	8.02393
1992.41	8.18214
1993.89	8.31973
1995.36	8.42633
1996.84	8.46201
1998.31	8.22277
1999.78	7.6646
2001.26	7.89718
2002.73	7.67724
2004.2	6.61965
2005.67	7.03628
2007.15	6.42879
2008.62	6.1154
2010.09	6.17028
2011.56	6.73279
2013.03	7.38199
2014.5	7.85256
2015.97	7.97538
2017.44	8.20967
2018.91	7.63955
2020.38	8.046
2021.85	8.50126
2023.32	8.65975
2024.79	8.49806
2026.25	8.32566
2027.72	8.95087
2029.19	9.94957
2030.66	10.5649
2032.13	11.3232
2033.59	11.3135
2035.06	11.3422
2036.53	11.223
2037.99	10.9117
2039.46	10.2089
2040.92	10.2319
2042.39	10.1757
2043.85	10.329
2045.32	10.8986
2046.78	11.001
2048.25	10.3709
2049.71	10.6487
2051.18	11.1266
2052.64	11.0166
2054.1	11.4251
2055.56	10.924
2057.03	11.2316
2058.49	11.1751
2059.95	12.1245
2061.42	12.3082
2062.88	12.5491
2064.34	12.4246
2065.8	12.4287
2067.26	13.2808
2068.72	13.6847
2070.18	14.9508
2071.64	16.2583
2073.1	16.9137
2074.56	17.6344
2076.02	18.3688
2077.48	18.7728
2078.94	19.8528
2080.39	20.611
2081.85	21.7303
2083.31	23.0697
2084.77	23.9496
2086.22	24.6622
2087.68	25.1889
2089.14	26.5532
2090.6	27.3465
2092.05	28.2263
2093.51	29.8864
2094.96	30.1903
2096.42	30.8794
2097.87	32.0458
2099.33	33.4214
2100.78	34.4908
2102.24	35.78
2103.69	36.8889
2105.15	37.5082
2106.6	38.5173
2108.05	38.4926
2109.51	39.2867
2110.96	40.2809
2112.41	40.9931
2113.86	41.452
2115.32	42.1877
2116.77	43.2535
2118.22	44.2103
2119.67	44.3536
2121.12	44.6727
2122.57	45.5246
2124.02	45.9651
2125.47	45.9027
2126.92	47.0227
2128.37	47.1719
2129.82	49.0318
2131.27	49.7716
2132.72	50.6566
2134.17	50.7415
2135.62	52.1894
2137.06	53.547
2138.51	54.6801
2139.96	55.5049
2141.41	57.1145
2142.85	59.1591
2144.3	60.2149
2145.75	61.2453
2147.19	62.5229
2148.64	63.5577
2150.09	63.992
2151.53	65.2569
2152.97	66.0667
2154.42	66.0846
2155.86	67.5223
2157.31	68.012
2158.75	69.3359
2160.2	70.3743
2161.64	71.4225
2163.08	71.412
2164.53	72.1238
2165.97	73.1218
2167.41	73.5747
2168.86	73.9124
2170.3	74.9944
2171.74	76.0902
2173.18	75.5585
2174.62	75.4787
2176.06	75.2249
2177.5	75.146
2178.94	75.2341
2180.38	74.5954
2181.82	74.995
2183.26	74.3741
2184.7	73.4835
2186.14	72.7077
2187.58	71.9997
2189.02	71.3104
2190.46	69.7024
2191.89	68.3915
2193.33	67.6427
2194.77	66.6042
2196.21	64.9856
2197.64	64.0566
2199.08	63.6568
2200.52	62.2069
2201.95	61.089
2203.39	58.9718
2204.83	58.0858
2206.26	57.2608
2207.7	56.5238
2209.13	54.7254
2210.57	53.3718
2212	51.7774
2213.43	50.8483
2214.87	49.4158
2216.3	47.1988
2217.73	46.0393
2219.17	43.4692
2220.6	42.0158
2222.03	40.392
2223.47	38.8649
2224.9	37.4512
2226.33	36.8254
2227.76	36.5697
2229.19	35.3978
2230.62	34.5649
2232.05	33.2379
2233.49	32.1766
2234.91	30.6668
2236.34	30.0744
2237.77	29.7224
2239.2	28.8471
2240.63	28.2302
2242.06	27.6813
2243.49	27.1935
2244.92	25.9817
2246.35	25.8058
2247.78	25.7635
2249.2	25.8334
2250.63	25.7784
2252.06	25.4478
2253.48	24.6655
2254.91	23.8265
2256.34	23.471
2257.76	23.1282
2259.19	22.4917
2260.61	23.0389
2262.04	23.6352
2263.46	24.1868
2264.89	24.0002
2266.31	23.8505
2267.74	23.5326
2269.16	24.3289
2270.59	23.9855
2272.01	23.4868
2273.43	23.0786
2274.85	23.3391
2276.28	22.8783
2277.7	22.6786
2279.12	21.6371
2280.54	20.868
2281.97	20.729
2283.39	19.8159
2284.81	19.1108
2286.23	18.4829
2287.65	17.8807
2289.07	17.5359
2290.49	16.1157
2291.91	15.3696
2293.33	14.1232
2294.75	13.706
2296.17	13.9845
2297.59	14.0313
2299.01	13.6677
2300.42	13.5133
2301.84	12.9366
2303.26	12.5184
2304.68	12.1972
2306.1	11.8224
2307.51	12.1587
2308.93	11.6108
2310.35	11.049
2311.76	10.1501
2313.18	9.47733
2314.59	9.67231
2316.01	9.05724
2317.43	8.50833
2318.84	8.10237
2320.26	7.8115
2321.67	7.73216
2323.08	7.7865
2324.5	7.74632
2325.91	8.15005
2327.33	8.45255
2328.74	8.62919
2330.15	8.60158
2331.56	8.74963
2332.98	8.74439
2334.39	8.39408
2335.8	8.1616
2337.21	8.789
2338.62	8.67404
2340.04	8.75967
2341.45	9.08449
2342.86	8.38209
2344.27	8.89397
2345.68	8.31824
2347.09	7.45381
2348.5	7.72187
2349.91	7.15451
2351.31	7.36989
2352.72	7.38434
2354.13	5.83967
2355.54	5.57482
2356.95	5.13025
2358.36	4.21387
2359.76	3.33283
2361.17	2.86598
2362.58	3.2165
2363.98	3.76013
2365.39	4.00923
2366.8	4.55781
2368.21	4.49999
2369.61	3.86756
2371.02	3.5785
2372.42	2.76
2373.83	2.14817
2375.23	1.42579
2376.64	1.13642
2378.04	0.63077
2379.44	-0.324826
2380.85	-0.192678
2382.25	-0.528252
2383.66	-0.044297
2385.06	0.124694
2386.46	0.553164
2387.86	1.60001
2389.26	2.63398
2390.67	3.07246
2392.07	3.6603
2393.47	3.90647
2394.87	4.30357
2396.27	4.23716
2397.67	4.59024
2399.07	4.66477
2400.47	4.6595
2401.87	4.93001
2403.27	6.05181
2404.67	6.19887
2406.07	6.82294
2407.47	6.93917
2408.87	6.40319
2410.27	7.33771
2411.67	7.39988
2413.07	6.67164
2414.46	7.56173
2415.86	6.84518
2417.26	6.85974
2418.66	7.5109
2420.05	7.5389
2421.45	7.49639
2422.84	7.05465
2424.24	6.20629
2425.64	6.63864
2427.03	6.39317
2428.43	6.12825
2429.82	6.70884
2431.22	6.92926
2432.61	6.54585
2434.01	6.29837
2435.4	5.78471
2436.79	5.56134
2438.19	5.21637
2439.58	5.13607
2440.97	5.40025
2442.37	5.10316
2443.76	5.05701
2445.15	4.90039
2446.54	4.82078
2447.93	4.54349
2449.33	5.01485
2450.72	5.18529
2452.11	5.14367
2453.5	5.87207
2454.89	5.75356
2456.28	6.1668
2457.67	6.14158
2459.06	5.63322
2460.45	5.0724
2461.84	4.38515
2463.23	4.2054
2464.62	4.89396
2466	4.27884
2467.39	4.37149
2468.78	4.00589
2470.17	3.41557
2471.55	3.06616
2472.94	3.24062
2474.33	2.93296
2475.72	2.68445
2477.1	2.3947
2478.49	3.00611
2479.87	3.49784
2481.26	2.57484
2482.65	2.90676
2484.03	3.02446
2485.42	3.05934
2486.8	3.10811
2488.19	2.76876
2489.57	2.85717
2490.95	2.83865
2492.34	2.81609
2493.72	2.74463
2495.1	2.32628
2496.49	2.6949
2497.87	2.59214
2499.25	2.50217
2500.63	2.41477
2502.02	1.99617
2503.4	2.56939
2504.78	2.61334
2506.16	3.31832
2507.54	3.49675
2508.92	3.35173
2510.3	2.93448
2511.68	2.49237
2513.06	2.39536
2514.44	1.9526
2515.82	2.19757
2517.2	2.20863
2518.58	2.11275
2519.96	1.66966
2521.34	1.8535
2522.72	2.25867
2524.1	1.87035
2525.47	1.7071
2526.85	1.78278
2528.23	1.88741
2529.6	2.15597
2530.98	2.24649
2532.36	2.91751
2533.74	2.91883
2535.11	2.49472
2536.49	3.23831
2537.86	2.86086
2539.24	2.80169
2540.61	3.33269
2541.99	4.67459
2543.36	5.09365
2544.74	5.46529
2546.11	5.46482
2547.49	5.87
2548.86	5.49112
2550.23	5.63337
2551.61	6.11576
2552.98	6.34221
2554.35	6.59484
2555.72	6.48561
2557.09	6.80421
2558.47	7.41925
2559.84	7.45382
2561.21	7.38423
2562.58	7.34695
2563.95	7.14213
2565.32	7.63899
2566.69	7.70821
2568.06	7.61129
2569.43	7.30011
2570.8	7.11593
2572.17	6.91499
2573.54	6.57196
2574.91	6.64503
2576.28	6.3986
2577.65	6.45022
2579.02	6.25491
2580.39	6.20113
2581.75	6.36475
2583.12	6.09102
2584.49	6.2924
2585.85	6.20559
2587.22	6.22793
2588.59	6.24879
2589.95	6.61242
2591.32	6.28471
2592.68	6.2276
2594.05	6.72138
2595.42	6.7339
2596.78	7.02336
2598.15	7.20773
2599.51	6.59942
2600.88	6.11683
2602.24	6.3218
2603.6	6.23831
2604.97	6.41873
2606.33	5.85847
2607.69	6.05897
2609.06	6.04083
2610.42	5.80273
2611.78	4.92652
2613.14	4.26322
2614.51	3.46191
2615.87	3.60891
2617.23	3.41271
2618.59	3.68001
2619.95	3.76399
2621.31	3.71567
2622.67	3.93934
2624.03	3.49184
2625.39	3.36176
2626.75	2.83282
2628.11	2.49172
2629.47	2.42411
2630.83	2.17918
2632.19	1.77296
2633.55	1.35648
2634.91	1.70534
2636.26	0.945042
2637.62	0.759135
2638.98	1.05507
2640.34	0.887466
2641.69	1.38756
2643.05	1.65697
2644.41	1.2657
2645.76	1.19946
2647.12	1.70339
2648.48	1.15968
2649.83	1.54757
2651.19	1.59411
2652.54	1.71563
2653.9	1.70018
2655.25	1.8436
2656.6	1.56971
2657.96	1.47992
2659.31	0.835861
2660.67	0.872977
2662.02	0.806991
2663.37	0.463851
2664.73	0.561234
2666.08	0.407444
2667.43	0.0307249
2668.78	-0.0530666
2670.14	-0.163881
2671.49	-0.581827
2672.84	-0.123873
2674.19	-0.765864
2675.54	-0.910143
2676.89	-0.933364
2678.24	-1.16456
2679.59	-1.46032
2680.94	-1.62704
2682.29	-1.20889
2683.64	-0.672901
2684.99	0.316775
2686.34	1.40707
2687.69	1.80489
2689.04	1.928
2690.39	2.63942
2691.74	2.53057
2693.08	3.20023
2694.43	3.79199
2695.78	4.20428
2697.13	5.02957
2698.47	5.10317
2699.82	5.48613
2701.17	5.94135
2702.51	6.76029
2703.86	6.46584
2705.21	7.37468
2706.55	7.93455
2707.9	7.96444
2709.24	8.50618
2710.58	8.81494
2711.93	9.00369
2713.27	9.87967
2714.62	10.0076
2715.96	9.57625
2717.3	9.83993
2718.65	9.37822
2719.99	9.10883
2721.33	8.92447
2722.68	8.76606
2724.02	8.3328
2725.36	8.21561
2726.71	8.37756
2728.05	8.23435
2729.39	8.40893
2730.73	8.13244
2732.07	7.25706
2733.41	6.56416
2734.75	5.89504
2736.09	5.7014
2737.43	5.61556
2738.77	5.57161
2740.11	5.06396
2741.45	4.17945
2742.79	4.15273
2744.13	3.77962
2745.47	3.26992
2746.81	3.52069
2748.14	3.74877
2749.48	3.94712
2750.82	4.15565
2752.16	4.50242
2753.49	4.40274
2754.83	3.85437
2756.17	4.11056
2757.5	4.47065
2758.84	4.44473
2760.18	4.21235
2761.51	4.41309
2762.85	4.18925
2764.18	4.22795
2765.52	4.29069
2766.85	4.31507
2768.19	4.14944
2769.52	4.52076
2770.86	4.83327
2772.19	5.49661
2773.52	4.71459
2774.86	3.72877
2776.19	4.30184
2777.52	4.18623
2778.86	4.30914
2780.19	4.15053
2781.52	3.98936
2782.85	4.56168
2784.19	4.42509
2785.52	4.50835
2786.85	4.87448
2788.18	4.36078
2789.51	4.2965
2790.84	4.0991
2792.17	3.67314
2793.5	3.21374
2794.83	2.76396
2796.16	2.14901
2797.49	1.57461
2798.82	1.3933
2800.15	1.21122
2801.48	0.892145
2802.81	0.947191
2804.13	0.395233
2805.46	0.0923759
2806.79	0.211295
2808.12	0.0995671
2809.45	-0.109082
2810.77	-0.319354
2812.1	-0.665454
2813.43	-1.07223
2814.75	-1.49899
2816.08	-1.15045
2817.41	-0.910749
2818.73	-0.107533
2820.06	0.956477
2821.38	2.13845
2822.71	3.57496
2824.03	5.20986
2825.36	6.22018
2826.68	7.23373
2828	9.32457
2829.33	10.9353
2830.65	13.3001
2831.98	15.4375
2833.3	17.432
2834.62	19.8642
2835.94	22.1481
2837.27	23.9826
2838.59	26.182
2839.91	28.305
2841.23	30.8115
2842.55	33.6091
2843.87	36.2788
2845.2	38.7916
2846.52	41.1933
2847.84	44.4247
2849.16	47.6675
2850.48	50.0117
2851.8	52.5386
2853.12	55.4525
2854.44	58.2374
2855.76	61.4306
2857.08	64.5793
2858.39	67.7953
2859.71	71.1136
2861.03	74.4341
2862.35	76.9222
2863.67	80.6011
2864.98	82.873
2866.3	85.0493
2867.62	87.4239
2868.94	90.1691
2870.25	92.0006
2871.57	93.8798
2872.88	95.5888
2874.2	96.6895
2875.52	97.7037
2876.83	99.5328
2878.15	100.363
2879.46	102.321
2880.78	104.261
2882.09	106.225
2883.41	107.571
2884.72	110.302
2886.03	111.723
2887.35	113.757
2888.66	115.564
2889.97	117.508
2891.29	118.674
2892.6	120.028
2893.91	122
2895.22	124.255
2896.54	126.014
2897.85	127.768
2899.16	129.469
2900.47	130.349
2901.78	131.602
2903.09	133.705
2904.4	136.068
2905.71	137.95
2907.02	139.737
2908.33	142.006
2909.64	144.927
2910.95	147.107
2912.26	150.152
2913.57	153.688
2914.88	157.388
2916.19	160.672
2917.5	163.386
2918.81	166.241
2920.11	168.646
2921.42	171.378
2922.73	174.041
2924.04	175.906
2925.34	177.867
2926.65	178.919
2927.96	179.774
2929.26	180.827
2930.57	180.664
2931.87	180.95
2933.18	180.678
2934.49	180.046
2935.79	178.824
2937.1	177.74
2938.4	176.157
2939.7	174.644
2941.01	172.998
2942.31	171.18
2943.62	168.868
2944.92	167.413
2946.22	164.533
2947.53	162.12
2948.83	159.009
2950.13	156.257
2951.43	152.961
2952.74	150.349
2954.04	146.885
2955.34	143.644
2956.64	140.633
2957.94	137.254
2959.24	134.685
2960.54	131.676
2961.84	128.131
2963.15	124.662
2964.45	121.07
2965.75	117.96
2967.05	115.924
2968.34	113.086
2969.64	110.465
2970.94	107.021
2972.24	104.323
2973.54	101.361
2974.84	98.722
2976.14	96.0923
2977.43	93.6549
2978.73	90.6567
2980.03	88.0485
2981.33	84.6863
2982.62	80.8928
2983.92	78.0371
2985.22	74.7139
2986.51	71.7697
2987.81	68.2871
2989.11	64.7811
2990.4	61.1697
2991.7	57.8379
2992.99	54.7061
2994.29	51.6535
2995.58	48.379
2996.88	45.3886
2998.17	42.7575
2999.46	39.3819
3000.76	36.2347
3002.05	33.798
3003.34	31.328
3004.64	29.349
3005.93	27.2968
3007.22	24.5777
3008.52	22.8461
3009.81	21.1872
3011.1	19.1054
3012.39	17.6137
3013.68	15.7585
3014.97	14.5328
3016.27	14.0223
3017.56	12.7485
3018.85	11.8541
3020.14	11.3657
3021.43	10.8103
3022.72	9.92496
3024.01	9.8345
3025.3	9.47149
3026.59	9.11929
3027.88	8.5893
3029.16	8.74966
3030.45	8.64384
3031.74	8.46194
3033.03	8.16684
3034.32	8.38939
3035.6	8.15686
3036.89	7.98591
3038.18	7.7516
3039.47	7.91467
3040.75	8.21234
3042.04	8.20344
3043.33	8.19064
3044.61	8.28343
3045.9	8.15752
3047.18	7.91624
3048.47	7.64107
3049.75	7.31212
3051.04	7.77018
3052.32	7.80396
3053.61	7.66418
3054.89	7.55485
3056.18	7.7187
3057.46	7.57272
3058.74	7.42237
3060.03	7.41912
3061.31	7.80042
3062.59	7.21989
3063.88	6.47291
3065.16	6.52502
3066.44	6.9148
3067.72	6.30187
3069	6.17964
3070.29	5.90938
3071.57	5.42182
3072.85	5.65157
3074.13	5.07542
3075.41	4.44977
3076.69	3.75865
3077.97	2.84067
3079.25	2.61804
3080.53	2.06715
3081.81	1.48536
3083.09	0.996846
3084.37	0.855827
3085.65	0.302791
3086.93	-0.0784297
3088.21	-0.55071
3089.49	-0.358769
3090.76	-0.15329
3092.04	-0.138445
3093.32	0.0192875
3094.6	0.309327
3095.87	0.844113
3097.15	1.43506
3098.43	1.72467
3099.7	1.7995
3100.98	2.08169
3102.26	2.83451
3103.53	3.16829
3104.81	3.37458
3106.08	3.94197
3107.36	4.19058
3108.63	5.04391
3109.91	5.78425
3111.18	6.55383
3112.46	6.92881
3113.73	8.0177
3115	8.6089
3116.28	9.00734
3117.55	9.81406
3118.83	10.3644
3120.1	10.9614
3121.37	11.7069
3122.64	12.3967
3123.92	13.3511
3125.19	14.0336
3126.46	13.9314
3127.73	14.7338
3129	15.4439
3130.27	15.934
3131.55	15.6442
3132.82	16.2562
3134.09	16.248
3135.36	16.1872
3136.63	16.0559
3137.9	15.5691
3139.17	15.6629
3140.44	15.3681
3141.71	15.2113
3142.98	15.2479
3144.24	15.2647
3145.51	15.4231
3146.78	16.0272
3148.05	16.093
3149.32	17.0659
