#Acq. time (s)=	45
#Accumulations=	2
#Range (cm-¹)=	200...3150
#Windows=	2
#Auto scanning=	Off
#Autofocus=	Off
#Macrospot=	Off
#AutoExposure=	Off
#Spike filter=	Multiple accum.
#Delay time (s)=	0
#Binning=	1
#Readout mode=	Signal
#DeNoise=	Off
#ICS correction=	On
#Dark correction=	Off
#Inst. Process=	Off
#Detector Gain=	Best Dynamic Range
#Detector ADC=	20 kHz       
#Detector temperature (°C)=	-69.85
#Instrument=	LabRAM HR Evol
#Detector=	Synapse
#Objective=	x100
#Grating=	600 gr/mm
#ND Filter=	100%
#Laser (nm)=	532 
#Hole=	100.021
#Range=	Auto
#Laser Pol.=	No
#Raman. Pol.=	No
#Laser Pol. (°)=	-0.0007625
#Raman Pol. (°)=	89.9995
#Collection=	Microscope
#StageXY=	Marzhauser
#StageZ=	Marzhauser
#X (µm)=	4758.7
#Y (µm)=	-7712.4
#Z (µm)=	584.4
#Full time(mm:ss)=	3:18
#Project=	
#Sample=	
#Site=	
#Title=	Thy_30_10_29_2x_45s_532 nm_x100_100%_600 gr_mm
#Remark=	
#Date=	30.06.2022 13:32
#Acquired=	30.06.2022 13:32:57
#Base:Fit=	10.08.2022 09:58:11
#Base:Sub=	10.08.2022 09:58:44
#Filter:Polynom=	16.08.2022 10:22:53
#AxisType[0]=Intens
#AxisUnit[0]=Cnt
#AxisType[1]=Spectr
#AxisUnit[1]=1/cm
200.533	32.0665
202.348	32.1881
204.162	31.6351
205.976	30.482
207.792	29.6397
209.605	28.8033
211.418	28.487
213.23	28.1777
215.044	27.753
216.856	27.648
218.667	26.9392
220.478	25.4469
222.289	24.3856
224.102	24.3419
225.912	22.92
227.721	21.6296
229.531	20.2989
231.34	17.7666
233.148	16.1986
234.956	14.9883
236.766	15.2716
238.574	14.4515
240.381	13.9998
242.188	13.2348
243.994	12.541
245.801	12.0871
247.606	11.3011
249.412	10.1391
251.217	9.38234
253.024	8.95307
254.828	8.97269
256.632	9.38923
258.436	8.57121
260.239	8.12343
262.042	7.04415
263.845	6.81495
265.647	6.47763
267.449	6.97258
269.25	7.15909
271.052	7.36256
272.852	7.04743
274.653	8.01156
276.453	8.37726
278.253	8.12782
280.052	8.26131
281.852	8.94224
283.65	8.77812
285.449	9.44473
287.247	10.059
289.044	9.82396
290.842	11.1801
292.639	11.8044
294.436	13.3726
296.232	15.0806
298.028	16.0118
299.821	16.821
301.617	18.0161
303.412	18.724
305.206	18.9653
307	19.7228
308.794	19.9627
310.588	20.1654
312.381	20.9676
314.172	21.2689
315.964	20.8491
317.756	20.9975
319.548	21.0248
321.34	20.5415
323.131	21.731
324.921	22.231
326.71	23.7015
328.5	23.3097
330.29	23.1634
332.079	22.3579
333.868	22.0411
335.654	22.1907
337.443	21.6551
339.231	21.3273
341.018	21.273
342.804	21.4659
344.591	21.189
346.377	20.2283
348.163	19.3774
349.947	18.524
351.733	17.6755
353.518	16.4724
355.303	15.0272
357.085	14.7787
358.869	12.9567
360.653	12.7597
362.435	11.9747
364.218	11.0857
366.001	10.0064
367.781	9.20097
369.563	8.97328
371.345	8.6399
373.124	7.95975
374.905	7.00798
376.686	6.40714
378.464	6.7585
380.244	6.96546
382.022	7.43286
383.801	7.99846
385.58	7.82927
387.357	7.50376
389.135	7.35509
390.911	8.00345
392.689	8.12135
394.466	8.15233
396.241	9.10839
398.018	9.06675
399.792	9.21993
401.568	9.18951
403.341	8.97055
405.117	9.34298
406.889	9.47938
408.664	9.50309
410.436	9.98506
412.21	11.7905
413.981	11.7519
415.755	12.3559
417.525	11.6251
419.298	10.859
421.068	11.4969
422.84	12.189
424.609	13.0208
426.38	12.2635
428.149	12.548
429.919	12.6799
431.688	12.5892
433.455	11.2095
435.225	10.8813
436.992	10.6625
438.76	10.4792
440.527	9.75708
442.293	8.58604
444.06	7.82294
445.826	8.35052
447.593	7.46833
449.357	8.0021
451.122	7.21316
452.888	7.51199
454.651	7.02051
456.415	7.35775
458.18	7.54321
459.942	7.90793
461.705	6.74884
463.469	6.77304
465.23	6.93072
466.991	7.10001
468.752	6.92225
470.515	7.58166
472.275	7.60173
474.035	6.7754
475.797	6.70173
477.556	7.18409
479.315	7.78833
481.073	8.14786
482.834	9.01795
484.592	10.2638
486.349	10.8453
488.106	11.6265
489.863	11.975
491.622	12.8574
493.378	14.2006
495.134	14.863
496.889	15.4409
498.645	16.7942
500.401	17.7877
502.156	17.8021
503.91	18.6848
505.664	19.5107
507.417	20.0064
509.171	20.9577
510.923	20.7808
512.678	21.0506
514.43	20.86
516.182	21.5257
517.933	21.6067
519.684	20.9107
521.435	20.3737
523.186	20.6926
524.936	20.6046
526.686	21.3508
528.435	19.7431
530.184	19.1687
531.933	18.6393
533.682	19.6951
535.43	19.3382
537.18	19.3625
538.927	18.5828
540.674	17.7862
542.421	17.2819
544.167	17.4323
545.913	15.8646
547.659	14.4836
549.403	12.7813
551.148	13.1251
552.893	11.9712
554.637	11.2088
556.381	10.5361
558.125	9.77998
559.868	8.54575
561.611	8.20929
563.354	8.04405
565.097	8.00968
566.839	7.51097
568.581	7.36798
570.322	6.64081
572.063	6.28729
573.802	5.3731
575.542	4.54894
577.283	4.12659
579.022	4.41335
580.762	3.41967
582.501	3.27863
584.24	3.10208
585.976	3.04363
587.714	3.46176
589.452	3.23395
591.19	2.62204
592.927	1.83334
594.663	1.09275
596.398	0.297375
598.134	0.695975
599.87	0.498984
601.605	0.0878779
603.338	0.0294398
605.073	0.0844952
606.808	0.127977
608.542	0.492164
610.274	0.729908
612.007	0.792732
613.74	1.46669
615.473	1.7291
617.204	2.56783
618.936	2.98097
620.668	4.45539
622.397	5.19102
624.128	5.73385
625.859	6.262
627.588	6.01558
629.318	6.08535
631.048	5.97228
632.775	5.74825
634.505	7.0327
636.233	7.62776
637.96	8.10753
639.688	9.3134
641.416	9.86149
643.142	11.3029
644.869	11.7
646.594	12.0684
648.32	13.4223
650.045	14.013
651.771	14.6314
653.496	15.286
655.219	15.7969
656.944	16.4799
658.667	17.6683
660.391	18.4557
662.113	19.6825
663.837	20.2763
665.558	20.9418
667.281	20.8443
669.002	22.447
670.724	22.7897
672.444	23.1733
674.166	24.188
675.885	24.7479
677.606	25.5951
679.325	25.5456
681.045	26.5575
682.763	26.8178
684.483	28.1077
686.2	28.3807
687.917	29.2755
689.636	30.0215
691.352	30.5314
693.07	31.0088
694.786	32.4194
696.501	33.1736
698.219	34.6747
699.933	35.9976
701.65	36.4977
703.364	36.1446
705.078	37.1662
706.793	38.2423
708.506	38.6112
710.219	38.2196
711.934	37.7465
713.646	37.2752
715.358	37.9477
717.071	39.1567
718.782	39.8579
720.493	40.8573
722.204	41.1791
723.916	42.3477
725.626	43.3751
727.336	43.8065
729.045	44.6273
730.756	44.4049
732.464	45.7677
734.173	47.504
735.881	47.8747
737.59	48.315
739.297	49.0767
741.004	49.4637
742.711	49.5715
744.417	50.0723
746.125	50.8167
747.831	51.3276
749.537	51.7034
751.242	53.0465
752.946	53.6166
754.651	54.2344
756.357	55.3375
758.061	55.6897
759.764	56.8103
761.467	56.8258
763.17	57.1982
764.872	57.3361
766.575	58.293
768.276	59.5032
769.978	60.0497
771.679	60.1264
773.382	60.3357
775.083	61.4295
776.783	62.7104
778.483	64.4999
780.182	65.694
781.882	65.6884
783.581	66.4132
785.279	66.7783
786.978	67.2869
788.676	68.5723
790.373	69.8992
792.071	71.1104
793.768	72.2001
795.464	73.6605
797.161	74.2698
798.857	75.0746
800.552	76.5721
802.248	77.82
803.941	79.2641
805.636	80.441
807.33	80.7442
809.024	82.0133
810.718	82.3831
812.412	83.5417
814.105	83.884
815.798	84.7318
817.49	86.6564
819.183	85.9956
820.873	85.5997
822.564	85.8798
824.256	85.9846
825.947	86.6683
827.637	86.7335
829.328	87.857
831.016	87.7874
832.705	87.3545
834.395	86.8041
836.084	86.5947
837.772	85.137
839.459	83.8101
841.147	82.9762
842.835	81.1583
844.522	80.4125
846.209	78.7687
847.894	78.1191
849.581	76.9928
851.267	75.0964
852.953	73.7602
854.637	71.4833
856.322	70.802
858.007	69.5709
859.689	69.0717
861.374	68.0418
863.058	67.1955
864.739	65.7784
866.423	64.631
868.106	63.8227
869.787	62.672
871.469	62.3329
873.151	62.1513
874.831	62.1045
876.512	61.9335
878.193	60.997
879.872	60.4336
881.553	59.6207
883.231	59.5967
884.911	60.5773
886.591	59.8304
888.268	59.5522
889.947	59.1694
891.623	58.2941
893.302	58.6827
894.978	58.8444
896.656	58.9758
898.331	59.3358
900.008	59.4639
901.683	60.2183
903.359	59.5442
905.033	60.8296
906.709	60.686
908.383	60.7432
910.058	61.2679
911.731	60.5497
913.405	60.8793
915.078	60.226
916.752	59.7003
918.423	59.1975
920.096	59.5649
921.768	58.4074
923.438	58.6116
925.111	59.0009
926.781	58.2116
928.452	58.2009
930.122	57.4824
931.791	57.1609
933.462	55.7561
935.13	55.0243
936.799	54.587
938.468	53.5977
940.136	52.3775
941.803	51.1335
943.472	50.8529
945.139	49.8787
946.805	49.0384
948.473	48.2119
950.139	48.0758
951.804	49.2692
953.471	49.2722
955.136	49.7713
956.801	50.0989
958.465	50.6728
960.131	49.9413
961.794	49.5498
963.458	50.2412
965.12	50.8276
966.785	50.8356
968.447	51.8009
970.109	51.2872
971.771	51.8417
973.432	52.2981
975.095	52.4163
976.756	53.6875
978.417	53.924
980.077	53.9321
981.737	54.6162
983.396	54.1949
985.057	54.2652
986.716	53.438
988.375	53.9055
990.033	53.2879
991.691	53.3818
993.349	52.6149
995.006	51.1261
996.663	50.9676
998.32	49.6798
999.976	48.4735
1001.63	48.2643
1003.29	47.5435
1004.95	47.0619
1006.6	47.3437
1008.26	46.5315
1009.91	45.5618
1011.56	45.1824
1013.22	43.8664
1014.87	43.2068
1016.53	41.661
1018.18	41.5175
1019.83	40.4569
1021.48	40.2558
1023.14	40.0426
1024.79	40.4531
1026.44	39.9894
1028.09	39.2858
1029.74	39.8143
1031.39	39.9822
1033.04	40.3554
1034.69	39.4416
1036.34	37.8325
1037.99	37.0593
1039.64	37.1558
1041.29	36.2751
1042.94	34.9498
1044.58	35.1244
1046.23	35.0781
1047.88	34.1111
1049.52	33.7093
1051.17	34.1701
1052.82	33.7469
1054.46	33.7284
1056.11	33.3374
1057.75	32.8863
1059.4	32.1387
1061.04	31.2182
1062.69	31.5199
1064.33	31.356
1065.98	30.416
1067.62	29.9508
1069.26	29.9288
1070.9	29.457
1072.55	28.7229
1074.19	27.6839
1075.83	27.0129
1077.47	25.84
1079.11	26.238
1080.76	25.6935
1082.4	25.9456
1084.04	27.1194
1085.68	27.6269
1087.32	28.0528
1088.95	27.9445
1090.59	27.6757
1092.23	28.212
1093.87	28.7133
1095.51	29.1856
1097.15	29.8368
1098.78	30.1122
1100.42	30.5456
1102.06	30.9289
1103.69	30.5508
1105.33	30.2197
1106.97	29.8891
1108.6	29.6447
1110.24	29.1793
1111.87	28.873
1113.51	28.0299
1115.14	27.1292
1116.77	26.3998
1118.41	26.684
1120.04	26.1528
1121.67	25.6427
1123.31	24.1759
1124.94	23.822
1126.57	24.4254
1128.2	24.0108
1129.83	23.9767
1131.47	24.2306
1133.1	24.1177
1134.72	23.583
1136.36	23.3976
1137.98	23.1683
1139.62	22.5937
1141.24	22.63
1142.87	22.7123
1144.5	22.8222
1146.13	21.6688
1147.76	20.8062
1149.38	20.2378
1151.01	19.3452
1152.64	18.4045
1154.27	17.5486
1155.89	15.3079
1157.52	14.2991
1159.14	13.1505
1160.77	13.0053
1162.39	11.6717
1164.02	11.4495
1165.64	11.1678
1167.27	10.8305
1168.89	10.2368
1170.51	9.92918
1172.14	10.471
1173.76	10.8459
1175.38	10.3059
1177	10.3034
1178.63	9.72685
1180.25	9.09558
1181.87	8.421
1183.49	8.02227
1185.11	8.52106
1186.73	8.9373
1188.35	8.81395
1189.97	9.263
1191.59	8.98019
1193.21	9.57615
1194.83	10.2492
1196.45	10.5021
1198.07	12.3957
1199.68	12.9308
1201.3	13.3038
1202.92	14.9002
1204.53	16.1411
1206.15	18.5472
1207.77	19.5245
1209.38	20.5036
1211	22.5651
1212.62	24.0999
1214.23	26.1032
1215.84	28.1187
1217.46	30.0546
1219.07	32.2149
1220.69	33.768
1222.3	35.9481
1223.91	38.2554
1225.53	40.447
1227.14	41.5565
1228.75	43.3686
1230.36	45.0204
1231.97	46.44
1233.59	48.5592
1235.2	48.9705
1236.81	50.9212
1238.42	52.2732
1240.03	53.8827
1241.64	55.2253
1243.25	56.312
1244.85	58.2408
1246.46	59.8761
1248.07	61.5629
1249.68	61.8957
1251.29	62.0618
1252.9	62.9531
1254.5	63.7764
1256.11	63.812
1257.72	64.806
1259.32	64.6202
1260.93	65.1077
1262.54	65.7774
1264.14	65.9988
1265.75	67.0165
1267.35	66.0223
1268.96	66.6933
1270.56	66.5793
1272.16	67.1176
1273.77	67.4733
1275.37	66.7972
1276.97	67.251
1278.57	67.2714
1280.18	66.9459
1281.78	66.8193
1283.38	67.4923
1284.98	67.1646
1286.58	66.5388
1288.18	65.653
1289.78	66.1802
1291.38	66.9747
1292.99	66.5045
1294.58	66.158
1296.18	66.1451
1297.78	65.8414
1299.38	66.5616
1300.98	66.5119
1302.58	67.0593
1304.17	67.5128
1305.77	67.6098
1307.37	67.0447
1308.97	67.8713
1310.56	67.6717
1312.16	67.2304
1313.76	66.6645
1315.35	66.6554
1316.95	66.1709
1318.54	64.9919
1320.14	64.6999
1321.73	64.2601
1323.32	63.5517
1324.92	64.0231
1326.51	63.6715
1328.1	62.3492
1329.7	61.3011
1331.29	60.6404
1332.88	59.5632
1334.47	59.1181
1336.07	58.0186
1337.66	57.3114
1339.25	55.8468
1340.84	54.7248
1342.43	54.2363
1344.02	53.1297
1345.61	51.8765
1347.2	50.4191
1348.79	49.8434
1350.37	48.4342
1351.96	48.3786
1353.55	46.8677
1355.14	45.5194
1356.73	44.5899
1358.31	43.09
1359.9	43.0867
1361.49	41.5047
1363.07	41.1069
1364.66	38.9879
1366.25	36.8583
1367.83	35.4573
1369.42	34.1291
1371	33.1017
1372.59	31.7609
1374.17	30.5175
1375.75	29.5749
1377.34	28.7599
1378.92	28.6026
1380.5	27.3536
1382.09	27.526
1383.67	27.9301
1385.25	28.0124
1386.83	27.3595
1388.42	27.6757
1390	26.0029
1391.58	25.0509
1393.16	23.7898
1394.74	23.7272
1396.32	22.2969
1397.9	22.574
1399.48	22.291
1401.06	22.8122
1402.64	21.8577
1404.21	21.8543
1405.79	20.5625
1407.37	21.0572
1408.95	21.4688
1410.53	21.2975
1412.1	22.286
1413.68	24.6798
1415.26	26.2388
1416.83	27.5197
1418.41	30.095
1419.98	32.1316
1421.56	34.368
1423.13	36.4417
1424.71	38.8542
1426.28	42.1217
1427.86	45.0352
1429.43	48.2582
1431	51.1972
1432.58	54.4745
1434.15	57.6231
1435.72	60.0496
1437.29	62.7597
1438.87	64.6768
1440.44	65.8156
1442.01	67.281
1443.58	68.3826
1445.15	69.8705
1446.72	71.6026
1448.29	72.6378
1449.86	73.358
1451.43	74.194
1453	73.2289
1454.57	72.9669
1456.14	73.2942
1457.71	72.8437
1459.27	72.0438
1460.84	71.17
1462.41	69.1421
1463.98	66.1594
1465.54	63.728
1467.11	60.6304
1468.67	56.2518
1470.24	54.2281
1471.81	51.3708
1473.37	48.7526
1474.94	45.0268
1476.5	42.0619
1478.07	38.5929
1479.63	35.2536
1481.19	31.372
1482.76	28.789
1484.32	25.96
1485.88	24.5281
1487.45	21.8582
1489.01	20.1315
1490.57	18.9632
1492.13	17.7791
1493.69	15.8402
1495.26	14.0936
1496.82	12.9897
1498.38	11.162
1499.94	10.5594
1501.5	9.74413
1503.06	8.78889
1504.62	8.51428
1506.17	8.31935
1507.73	8.41579
1509.29	9.40743
1510.85	9.38305
1512.41	8.38684
1513.97	8.29763
1515.52	8.76107
1517.08	9.34993
1518.64	9.75143
1520.19	11.0174
1521.75	11.4523
1523.31	11.5498
1524.86	11.5119
1526.42	11.0184
1527.97	11.5132
1529.52	11.8086
1531.08	11.3925
1532.63	12.6033
1534.19	13.3744
1535.74	13.3305
1537.29	13.8554
1538.85	14.2109
1540.4	14.7749
1541.95	15.5008
1543.5	16.3411
1545.06	17.062
1546.61	18.5199
1548.16	20.3377
1549.71	20.538
1551.26	21.078
1552.81	21.1389
1554.36	22.3034
1555.91	23.1886
1557.46	23.2449
1559.01	23.8517
1560.56	25.5107
1562.11	26.4368
1563.65	27.9358
1565.2	28.1442
1566.75	29.1594
1568.29	30.5488
1569.84	31.5855
1571.39	32.1116
1572.94	32.5962
1574.48	33.8871
1576.03	35.3211
1577.57	36.2504
1579.12	37.3322
1580.66	38.4888
1582.21	40.2986
1583.75	41.1494
1585.3	42.1284
1586.84	42.9386
1588.38	42.7238
1589.93	44.0974
1591.47	44.562
1593.01	44.9161
1594.55	45.5813
1596.1	45.1951
1597.64	45.3146
1599.18	44.7902
1600.72	44.9356
1602.26	44.8451
1603.8	44.9623
1605.34	45.189
1606.88	44.5836
1608.42	44.6322
1609.96	44.8427
1611.5	45.2344
1613.04	45.8581
1614.58	47.1313
1616.12	47.2484
1617.65	47.3128
1619.19	48.3108
1620.73	49.137
1622.27	49.6638
1623.8	50.2365
1625.34	50.6215
1626.87	51.5661
1628.41	52.5978
1629.95	54.169
1631.48	55.2279
1633.02	55.7111
1634.55	57.0488
1636.09	59.3176
1637.62	61.8854
1639.15	62.8162
1640.69	64.7372
1642.22	66.5381
1643.76	69.446
1645.29	71.2297
1646.82	72.6857
1648.35	74.123
1649.88	74.6704
1651.42	75.8479
1652.95	76.4222
1654.48	77.3516
1656.01	78.225
1657.54	78.0532
1659.07	78.2079
1660.6	77.5327
1662.13	77.7525
1663.66	77.0925
1665.19	76.1883
1666.72	74.904
1668.24	72.5311
1669.77	71.3135
1671.3	69.4865
1672.83	67.1402
1674.35	65.0366
1675.88	62.7686
1677.41	60.1052
1678.93	57.2483
1680.46	54.4535
1681.99	51.5832
1683.51	48.7577
1685.04	46.791
1686.56	44.8898
1688.09	42.205
1689.61	40.0568
1691.13	37.7742
1692.66	34.3281
1694.18	31.361
1695.71	29.0447
1697.23	26.2465
1698.75	23.1789
1700.27	21.0836
1701.8	19.0475
1703.32	17.2805
1704.84	15.5836
1706.36	14.1183
1707.88	12.3608
1709.4	11.5311
1710.92	11.098
1712.44	9.81516
1713.96	9.45948
1715.48	8.27887
1717	7.81313
1718.52	7.33205
1720.04	6.40947
1721.56	5.32854
1723.07	4.58147
1724.59	4.20222
1726.11	2.88352
1727.63	2.84362
1729.14	2.60504
1730.66	3.17542
1732.18	2.60275
1733.69	2.11296
1735.21	2.25538
1736.72	2.13405
1738.24	2.22129
1739.75	1.93149
1741.27	1.66944
1742.78	1.72823
1744.3	1.24625
1745.81	1.5128
1747.32	1.80081
1748.84	2.06777
1750.35	1.67013
1751.86	1.4759
1753.37	1.58935
1754.89	1.78704
1756.4	2.05544
1757.91	1.93033
1759.42	2.31818
1760.93	2.31934
1762.44	2.37275
1763.95	2.21378
1765.46	2.63405
1766.97	2.17286
1768.48	1.45058
1769.99	0.996128
1771.5	0.641227
1773.01	0.199093
1774.52	-0.168887
1776.03	0.0513972
1777.53	0.405477
1779.04	0.925721
1780.55	1.29074
1782.06	1.29091
1783.56	0.791488
1785.07	0.211914
1786.57	0.194082
1788.08	-0.0247322
1789.59	0.361409
1791.09	-0.144888
1792.6	-0.264095
1794.1	-0.495498
1795.6	-0.488244
1797.11	-0.660759
1798.61	-0.799506
1800.12	-0.770258
1801.62	-1.61591
1803.12	-0.912311
1804.63	-0.542934
1806.13	-0.122497
1807.63	-0.297591
1809.13	-0.319562
1810.63	-0.119617
1812.14	-5.49834e-005
1813.64	0.289906
1815.14	0.53349
1816.64	0.507479
1818.14	0.579205
1819.64	0.689737
1821.14	0.945929
1822.64	1.12468
1824.14	1.20978
1825.63	0.979611
1827.13	1.18522
1828.63	1.49607
1830.13	1.63345
1831.63	1.7531
1833.12	1.93218
1834.62	2.14995
1836.12	2.2212
1837.62	2.39721
1839.11	2.93348
1840.61	2.91013
1842.1	2.74383
1843.6	2.62328
1845.09	2.3745
1846.59	2.29103
1848.08	2.32925
1849.58	2.72328
1851.07	2.99861
1852.57	2.94942
1854.06	2.98727
1855.55	2.53522
1857.04	2.62921
1858.54	2.30383
1860.03	2.60797
1861.52	2.70092
1863.01	3.02834
1864.5	3.64097
1866	3.91135
1867.49	3.99486
1868.98	3.99219
1870.47	4.96578
1871.96	5.2715
1873.45	5.62756
1874.94	5.81604
1876.43	6.08899
1877.92	6.16928
1879.41	5.99818
1880.89	5.7451
1882.38	5.50287
1882.48	5.62825
1883.97	5.17268
1885.47	5.3797
1886.96	5.42252
1888.46	5.11005
1889.95	5.08143
1891.44	5.66588
1892.94	5.66637
1894.43	5.47852
1895.92	5.40557
1897.41	5.49115
1898.9	5.46802
1900.4	5.52846
1901.89	5.5216
1903.38	5.18956
1904.87	4.92964
1906.36	4.8704
1907.85	4.63663
1909.34	4.84614
1910.83	5.07129
1912.32	5.27067
1913.81	4.14346
1915.29	4.24953
1916.78	4.07797
1918.27	4.13698
1919.76	3.9018
1921.25	4.65468
1922.74	4.63419
1924.22	4.29802
1925.71	4.84957
1927.2	4.81989
1928.68	5.05553
1930.17	5.25709
1931.65	4.9941
1933.14	5.34733
1934.63	5.32577
1936.11	5.89045
1937.59	5.76022
1939.08	5.63544
1940.56	6.1298
1942.05	6.76657
1943.53	7.52904
1945.01	7.64257
1946.5	7.69588
1947.98	8.02529
1949.46	8.29224
1950.94	8.52777
1952.43	8.80548
1953.91	8.21702
1955.39	8.24086
1956.87	8.5216
1958.35	8.29679
1959.83	8.92644
1961.31	8.7956
1962.79	8.95172
1964.27	9.0046
1965.75	9.32168
1967.23	9.33513
1968.71	9.16813
1970.19	9.06971
1971.67	9.84933
1973.14	9.53424
1974.62	9.22705
1976.1	9.0288
1977.58	8.69975
1979.05	9.27069
1980.53	9.61974
1982.01	9.4994
1983.48	9.27217
1984.96	9.64138
1986.43	9.52594
1987.91	8.82541
1989.38	9.30217
1990.86	9.35666
1992.33	9.70273
1993.81	9.48038
1995.28	10.1252
1996.76	9.45363
1998.23	9.40214
1999.7	9.28349
2001.18	8.78647
2002.65	8.84796
2004.12	8.69229
2005.59	8.78142
2007.06	8.67719
2008.54	8.44351
2010.01	8.8549
2011.48	8.55801
2012.95	9.46945
2014.42	9.89148
2015.89	9.82704
2017.36	9.72942
2018.83	9.55401
2020.3	8.58272
2021.77	8.51775
2023.24	8.05751
2024.71	8.0308
2026.17	7.44568
2027.64	6.7372
2029.11	7.04446
2030.58	6.9769
2032.04	7.34513
2033.51	7.65026
2034.98	7.74111
2036.45	7.88108
2037.91	8.09652
2039.38	8.99299
2040.84	9.34757
2042.31	9.23483
2043.77	10.0708
2045.24	10.7097
2046.7	10.5022
2048.17	11.1684
2049.63	11.541
2051.1	11.9878
2052.56	12.2413
2054.02	12.2067
2055.48	12.5685
2056.95	12.6795
2058.41	13.3973
2059.87	13.6757
2061.33	13.7085
2062.8	14.7138
2064.26	15.362
2065.72	16.045
2067.18	16.3199
2068.64	17.0345
2070.1	17.1676
2071.56	17.9909
2073.02	19.2344
2074.48	19.648
2075.94	20.4137
2077.4	20.7344
2078.86	21.4117
2080.31	21.5807
2081.77	21.9437
2083.23	22.3715
2084.69	22.2715
2086.14	22.5963
2087.6	22.0739
2089.06	22.307
2090.52	22.4775
2091.97	22.9293
2093.43	23.0754
2094.88	23.7721
2096.34	24.0821
2097.79	24.6298
2099.25	24.5964
2100.7	25.0057
2102.16	25.7459
2103.61	26.8169
2105.07	27.756
2106.52	28.3766
2107.97	29.174
2109.43	30.2547
2110.88	31.6849
2112.33	33.1122
2113.78	33.8806
2115.24	35.185
2116.69	36.7233
2118.14	37.0525
2119.59	38.0423
2121.04	38.9045
2122.49	40.0149
2123.94	41.5129
2125.39	42.6401
2126.84	44.2402
2128.29	45.6806
2129.74	47.2194
2131.19	49.4197
2132.64	51.4514
2134.09	52.7644
2135.54	55.172
2136.98	56.6752
2138.43	58.299
2139.88	60.1009
2141.33	62.0161
2142.77	63.8534
2144.22	65.7837
2145.67	66.9096
2147.11	67.9539
2148.56	68.9907
2150.01	69.676
2151.45	71.442
2152.9	72.2118
2154.34	73.2925
2155.79	74.4629
2157.23	75.1428
2158.67	76.5135
2160.12	77.6559
2161.56	78.7671
2163	79.6573
2164.45	80.0154
2165.89	80.2803
2167.33	81.2265
2168.78	81.4423
2170.22	81.7589
2171.66	82.0383
2173.1	82.0137
2174.54	82.1157
2175.98	82.4792
2177.42	82.0218
2178.86	81.8162
2180.3	81.2694
2181.74	80.4761
2183.18	80.1097
2184.62	79.7533
2186.06	78.165
2187.5	77.282
2188.94	75.844
2190.38	74.2498
2191.82	73.5119
2193.25	72.2253
2194.69	71.1077
2196.13	69.7188
2197.57	68.1592
2199	67.0633
2200.44	65.9112
2201.88	64.5984
2203.31	62.8997
2204.75	61.2487
2206.18	59.1541
2207.62	57.8387
2209.05	55.8326
2210.49	54.1346
2211.92	53.3796
2213.36	51.6678
2214.79	49.8515
2216.22	48.3131
2217.66	47.1113
2219.09	45.5332
2220.52	43.6211
2221.96	43.2748
2223.39	42.4696
2224.82	41.6093
2226.25	40.8304
2227.68	39.8966
2229.11	38.7692
2230.55	38.3015
2231.98	37.3361
2233.41	36.3987
2234.84	36.091
2236.27	35.3791
2237.7	35.2239
2239.12	34.4604
2240.55	33.2904
2241.98	32.9388
2243.41	32.9353
2244.84	31.8464
2246.27	31.431
2247.7	30.9653
2249.12	30.0365
2250.55	29.4127
2251.98	29.033
2253.41	28.9177
2254.83	28.5155
2256.26	28.4616
2257.68	27.4905
2259.11	26.8264
2260.54	26.1786
2261.96	25.5296
2263.39	24.7372
2264.81	24.0156
2266.24	23.1909
2267.66	22.9082
2269.08	22.2363
2270.51	21.3028
2271.93	20.7219
2273.35	19.9492
2274.78	19.275
2276.2	19.4649
2277.62	18.7383
2279.04	18.8499
2280.47	18.7336
2281.89	17.9225
2283.31	18.2083
2284.73	17.4026
2286.15	16.8067
2287.57	16.2782
2288.99	16.0696
2290.41	15.3586
2291.83	14.8216
2293.25	14.9775
2294.67	14.9529
2296.09	15.2251
2297.51	15.3991
2298.93	15.3239
2300.35	15.3646
2301.76	15.6914
2303.18	16.3105
2304.6	16.5735
2306.02	17.0641
2307.44	17.3124
2308.85	17.5135
2310.27	17.7736
2311.69	18.4227
2313.1	18.7562
2314.52	18.9376
2315.93	18.4101
2317.35	19.2638
2318.76	19.5866
2320.18	19.7444
2321.59	20.0845
2323.01	20.6075
2324.42	20.4073
2325.83	19.8785
2327.25	19.87
2328.66	18.92
2330.07	18.6104
2331.49	18.7681
2332.9	18.3518
2334.31	17.4474
2335.72	16.8866
2337.13	16.7164
2338.55	16.4969
2339.96	15.7577
2341.37	15.0241
2342.78	15.4599
2344.19	14.8505
2345.6	14.7172
2347.01	14.268
2348.42	13.1276
2349.83	13.0197
2351.24	11.9519
2352.65	10.8694
2354.05	10.9696
2355.46	10.058
2356.87	9.67938
2358.28	8.86486
2359.69	9.1865
2361.09	8.7368
2362.5	8.57248
2363.91	8.90839
2365.31	8.87057
2366.72	8.50227
2368.13	8.13395
2369.53	7.25513
2370.94	7.20974
2372.34	7.41366
2373.75	7.48945
2375.15	6.82055
2376.56	6.98451
2377.96	6.74261
2379.37	6.44237
2380.77	6.52915
2382.17	6.76484
2383.58	7.08668
2384.98	6.8921
2386.38	6.88161
2387.79	7.0753
2389.19	6.3462
2390.59	6.13881
2391.99	6.77642
2393.39	6.57196
2394.8	6.37733
2396.2	5.93631
2397.6	5.89009
2399	6.11899
2400.4	6.04836
2401.8	5.84723
2403.2	4.97951
2404.6	4.93803
2406	5.32243
2407.4	5.45879
2408.79	5.15339
2410.19	5.44725
2411.59	5.86861
2412.99	6.24668
2414.39	6.01305
2415.78	5.88344
2417.18	5.37512
2418.58	5.27219
2419.98	5.52747
2421.37	5.53751
2422.77	5.91265
2424.16	6.5115
2425.56	6.09511
2426.96	6.21155
2428.35	5.69255
2429.74	5.81933
2431.14	5.686
2432.53	5.05782
2433.93	4.10882
2435.32	4.09481
2436.72	3.64862
2438.11	3.69408
2439.5	3.51038
2440.9	3.99288
2442.29	4.19448
2443.68	4.10995
2445.07	4.17683
2446.47	4.33886
2447.86	3.82595
2449.25	4.26122
2450.64	4.51833
2452.03	4.85247
2453.42	4.36486
2454.81	4.28075
2456.2	4.16624
2457.59	4.01977
2458.98	4.237
2460.37	4.25
2461.76	4.55467
2463.15	3.67639
2464.54	3.67023
2465.93	3.40701
2467.32	3.93939
2468.7	4.48237
2470.09	4.5762
2471.48	4.58327
2472.87	4.48931
2474.25	4.56395
2475.64	4.6148
2477.03	5.06765
2478.41	5.01574
2479.8	5.68654
2481.18	5.62767
2482.57	5.22165
2483.95	5.36474
2485.34	4.96794
2486.72	5.00414
2488.11	5.33748
2489.49	5.16162
2490.88	4.9034
2492.26	4.44724
2493.65	3.63221
2495.03	2.97114
2496.41	2.4657
2497.79	1.22311
2499.18	1.13615
2500.56	0.557968
2501.94	-0.478816
2503.32	-0.355064
2504.7	0.00649306
2506.09	-0.258683
2507.47	0.0409024
2508.85	-0.259685
2510.23	-0.020996
2511.61	-0.173784
2512.99	-0.425306
2514.37	-0.676232
2515.75	-0.95154
2517.13	-1.10565
2518.51	-0.758452
2519.89	-0.785362
2521.26	-0.159177
2522.64	-0.220409
2524.02	0.104093
2525.4	-0.554238
2526.78	0.0526469
2528.15	0.610594
2529.53	0.5681
2530.91	1.30621
2532.28	1.93684
2533.66	2.40466
2535.04	2.76138
2536.41	2.66569
2537.79	3.02635
2539.16	2.65953
2540.54	2.7705
2541.91	2.96034
2543.29	3.12327
2544.66	3.596
2546.04	3.34786
2547.41	3.05717
2548.78	3.029
2550.16	2.93112
2551.53	3.26099
2552.9	3.05743
2554.27	2.94213
2555.65	2.60662
2557.02	2.40598
2558.39	2.19274
2559.76	2.59223
2561.13	2.4773
2562.51	2.21684
2563.88	2.4231
2565.25	2.39667
2566.62	2.49036
2567.99	3.31358
2569.36	3.02554
2570.73	3.27936
2572.1	4.00717
2573.47	4.32295
2574.84	4.39967
2576.2	4.38946
2577.57	4.01615
2578.94	4.00137
2580.31	4.13531
2581.68	4.18167
2583.05	4.09752
2584.41	4.103
2585.78	4.14414
2587.15	4.35835
2588.51	4.38816
2589.88	5.00252
2591.24	4.42622
2592.61	4.68706
2593.98	5.21889
2595.34	5.84922
2596.71	5.52874
2598.07	4.76932
2599.44	4.83332
2600.8	4.40232
2602.16	4.12637
2603.53	3.80474
2604.89	3.79108
2606.26	3.76113
2607.62	3.19232
2608.98	3.1777
2610.34	3.13941
2611.71	2.74477
2613.07	2.32324
2614.43	1.92367
2615.79	1.77837
2617.15	1.48354
2618.52	1.64746
2619.88	1.64193
2621.24	1.18857
2622.6	1.70869
2623.96	1.6163
2625.32	2.20127
2626.68	2.70681
2628.04	2.87247
2629.4	2.37243
2630.75	2.53667
2632.11	2.71839
2633.47	2.56763
2634.83	2.21975
2636.19	2.15061
2637.55	2.13718
2638.9	2.51113
2640.26	2.41597
2641.62	1.99333
2642.98	1.65773
2644.33	1.6721
2645.69	1.42543
2647.04	1.31984
2648.4	1.18148
2649.76	0.579623
2651.11	0.248523
2652.47	-0.0606931
2653.82	0.018533
2655.18	0.0147226
2656.53	0.0908748
2657.88	0.650829
2659.24	0.652937
2660.59	1.16975
2661.95	1.15542
2663.3	0.749787
2664.65	0.936052
2666	1.12548
2667.36	2.16179
2668.71	2.23155
2670.06	1.8963
2671.41	1.77467
2672.76	1.82261
2674.12	0.973245
2675.47	1.02314
2676.82	1.09607
2678.17	1.53129
2679.52	1.14856
2680.87	1.05174
2682.22	1.35942
2683.57	1.69079
2684.92	2.37195
2686.27	2.77844
2687.62	2.92444
2688.97	3.22446
2690.31	3.90033
2691.66	3.89725
2693.01	4.10264
2694.36	4.42163
2695.71	4.87003
2697.05	4.77399
2698.4	5.13296
2699.75	4.87934
2701.09	5.316
2702.44	5.93618
2703.78	6.72866
2705.13	7.35051
2706.48	7.52094
2707.82	7.70105
2709.17	8.46486
2710.51	9.17595
2711.86	8.9148
2713.2	8.94714
2714.54	9.5005
2715.89	9.69447
2717.23	9.84647
2718.57	10.2403
2719.92	10.7065
2721.26	11.3518
2722.6	11.4257
2723.95	11.5536
2725.29	12.1893
2726.63	12.0648
2727.97	11.9355
2729.31	11.7024
2730.65	11.5945
2732	11.7877
2733.34	11.0844
2734.68	10.62
2736.02	9.84578
2737.36	9.47717
2738.7	9.21337
2740.04	8.85187
2741.38	8.65066
2742.72	8.65871
2744.05	8.48496
2745.39	8.35606
2746.73	7.86756
2748.07	7.95849
2749.41	7.88314
2750.75	7.3027
2752.08	6.98662
2753.42	6.1063
2754.76	5.72773
2756.09	5.51559
2757.43	5.31892
2758.77	5.25707
2760.1	5.16025
2761.44	5.45122
2762.78	4.94218
2764.11	4.36363
2765.44	4.51322
2766.78	4.40644
2768.11	4.72862
2769.45	4.70858
2770.78	4.80909
2772.12	4.77936
2773.45	4.26294
2774.78	4.17638
2776.12	4.08488
2777.45	3.66772
2778.78	3.50898
2780.12	3.79296
2781.45	3.77759
2782.78	3.09411
2784.11	2.9781
2785.44	3.21786
2786.78	3.2283
2788.11	2.33888
2789.44	2.06441
2790.77	2.39054
2792.1	2.37905
2793.43	2.32087
2794.76	2.17673
2796.09	2.61724
2797.42	2.76368
2798.75	2.66743
2800.08	2.47436
2801.4	2.79196
2802.73	3.08334
2804.06	3.07685
2805.39	3.53152
2806.72	3.85752
2808.05	4.04669
2809.37	3.93819
2810.7	3.74661
2812.03	3.96746
2813.35	4.05017
2814.68	3.87707
2816.01	3.9995
2817.33	4.03282
2818.66	4.58194
2819.98	5.14469
2821.31	6.05669
2822.63	7.27177
2823.96	8.93787
2825.28	10.3369
2826.61	12.0232
2827.93	14.0457
2829.25	16.0626
2830.58	18.4536
2831.9	20.1767
2833.23	22.2104
2834.55	24.5027
2835.87	26.6135
2837.19	29.2384
2838.52	31.6369
2839.84	33.9942
2841.16	37.8038
2842.48	40.9259
2843.8	44.6645
2845.12	48.3741
2846.44	51.6871
2847.77	55.5222
2849.08	59.4146
2850.4	63.7239
2851.73	68.1735
2853.05	72.2575
2854.36	76.7964
2855.68	81.8689
2857	86.2228
2858.32	90.1508
2859.64	94.6236
2860.96	98.4193
2862.28	102.892
2863.59	106.558
2864.91	110.446
2866.23	114.682
2867.55	118.719
2868.86	122.04
2870.18	125.166
2871.5	128.394
2872.81	130.44
2874.13	133.333
2875.44	135.376
2876.76	137
2878.07	139.427
2879.39	141.43
2880.7	143.496
2882.02	145.923
2883.33	148.182
2884.65	150.246
2885.96	152.151
2887.28	154.137
2888.59	157.146
2889.9	159.218
2891.21	161.493
2892.53	164.109
2893.84	166.065
2895.15	168.713
2896.46	170.264
2897.78	172.966
2899.09	176.578
2900.4	179.715
2901.71	183.59
2903.02	187.575
2904.33	192.156
2905.64	196.767
2906.95	202.335
2908.26	206.91
2909.57	212.881
2910.88	218.128
2912.19	223.261
2913.5	228.81
2914.81	235.163
2916.12	240.628
2917.43	245.874
2918.73	250.584
2920.04	255.452
2921.35	259.205
2922.66	263.038
2923.96	266.707
2925.27	269.938
2926.58	272.461
2927.88	274.828
2929.19	276.047
2930.5	277.303
2931.8	278.015
2933.11	278.014
2934.41	277.152
2935.72	275.884
2937.02	274.512
2938.33	273.116
2939.63	270.672
2940.94	267.414
2942.24	263.779
2943.54	260.283
2944.85	256.405
2946.15	252.336
2947.45	247.807
2948.76	242.663
2950.06	236.69
2951.36	231.773
2952.66	226.665
2953.97	221.496
2955.27	215.464
2956.57	210.459
2957.87	205.239
2959.17	200.281
2960.47	195.329
2961.77	190.201
2963.07	186.243
2964.37	181.876
2965.67	177.43
2966.97	173.106
2968.27	169.325
2969.57	166.354
2970.87	162.873
2972.17	159.13
2973.47	154.617
2974.77	151.013
2976.07	146.815
2977.36	142.835
2978.66	139.245
2979.96	135.196
2981.26	130.442
2982.55	126.475
2983.85	122.567
2985.15	118.408
2986.44	114.468
2987.74	110.753
2989.03	106.357
2990.33	102.069
2991.63	97.7794
2992.92	93.4511
2994.21	89.7341
2995.51	86.1688
2996.8	82.435
2998.1	78.5379
2999.39	74.7673
3000.69	70.9395
3001.98	67.4925
3003.27	63.7329
3004.57	59.438
3005.86	55.976
3007.15	52.47
3008.44	49.6223
3009.74	46.8184
3011.03	44.314
3012.32	41.3252
3013.61	38.4192
3014.9	36.1216
3016.19	34.3904
3017.48	32.1163
3018.78	30.218
3020.07	28.7236
3021.36	27.6113
3022.65	26.4471
3023.94	25.4411
3025.23	23.7584
3026.51	23.1491
3027.8	22.5244
3029.09	22.0894
3030.38	21.5633
3031.67	21.5263
3032.96	21.6244
3034.24	21.3072
3035.53	20.6266
3036.82	20.2622
3038.11	20.5008
3039.39	21.504
3040.68	21.7388
3041.97	21.6318
3043.25	21.6108
3044.54	21.9846
3045.83	22.8594
3047.11	23.1989
3048.4	23.8178
3049.68	24.6361
3050.97	25.0786
3052.25	24.8571
3053.54	24.796
3054.82	24.9409
3056.11	25.0231
3057.39	25.075
3058.67	25.2613
3059.96	25.0138
3061.24	24.878
3062.52	24.1172
3063.81	23.7806
3065.09	23.394
3066.37	23.1127
3067.65	22.5277
3068.94	21.9474
3070.22	21.4224
3071.5	21.1997
3072.78	20.7
3074.06	19.6862
3075.34	18.632
3076.62	17.3704
3077.9	16.3122
3079.18	15.3384
3080.46	14.6262
3081.74	13.6744
3083.02	12.741
3084.3	11.9641
3085.58	11.3729
3086.86	10.3508
3088.14	9.2129
3089.42	8.11157
3090.69	8.01573
3091.97	7.3119
3093.25	6.46555
3094.53	5.94604
3095.8	5.18936
3097.08	4.48511
3098.36	4.38828
3099.63	3.74585
3100.91	3.64328
3102.19	2.64612
3103.46	2.39232
3104.74	1.65555
3106.01	1.18737
3107.29	1.00839
3108.56	0.97786
3109.84	0.576786
3111.11	0.582425
3112.39	0.772457
3113.66	0.646585
3114.94	-0.0857398
3116.21	-0.126114
3117.48	-0.265623
3118.76	-0.395888
3120.03	-0.35164
3121.3	-0.457901
3122.57	-0.347563
3123.85	-0.13791
3125.12	-0.134887
3126.39	-0.0649632
3127.66	0.505184
3128.93	0.774693
3130.21	0.638736
3131.48	0.469175
3132.75	0.709665
3134.02	0.991612
3135.29	1.13342
3136.56	0.599301
3137.83	0.508966
3139.1	0.762437
3140.37	0.960647
3141.64	0.910752
3142.91	0.763481
3144.17	0.546174
3145.44	0.297308
3146.71	-0.0126519
3147.98	-0.702246
3149.25	-1.55969
