#Acq. time (s)=	45
#Accumulations=	2
#Range (cm-¹)=	200...3150
#Windows=	2
#Auto scanning=	Off
#Autofocus=	Off
#Macrospot=	Off
#AutoExposure=	Off
#Spike filter=	Multiple accum.
#Delay time (s)=	0
#Binning=	1
#Readout mode=	Signal
#DeNoise=	Off
#ICS correction=	On
#Dark correction=	Off
#Inst. Process=	Off
#Detector Gain=	Best Dynamic Range
#Detector ADC=	20 kHz       
#Detector temperature (°C)=	-69.85
#Instrument=	LabRAM HR Evol
#Detector=	Synapse
#Objective=	x100
#Grating=	600 gr/mm
#ND Filter=	100%
#Laser (nm)=	532 
#Hole=	100.021
#Range=	Auto
#Laser Pol.=	No
#Raman. Pol.=	No
#Laser Pol. (°)=	-0.0007625
#Raman Pol. (°)=	89.9995
#Collection=	Microscope
#StageXY=	Marzhauser
#StageZ=	Marzhauser
#X (µm)=	2153.4
#Y (µm)=	1210
#Z (µm)=	442.85
#Full time(mm:ss)=	3:19
#Project=	
#Sample=	
#Site=	
#Title=	Thy_10_08_01_2x_45s_532 nm_x100_100%_600 gr_mm
#Remark=	
#Date=	05.07.2022 14:14
#Acquired=	05.07.2022 14:14:41
#Base:Fit=	10.08.2022 09:45:33
#Base:Fit=	10.08.2022 09:46:03
#Base:Fit=	10.08.2022 09:46:25
#Base:Sub=	10.08.2022 09:46:49
#Filter:Polynom=	16.08.2022 10:24:56
#AxisType[0]=Intens
#AxisUnit[0]=Cnt
#AxisType[1]=Spectr
#AxisUnit[1]=1/cm
200.43	-0.224458
202.244	2.16283
204.059	2.10463
205.873	3.06442
207.688	3.53846
209.501	4.05949
211.314	4.29375
213.127	4.0495
214.941	4.8153
216.753	5.01569
218.564	5.68589
220.375	5.62845
222.186	5.74445
223.999	6.01508
225.809	5.36241
227.618	5.43664
229.428	4.52751
231.236	4.04085
233.045	3.42383
234.855	3.47547
236.663	3.43386
238.471	2.79791
240.278	3.39583
242.085	4.08051
243.891	3.48334
245.698	3.60125
247.503	3.53171
249.309	3.44316
251.116	3.39965
252.921	2.94107
254.725	2.07232
256.529	2.68159
258.333	2.41823
260.136	3.13915
261.939	3.23895
263.742	3.46907
265.544	3.04084
267.346	3.34201
269.148	3.724
270.949	5.11519
272.75	4.38853
274.55	6.18826
276.351	6.07201
278.15	6.18673
279.95	6.20706
281.749	6.14831
283.548	5.42965
285.346	4.69446
287.144	5.93051
288.942	7.17215
290.739	7.59581
292.536	7.93797
294.333	8.93683
296.129	9.44044
297.925	10.4555
299.721	10.6562
301.514	10.5234
303.309	11.1224
305.104	12.0396
306.898	11.9678
308.692	12.9135
310.486	13.0656
312.279	13.5435
314.072	13.3449
315.862	13.5768
317.654	13.7828
319.446	13.4999
321.238	13.6793
323.029	14.6813
324.819	14.97
326.608	15.4413
328.398	15.8074
330.188	16.7186
331.977	16.9094
333.766	16.4061
335.553	16.4522
337.341	16.5011
339.129	16.9342
340.917	16.8181
342.704	16.9326
344.489	17.4278
346.275	18.158
348.062	17.6134
349.845	17.7687
351.631	18.5195
353.416	18.5735
355.201	18.1141
356.984	17.7744
358.768	17.8783
360.552	17.7314
362.333	16.5633
364.116	15.9113
365.899	14.1528
367.68	13.7002
369.462	13.5054
371.243	13.7454
373.023	13.9367
374.804	14.6037
376.585	15.632
378.363	14.5103
380.143	14.1323
381.923	13.4534
383.7	12.8819
385.479	12.5816
387.256	12.2593
389.034	12.7406
390.812	12.3873
392.588	12.2397
394.365	11.7947
396.14	11.3587
397.916	11.3598
399.691	9.78049
401.467	9.02394
403.24	7.89062
405.015	7.87978
406.788	6.54141
408.563	6.65581
410.335	6.23661
412.109	6.52072
413.88	5.63934
415.654	5.41124
417.424	5.10893
419.197	4.46886
420.967	4.06465
422.739	3.94416
424.508	3.79321
426.279	4.5854
428.048	3.96926
429.819	4.16743
431.587	4.63997
433.356	4.37121
435.124	4.13299
436.891	4.2294
438.66	4.62843
440.426	4.85792
442.194	4.16335
443.96	4.4428
445.725	4.82473
447.492	4.65155
449.257	5.36749
451.021	6.16543
452.787	6.76498
454.551	7.75094
456.314	9.12396
458.079	10.8823
459.842	11.2474
461.604	11.7912
463.368	12.2699
465.13	12.8877
466.891	13.595
468.654	15.4282
470.415	16.1582
472.175	17.2672
473.935	18.1296
475.696	18.4015
477.456	18.8941
479.215	17.8827
480.973	17.9073
482.733	17.8015
484.491	17.7135
486.249	17.8405
488.006	16.7101
489.765	17.6725
491.522	17.1649
493.278	17.3448
495.034	17.4287
496.789	17.3439
498.544	16.7028
500.301	16.2924
502.056	16.1019
503.81	15.3689
505.564	15.9526
507.317	15.2747
509.071	15.5906
510.825	15.7666
512.578	14.8428
514.33	14.3741
516.082	14.0694
517.833	14.911
519.585	14.4715
521.335	14.3319
523.086	14.1558
524.836	14.4108
526.586	14.6158
528.335	15.316
530.085	14.7893
531.835	15.3527
533.584	14.9413
535.332	15.1407
537.08	16.04
538.827	16.1753
540.574	16.0026
542.321	15.7738
544.068	16.03
545.814	15.8322
547.56	15.5823
549.305	16.2854
551.05	16.0381
552.795	16.4624
554.54	16.3776
556.282	16.0473
558.025	15.2794
559.769	14.643
561.512	14.0964
563.255	13.6775
564.997	13.7326
566.739	13.2661
568.481	12.6363
570.223	12.1302
571.964	11.2303
573.705	10.4227
575.443	9.07046
577.183	8.85896
578.923	7.85059
580.663	8.04381
582.402	7.11906
584.141	7.16444
585.879	7.23625
587.615	7.38683
589.353	7.62919
591.09	7.50462
592.828	8.04733
594.564	6.97246
596.299	6.78624
598.035	6.53186
599.771	6.36763
601.506	7.08683
603.242	7.3026
604.974	7.33534
606.709	8.19714
608.443	8.46087
610.177	8.90695
611.908	9.58515
613.642	9.95145
615.374	9.44126
617.105	8.98438
618.837	9.85142
620.569	10.8553
622.3	11.3898
624.03	11.7705
625.761	12.0665
627.491	12.8749
629.219	13.7827
630.949	14.2343
632.677	14.9922
634.406	15.852
636.135	16.2302
637.861	16.75
639.59	17.8468
641.318	18.1826
643.043	19.0918
644.77	19.9045
646.495	20.7634
648.222	21.1204
649.948	21.4812
651.672	22.2334
653.398	23.2792
655.121	22.3175
656.846	22.7841
658.569	22.8536
660.293	23.6466
662.015	23.8072
663.738	24.7357
665.46	25.6191
667.183	25.4884
668.903	26.7364
670.626	29.5432
672.346	29.592
674.067	31.2046
675.787	31.1639
677.508	31.9763
679.226	31.3145
680.947	31.7294
682.665	31.3547
684.385	31.8566
686.102	31.9528
687.821	32.3365
689.538	33.2249
691.254	33.7082
692.972	34.6469
694.688	34.3699
696.406	34.1887
698.121	34.626
699.835	34.2466
701.552	34.2046
703.266	34.97
704.98	36.1882
706.695	37.6576
708.409	37.5068
710.121	38.1218
711.836	38.8453
713.548	39.9239
715.26	40.5833
716.973	41.2892
718.685	42.4555
720.396	43.5738
722.108	44.1686
723.818	45.5843
725.528	46.4717
727.238	47.2752
728.949	48.1648
730.658	48.9606
732.367	50.0624
734.075	51.0604
735.785	52.2331
737.493	53.4384
739.2	54.1569
740.907	53.8443
742.614	55.7708
744.322	57.4492
746.028	58.8458
747.734	60.1444
749.439	61.7215
751.144	63.7134
752.849	66.0805
754.555	68.4573
756.26	69.8691
757.963	70.6938
759.667	72.208
761.37	72.1763
763.073	72.9596
764.775	72.7976
766.477	73.8927
768.179	73.6603
769.883	75.5887
771.584	76.0799
773.285	77.4088
774.986	78.1585
776.686	78.6186
778.386	79.4287
780.085	80.2064
781.785	80.2804
783.484	81.6984
785.182	82.4043
786.881	83.8188
788.579	85.4558
790.276	86.9316
791.974	87.755
793.671	88.3379
795.367	89.5643
797.064	90.907
798.76	91.9537
800.456	92.7682
802.151	92.9776
803.846	93.3431
805.541	93.5063
807.234	93.3484
808.928	93.0046
810.622	92.3294
812.315	93.0312
814.008	93.0493
815.701	93.1805
817.394	92.1093
819.086	91.6647
820.778	90.5691
822.468	90.3152
824.159	89.6659
825.85	88.9898
827.541	89.2759
829.231	88.7339
830.921	87.8361
832.609	87.6384
834.298	85.3651
835.987	84.5226
837.676	83.0486
839.364	81.7889
841.051	80.4642
842.738	79.3389
844.426	78.0662
846.113	76.2715
847.798	74.5606
849.484	72.693
851.171	71.6199
852.857	69.9449
854.54	68.9509
856.226	67.2505
857.911	67.3385
859.593	66.5107
861.278	66.8255
862.961	66.165
864.645	65.6432
866.327	64.4746
868.01	64.944
869.692	65.5399
871.373	65.6777
873.055	65.3474
874.735	65.0057
876.416	65.1243
878.097	64.9874
879.776	65.1711
881.457	65.98
883.135	65.8171
884.815	65.5292
886.495	64.1813
888.172	64.0102
889.851	63.9742
891.528	64.1231
893.206	63.8503
894.882	64.7438
896.56	65.033
898.237	64.7118
899.912	63.6496
901.589	62.8278
903.263	62.3128
904.94	61.1628
906.614	61.225
908.289	60.0931
909.962	60.1777
911.635	59.7008
913.31	57.9328
914.982	57.1805
916.656	55.9201
918.328	54.5414
920.001	55.372
921.672	55.0539
923.345	55.6952
925.015	54.2437
926.685	54.0144
928.357	53.588
930.026	52.0423
931.698	51.4089
933.366	50.4085
935.035	50.5227
936.705	49.1966
938.373	48.7646
940.041	48.2905
941.71	47.2687
943.377	46.2564
945.044	46.2428
946.712	45.1684
948.378	45.8423
950.044	46.0394
951.709	46.3089
953.376	46.3086
955.041	45.072
956.706	44.4226
958.372	43.2137
960.036	43.3139
961.699	42.3369
963.362	42.3743
965.027	42.8387
966.69	42.4142
968.352	42.6991
970.014	42.9218
971.676	44.2597
973.339	45.4013
975	44.9254
976.661	45.5672
978.322	45.6976
979.982	44.8737
981.642	44.5745
983.303	43.0124
984.962	42.4268
986.621	41.641
988.28	41.0294
989.938	41.8511
991.596	41.5179
993.254	41.973
994.911	41.6522
996.57	41.058
998.227	41.4405
999.884	41.1003
1001.54	41.2326
1003.2	41.4009
1004.85	41.1809
1006.51	41.5145
1008.16	39.8914
1009.82	39.5073
1011.47	39.2153
1013.12	37.8911
1014.78	36.5367
1016.43	34.6735
1018.08	34.5562
1019.74	32.5308
1021.39	31.9022
1023.04	30.9353
1024.69	29.5845
1026.34	29.0012
1028	28.8364
1029.65	27.217
1031.3	27.2998
1032.95	25.7862
1034.6	24.4844
1036.25	22.86
1037.9	21.7483
1039.54	21.2071
1041.19	20.0681
1042.84	20.2475
1044.49	19.8782
1046.14	20.4312
1047.78	20.9806
1049.43	20.4981
1051.08	20.4959
1052.72	20.9639
1054.37	20.7626
1056.02	20.2248
1057.66	19.6401
1059.31	19.7908
1060.95	19.2513
1062.6	19.0256
1064.24	18.9422
1065.88	19.6197
1067.53	19.7287
1069.17	19.0778
1070.81	19.4551
1072.45	20.3779
1074.1	20.9823
1075.74	20.2268
1077.38	19.4329
1079.02	18.3751
1080.66	18.4057
1082.3	17.6339
1083.94	17.973
1085.58	18.015
1087.22	18.0475
1088.86	17.7979
1090.5	16.409
1092.14	16.5414
1093.78	16.3041
1095.42	16.4986
1097.05	15.7571
1098.69	16.5103
1100.33	17.7447
1101.96	17.0403
1103.6	17.9593
1105.24	17.2878
1106.87	15.9782
1108.51	16.5219
1110.14	16.5965
1111.78	16.0072
1113.41	16.5109
1115.05	15.5213
1116.68	14.2918
1118.31	13.608
1119.95	13.0946
1121.58	12.6842
1123.21	12.3847
1124.85	12.0707
1126.48	11.4143
1128.11	11.3726
1129.74	11.3451
1131.37	10.4962
1133	10.6564
1134.63	10.7166
1136.26	9.62265
1137.89	9.21033
1139.52	9.59795
1141.15	8.93719
1142.78	8.07147
1144.41	7.66869
1146.04	7.93015
1147.66	8.68202
1149.29	8.07092
1150.92	7.60138
1152.55	7.9514
1154.17	7.45252
1155.8	7.02555
1157.43	5.26131
1159.05	5.7958
1160.68	5.56738
1162.3	5.31253
1163.93	5.15013
1165.55	5.88741
1167.17	6.34937
1168.8	6.10435
1170.42	6.84632
1172.05	6.71205
1173.67	8.15617
1175.29	9.49726
1176.91	10.3648
1178.54	10.5636
1180.16	12.4591
1181.78	13.2342
1183.4	13.3218
1185.02	14.0899
1186.64	13.0513
1188.26	12.6378
1189.88	13.639
1191.5	12.8572
1193.12	13.6111
1194.74	14.7448
1196.36	15.1541
1197.97	15.4055
1199.59	15.5529
1201.21	16.1805
1202.83	17.4514
1204.44	17.7863
1206.06	18.5388
1207.68	18.9421
1209.29	20.0219
1210.91	20.0989
1212.52	21.0552
1214.14	22.5958
1215.75	23.4765
1217.37	23.4941
1218.98	25.0603
1220.59	25.7272
1222.21	26.377
1223.82	27.6873
1225.43	29.5137
1227.05	30.8085
1228.66	31.5978
1230.27	31.6301
1231.88	32.2269
1233.49	32.8349
1235.1	33.2749
1236.72	32.5167
1238.33	32.6116
1239.94	34.4218
1241.55	33.9694
1243.16	34.6503
1244.76	36.1958
1246.37	36.2367
1247.98	36.5692
1249.59	36.6978
1251.2	37.0485
1252.8	36.6623
1254.41	37.9677
1256.02	37.782
1257.62	37.8273
1259.23	38.0779
1260.84	37.7232
1262.44	36.7991
1264.05	36.4755
1265.66	36.6432
1267.26	36.1494
1268.86	36.429
1270.47	36.8956
1272.07	37.3928
1273.67	37.9194
1275.28	37.5103
1276.88	36.6415
1278.48	36.469
1280.09	37.1185
1281.69	37.1581
1283.29	37.5345
1284.89	37.9144
1286.49	38.9401
1288.09	38.2347
1289.69	38.9612
1291.29	39.8489
1292.89	40.1721
1294.49	40.1162
1296.09	39.6534
1297.69	39.5861
1299.29	40.6841
1300.89	40.856
1302.49	42.1668
1304.08	42.4362
1305.68	43.5583
1307.28	44.904
1308.88	46.0943
1310.47	46.6313
1312.07	47.3266
1313.66	47.587
1315.26	47.6321
1316.85	47.4908
1318.45	48.6349
1320.04	49.7477
1321.64	49.0488
1323.23	49.6065
1324.83	50.217
1326.42	49.6992
1328.01	49.7983
1329.61	49.1078
1331.2	48.6537
1332.79	49.1394
1334.38	49.5226
1335.97	49.898
1337.56	50.542
1339.16	50.8381
1340.75	50.2374
1342.34	50.2309
1343.93	50.0832
1345.52	49.1821
1347.11	48.5562
1348.7	48.5261
1350.29	48.0839
1351.87	47.7131
1353.46	46.3393
1355.05	45.4796
1356.64	45.3063
1358.22	45.0665
1359.81	44.2955
1361.4	42.8147
1362.98	42.2437
1364.57	41.7862
1366.16	40.1022
1367.74	38.4943
1369.33	38.1217
1370.91	36.8339
1372.5	34.9658
1374.08	34.9145
1375.67	34.1969
1377.25	33.5258
1378.83	33.2859
1380.41	33.35
1382	32.9084
1383.58	32.2711
1385.16	31.7514
1386.74	30.9532
1388.33	29.9931
1389.91	29.2397
1391.49	28.3856
1393.07	27.8015
1394.65	26.7342
1396.23	26.2827
1397.81	25.5965
1399.39	25.2111
1400.97	25.5586
1402.55	25.4768
1404.13	25.057
1405.7	24.8141
1407.28	24.9364
1408.86	25.505
1410.44	26.9855
1412.01	28.3121
1413.59	29.1443
1415.17	30.5702
1416.74	31.0352
1418.32	32.2138
1419.89	32.2855
1421.47	33.5431
1423.04	34.3079
1424.62	35.8057
1426.19	37.8672
1427.77	39.1496
1429.34	40.1481
1430.91	42.2745
1432.49	43.1335
1434.06	44.4742
1435.63	45.8557
1437.2	47.0491
1438.78	47.4283
1440.35	48.8447
1441.92	50.2099
1443.49	51.0551
1445.06	50.4666
1446.63	51.434
1448.2	51.4756
1449.77	51.5619
1451.34	52.3183
1452.91	52.6293
1454.48	51.5245
1456.05	51.4735
1457.62	51.6114
1459.18	51.0474
1460.75	49.7334
1462.32	48.8955
1463.89	47.9094
1465.45	46.4532
1467.02	44.7747
1468.59	43.4845
1470.15	41.8156
1471.72	39.6084
1473.28	37.7622
1474.85	35.9926
1476.41	34.0241
1477.98	32.902
1479.54	31.7174
1481.1	28.8381
1482.67	27.3042
1484.23	26.0983
1485.79	24.9765
1487.36	23.7583
1488.92	22.2734
1490.48	20.4241
1492.04	18.9633
1493.61	17.7945
1495.17	16.5193
1496.73	15.1979
1498.29	13.4615
1499.85	12.8371
1501.41	12.373
1502.97	12.5617
1504.53	12.2206
1506.09	11.6626
1507.65	12.052
1509.2	12.3738
1510.76	11.4885
1512.32	11.4158
1513.88	11.9609
1515.43	12.5228
1516.99	12.2317
1518.55	12.9835
1520.1	13.2406
1521.66	13.5353
1523.22	14.6434
1524.77	16.1068
1526.33	16.1079
1527.88	16.957
1529.44	17.4524
1530.99	17.3725
1532.54	17.7794
1534.1	19.1313
1535.65	19.0842
1537.21	19.0332
1538.76	19.8162
1540.31	20.7011
1541.86	21.6271
1543.42	22.5076
1544.97	23.7234
1546.52	25.3659
1548.07	26.3214
1549.62	26.566
1551.17	27.5951
1552.72	28.9495
1554.27	29.9166
1555.82	31.3926
1557.37	33.2328
1558.92	34.1174
1560.47	35.5293
1562.02	36.7389
1563.56	38.4137
1565.11	39.251
1566.66	40.4099
1568.21	41.0614
1569.75	42.0184
1571.3	43.1197
1572.85	44.7404
1574.39	46.1408
1575.94	47.3547
1577.49	49.2949
1579.03	49.3692
1580.57	50.504
1582.12	50.8551
1583.66	51.636
1585.21	53.4515
1586.75	54.1033
1588.3	54.4851
1589.84	55.4545
1591.38	56.5848
1592.92	56.8171
1594.47	56.1097
1596.01	56.2231
1597.55	56.5529
1599.09	55.8364
1600.63	54.9033
1602.17	53.8615
1603.71	52.4924
1605.25	52.4796
1606.79	51.6822
1608.33	51.4893
1609.87	50.4841
1611.41	50.0949
1612.95	48.8389
1614.49	48.8553
1616.03	48.8613
1617.57	47.8488
1619.1	47.2793
1620.64	47.2929
1622.18	46.4781
1623.72	46.1444
1625.25	45.6354
1626.79	45.9348
1628.32	46.5548
1629.86	47.6101
1631.39	47.5751
1632.93	48.1611
1634.46	48.6361
1636	48.0935
1637.53	48.4583
1639.07	48.7766
1640.6	49.2974
1642.13	49.0541
1643.67	49.992
1645.2	49.7253
1646.73	49.6157
1648.26	49.3707
1649.8	49.8172
1651.33	49.6285
1652.86	49.2866
1654.39	49.1295
1655.92	49.3356
1657.45	50.2919
1658.98	50.2612
1660.51	50.1517
1662.04	50.3429
1663.57	49.2282
1665.1	48.9182
1666.63	47.9952
1668.16	46.1542
1669.68	44.4398
1671.21	42.7977
1672.74	41.3075
1674.27	40.1063
1675.79	38.4178
1677.32	36.3407
1678.85	34.9105
1680.37	33.8094
1681.9	32.6381
1683.42	30.8408
1684.95	29.6709
1686.47	27.898
1688	25.9592
1689.52	24.2886
1691.05	23.7617
1692.57	21.932
1694.09	20.3657
1695.62	20.4606
1697.14	19.8282
1698.66	18.5266
1700.18	17.735
1701.71	17.2651
1703.23	16.7835
1704.75	16.2558
1706.27	14.882
1707.79	14.0618
1709.31	13.6914
1710.83	13.3597
1712.35	12.7845
1713.87	12.6483
1715.39	12.1068
1716.91	11.7708
1718.43	11.3486
1719.95	11.4549
1721.47	10.8507
1722.99	10.5859
1724.5	10.7066
1726.02	11.8687
1727.54	11.406
1729.06	11.4999
1730.57	10.931
1732.09	11.0932
1733.61	10.6899
1735.12	10.629
1736.64	9.98002
1738.15	9.69998
1739.67	8.81597
1741.18	8.72627
1742.7	8.01212
1744.21	7.70654
1745.72	7.16114
1747.24	6.65783
1748.75	6.03074
1750.26	5.9496
1751.77	5.96382
1753.29	5.56122
1754.8	6.05009
1756.31	6.42665
1757.82	5.98292
1759.33	5.97882
1760.84	5.92678
1762.36	5.89997
1763.87	5.69332
1765.38	6.35488
1766.89	6.84089
1768.4	5.90726
1769.91	6.10339
1771.41	6.63059
1772.92	5.86075
1774.43	5.64191
1775.94	5.78457
1777.45	5.91334
1778.95	6.06021
1780.46	6.15924
1781.97	6.10432
1783.48	6.6535
1784.98	7.08472
1786.49	7.62095
1787.99	7.34027
1789.5	7.53237
1791.01	7.16185
1792.51	6.9896
1794.01	6.97651
1795.52	6.89719
1797.02	6.75695
1798.53	6.32012
1800.03	5.81652
1801.53	5.85108
1803.04	4.91487
1804.54	4.48916
1806.04	3.87616
1807.54	4.18159
1809.05	4.56227
1810.55	4.22896
1812.05	4.0318
1813.55	3.82258
1815.05	4.02962
1816.55	4.05159
1818.05	4.0129
1819.55	3.96563
1821.05	3.60775
1822.55	3.699
1824.05	3.07556
1825.55	2.69502
1827.05	2.99395
1828.55	2.72335
1830.04	2.60374
1831.54	2.05233
1833.04	1.43136
1834.54	1.41432
1836.03	1.34908
1837.53	1.70912
1839.03	1.33486
1840.52	1.17701
1842.02	1.09177
1843.51	0.998248
1845.01	1.25562
1846.5	0.964867
1848	0.852199
1849.49	0.500771
1850.99	0.575868
1852.48	0.450465
1853.97	0.74532
1855.47	0.819231
1856.96	1.17754
1858.45	0.832414
1859.94	0.916099
1861.44	0.384065
1862.93	-0.0226832
1864.42	0.472963
1865.91	0.368935
1867.4	-0.0937514
1868.89	-0.0311988
1870.38	-0.120213
1871.87	-0.399503
1873.36	-0.483595
1874.85	-0.797727
1876.34	-0.858828
1877.83	-0.352015
1879.32	0.0715168
1880.81	0.450763
1882.3	0.905745
1882.57	1.1621
1884.07	1.40923
1885.56	1.88611
1887.06	1.86212
1888.55	2.6677
1890.04	2.78867
1891.54	3.04744
1893.03	3.40821
1894.52	3.28303
1896.02	4.232
1897.51	4.5941
1899	4.83345
1900.49	5.18452
1901.98	4.79803
1903.47	4.47907
1904.96	4.32272
1906.45	4.90067
1907.94	5.47812
1909.43	5.63928
1910.92	6.01414
1912.41	5.86835
1913.9	6.20798
1915.39	5.67713
1916.88	5.65708
1918.37	5.43586
1919.85	5.26803
1921.34	5.44191
1922.83	5.15002
1924.32	5.59177
1925.8	5.94892
1927.29	6.15994
1928.78	5.55507
1930.26	5.43666
1931.75	4.89029
1933.23	4.73508
1934.72	5.15009
1936.2	5.32134
1937.69	4.82247
1939.17	4.01856
1940.66	3.18757
1942.14	2.78953
1943.63	2.52739
1945.11	2.35383
1946.59	3.16434
1948.07	3.48652
1949.56	3.56379
1951.04	4.66508
1952.52	4.38516
1954	4.88073
1955.48	4.90991
1956.96	5.04667
1958.45	5.12693
1959.93	5.28111
1961.41	5.12938
1962.89	5.61961
1964.37	5.27155
1965.85	5.45054
1967.32	5.72559
1968.8	5.06802
1970.28	5.31004
1971.76	4.98288
1973.24	4.50844
1974.72	4.37356
1976.19	4.32851
1977.67	4.48482
1979.15	4.54218
1980.63	4.58955
1982.1	4.75873
1983.58	4.90631
1985.05	4.92641
1986.53	4.94222
1988	4.96235
1989.48	4.2873
1990.95	5.09206
1992.43	5.32165
1993.9	5.16735
1995.38	5.44284
1996.85	5.33137
1998.32	5.29777
1999.8	5.72065
2001.27	5.66406
2002.74	5.44852
2004.22	5.89055
2005.69	5.89781
2007.16	5.88471
2008.63	6.47881
2010.1	6.09053
2011.57	5.97364
2013.04	6.02386
2014.51	6.24692
2015.98	6.68473
2017.45	6.75085
2018.92	6.95232
2020.39	7.68409
2021.86	7.62377
2023.33	7.83185
2024.8	8.32852
2026.27	7.5536
2027.74	7.12241
2029.2	6.42209
2030.67	6.78566
2032.14	7.0536
2033.61	6.78696
2035.07	6.65743
2036.54	6.98078
2038.01	6.77223
2039.47	6.79142
2040.94	6.85529
2042.4	6.42266
2043.87	6.92253
2045.33	6.85378
2046.8	6.45472
2048.26	6.08871
2049.72	6.73019
2051.19	6.74557
2052.65	6.87797
2054.12	7.31026
2055.58	8.04098
2057.04	8.01116
2058.5	7.89896
2059.97	8.6862
2061.43	8.54548
2062.89	8.36512
2064.35	9.01219
2065.81	9.23258
2067.27	9.3862
2068.73	9.55516
2070.19	10.0454
2071.65	10.3525
2073.11	10.6588
2074.57	10.8363
2076.03	10.1459
2077.49	10.4354
2078.95	10.5441
2080.41	10.728
2081.87	11.1184
2083.32	10.7394
2084.78	10.3368
2086.24	10.4175
2087.7	10.2288
2089.15	10.4802
2090.61	10.1041
2092.07	10.631
2093.52	10.926
2094.98	10.8794
2096.43	10.5424
2097.89	10.0888
2099.34	10.3195
2100.8	10.441
2102.25	10.8147
2103.71	11.0712
2105.16	10.6333
2106.61	10.4601
2108.07	10.5103
2109.52	10.3113
2110.97	10.4898
2112.43	10.2553
2113.88	10.5448
2115.33	10.9622
2116.78	11.4524
2118.23	12.118
2119.68	12.9365
2121.13	13.428
2122.59	14.0318
2124.04	13.7003
2125.49	13.9496
2126.94	14.3709
2128.39	14.3837
2129.83	14.3325
2131.28	14.3686
2132.73	15.032
2134.18	15.2988
2135.63	15.59
2137.08	15.9399
2138.53	16.457
2139.97	16.8693
2141.42	16.8823
2142.87	17.3611
2144.31	16.9921
2145.76	16.6522
2147.21	16.889
2148.65	16.5913
2150.1	17.6461
2151.54	18.1063
2152.99	18.3337
2154.43	18.7242
2155.88	18.9177
2157.32	19.2154
2158.77	19.5793
2160.21	19.64
2161.65	20.6113
2163.1	20.4956
2164.54	20.823
2165.98	20.8956
2167.43	20.9
2168.87	21.312
2170.31	21.9726
2171.75	22.7105
2173.19	22.072
2174.64	22.2286
2176.07	22.5871
2177.52	22.0045
2178.96	22.5115
2180.4	22.3603
2181.84	22.5546
2183.28	23.0912
2184.72	22.7123
2186.15	23.7798
2187.59	23.5868
2189.03	23.4844
2190.47	23.581
2191.91	22.5757
2193.35	21.9335
2194.78	20.9748
2196.22	21.167
2197.66	20.746
2199.09	20.1945
2200.53	19.3888
2201.97	19.6212
2203.4	19.2818
2204.84	19.3277
2206.27	18.929
2207.71	18.3824
2209.14	17.8032
2210.58	17.6164
2212.01	16.7929
2213.45	16.4112
2214.88	15.5023
2216.31	14.9006
2217.75	14.571
2219.18	14.4934
2220.61	14.544
2222.05	14.5014
2223.48	14.2524
2224.91	13.7928
2226.34	13.1131
2227.78	12.9025
2229.21	12.8159
2230.64	12.5971
2232.07	12.5778
2233.5	12.3412
2234.93	11.5991
2236.36	11.9548
2237.79	12.2203
2239.22	11.9406
2240.65	12.0495
2242.08	12.0549
2243.5	11.6695
2244.93	10.939
2246.36	10.9697
2247.79	11.3926
2249.22	11.2205
2250.64	12.003
2252.07	11.6467
2253.5	11.7052
2254.92	11.9143
2256.35	11.2478
2257.78	11.0829
2259.2	10.5718
2260.63	10.2746
2262.05	9.99898
2263.48	10.0451
2264.9	10.2984
2266.33	10.0643
2267.75	10.5593
2269.18	10.5466
2270.6	10.17
2272.02	9.97246
2273.45	10.3097
2274.87	10.2064
2276.29	10.4601
2277.71	10.6986
2279.14	11.0336
2280.56	11.0493
2281.98	10.8878
2283.4	10.4082
2284.82	10.2582
2286.24	10.2906
2287.66	10.417
2289.08	9.94236
2290.5	9.66216
2291.92	8.86294
2293.34	8.33718
2294.76	8.04067
2296.18	8.31602
2297.6	8.75375
2299.02	9.32194
2300.44	9.33202
2301.86	9.43765
2303.27	9.88422
2304.69	10.5335
2306.11	11.3067
2307.53	11.9106
2308.94	11.8905
2310.36	12.2825
2311.78	12.6315
2313.19	12.733
2314.61	12.3542
2316.02	12.3083
2317.44	12.8868
2318.85	13.1832
2320.27	12.3807
2321.68	12.3014
2323.1	11.6149
2324.51	11.652
2325.92	10.833
2327.34	9.82393
2328.75	9.63274
2330.16	9.40546
2331.58	8.84941
2332.99	8.49735
2334.4	7.99145
2335.81	7.42829
2337.23	7.06487
2338.64	6.68
2340.05	5.91587
2341.46	4.94898
2342.87	4.68541
2344.28	5.22828
2345.69	5.238
2347.1	5.5388
2348.51	5.48994
2349.92	4.99352
2351.33	4.088
2352.74	2.91211
2354.15	2.57971
2355.55	2.77628
2356.96	2.86793
2358.37	2.24973
2359.78	2.04715
2361.19	2.40204
2362.59	2.39128
2364	3.47412
2365.41	4.18306
2366.81	4.90689
2368.22	5.19681
2369.62	5.55325
2371.03	5.97897
2372.44	6.02419
2373.84	6.02873
2375.24	6.53879
2376.65	6.47485
2378.05	6.7221
2379.46	6.74996
2380.86	7.08364
2382.26	6.27461
2383.67	5.9448
2385.07	5.61662
2386.47	5.77658
2387.88	5.34272
2389.28	5.65165
2390.68	4.8152
2392.08	5.21267
2393.48	4.49384
2394.89	4.10079
2396.29	3.50553
2397.69	3.2419
2399.09	2.23445
2400.49	1.97074
2401.89	1.53182
2403.29	1.0539
2404.69	1.08232
2406.09	1.31711
2407.48	0.565988
2408.88	0.415923
2410.28	0.865406
2411.68	1.54455
2413.08	1.96698
2414.48	2.52959
2415.87	2.40163
2417.27	2.63228
2418.67	2.37006
2420.06	2.41954
2421.46	2.27542
2422.86	2.83202
2424.25	3.66224
2425.65	4.22704
2427.04	4.42443
2428.44	4.19495
2429.83	4.05042
2431.23	3.95203
2432.62	3.51017
2434.02	3.70932
2435.41	3.56386
2436.81	3.67679
2438.2	4.58946
2439.59	5.13687
2440.99	5.00502
2442.38	5.23906
2443.77	5.88583
2445.16	5.81133
2446.56	5.10907
2447.95	5.24526
2449.34	5.12286
2450.73	4.81791
2452.12	4.74608
2453.51	4.46306
2454.9	4.46572
2456.29	4.81975
2457.68	4.78292
2459.07	5.24273
2460.46	4.15716
2461.85	4.77204
2463.24	4.0865
2464.63	3.74944
2466.02	3.25793
2467.4	2.63732
2468.79	1.92778
2470.18	2.11981
2471.57	2.01067
2472.95	2.08704
2474.34	2.15134
2475.73	1.93933
2477.12	1.62507
2478.5	2.31026
2479.89	2.54488
2481.27	2.35946
2482.66	2.15141
2484.04	1.91214
2485.43	1.74227
2486.81	1.79859
2488.2	2.03236
2489.58	2.06406
2490.97	1.63182
2492.35	1.84911
2493.73	1.75126
2495.12	1.19521
2496.5	1.18139
2497.88	1.15611
2499.27	1.50254
2500.65	1.34193
2502.03	2.02305
2503.41	2.51659
2504.79	3.04911
2506.17	4.0606
2507.56	4.26118
2508.94	4.45402
2510.32	3.84004
2511.7	3.76703
2513.08	4.07791
2514.46	3.84416
2515.84	4.12874
2517.22	4.66104
2518.59	4.7525
2519.97	4.82583
2521.35	5.19937
2522.73	4.8732
2524.11	4.91109
2525.49	4.61574
2526.86	3.91538
2528.24	3.91615
2529.62	3.80289
2530.99	3.63996
2532.37	2.95804
2533.75	2.70042
2535.12	2.68986
2536.5	2.17614
2537.88	2.12087
2539.25	2.34822
2540.63	2.46616
2542	2.38609
2543.38	2.11219
2544.75	2.3037
2546.12	2.27437
2547.5	2.0858
2548.87	2.21914
2550.24	2.40053
2551.62	2.20014
2552.99	1.77303
2554.36	1.4772
2555.74	1.99201
2557.11	1.57471
2558.48	1.302
2559.85	1.46732
2561.22	1.49251
2562.59	1.54908
2563.96	1.67983
2565.34	1.69015
2566.71	1.69919
2568.08	2.29789
2569.45	2.2902
2570.82	3.03682
2572.18	2.6045
2573.55	3.67979
2574.92	3.95406
2576.29	3.62953
2577.66	3.89802
2579.03	3.67748
2580.4	4.28564
2581.77	4.79604
2583.13	4.28412
2584.5	4.21861
2585.87	4.38061
2587.23	4.56439
2588.6	4.74597
2589.97	4.47165
2591.33	4.19139
2592.7	4.27935
2594.06	4.1408
2595.43	4.26893
2596.79	4.62489
2598.16	4.57316
2599.52	4.31824
2600.89	4.55801
2602.25	4.54414
2603.62	4.39793
2604.98	4.12444
2606.34	4.46495
2607.71	4.14293
2609.07	3.76036
2610.43	3.68163
2611.79	3.40544
2613.16	3.54406
2614.52	2.95643
2615.88	3.60281
2617.24	3.13284
2618.6	2.26004
2619.96	1.835
2621.32	1.88602
2622.68	2.39561
2624.04	2.20652
2625.4	1.63991
2626.76	1.70173
2628.12	1.51634
2629.48	0.842164
2630.84	1.35585
2632.2	1.04881
2633.56	0.883186
2634.92	1.14466
2636.28	0.978349
2637.63	0.152993
2638.99	0.466487
2640.35	0.654465
2641.71	0.792356
2643.06	0.335934
2644.42	0.550847
2645.77	0.517606
2647.13	0.72991
2648.49	0.542922
2649.84	0.408059
2651.2	0.381615
2652.55	0.45248
2653.91	0.352474
2655.26	0.140015
2656.62	0.0839207
2657.97	0.277449
2659.33	0.37672
2660.68	0.534134
2662.03	0.0127404
2663.39	0.154902
2664.74	0.112284
2666.09	0.139311
2667.44	0.202013
2668.8	0.206807
2670.15	-0.201163
2671.5	-0.300014
2672.85	-0.351494
2674.2	-0.229251
2675.55	0.0166393
2676.91	0.484169
2678.26	0.409352
2679.61	0.580455
2680.96	1.01792
2682.31	0.622134
2683.66	1.07498
2685	0.657131
2686.35	1.29938
2687.7	1.60507
2689.05	1.71873
2690.4	1.8127
2691.75	1.62863
2693.1	1.72168
2694.44	1.70149
2695.79	2.34295
2697.14	2.89685
2698.49	3.38499
2699.83	3.20657
2701.18	3.46016
2702.52	3.80774
2703.87	3.99878
2705.22	4.47112
2706.56	5.66424
2707.91	6.06451
2709.25	6.06799
2710.6	7.10205
2711.94	7.4511
2713.29	7.12073
2714.63	7.54392
2715.97	7.36522
2717.32	8.14696
2718.66	8.43696
2720.01	8.50074
2721.35	8.42005
2722.69	8.47686
2724.03	8.17327
2725.38	8.10476
2726.72	7.99061
2728.06	7.45793
2729.4	7.29529
2730.74	7.51409
2732.08	7.35087
2733.42	7.12248
2734.76	6.93906
2736.1	6.40807
2737.44	6.40301
2738.78	7.10687
2740.12	7.18204
2741.46	7.20633
2742.8	7.08535
2744.14	6.49481
2745.48	5.8271
2746.82	5.69705
2748.16	5.39363
2749.49	4.80945
2750.83	4.55887
2752.17	4.38555
2753.51	4.10704
2754.84	3.394
2756.18	2.97475
2757.52	2.47349
2758.85	2.2231
2760.19	2.26668
2761.53	2.68976
2762.86	2.55122
2764.2	2.34726
2765.53	1.71255
2766.87	1.66475
2768.2	0.971515
2769.54	1.74035
2770.87	1.65155
2772.2	1.69532
2773.54	1.93312
2774.87	1.71402
2776.2	1.79483
2777.54	2.16492
2778.87	2.22408
2780.2	2.18836
2781.53	2.63741
2782.87	2.36594
2784.2	2.88349
2785.53	2.38766
2786.86	2.14843
2788.19	1.58121
2789.52	1.58818
2790.85	1.45281
2792.18	1.92735
2793.51	2.48962
2794.84	2.29505
2796.17	2.98538
2797.5	3.26974
2798.83	3.57886
2800.16	3.64924
2801.49	3.89109
2802.82	4.40223
2804.15	5.10715
2805.47	5.11985
2806.8	4.63381
2808.13	4.83087
2809.46	4.6459
2810.78	3.94044
2812.11	4.16691
2813.44	4.1525
2814.76	4.35467
2816.09	4.50781
2817.42	4.89794
2818.74	5.34052
2820.07	5.41738
2821.39	5.93462
2822.72	7.15815
2824.04	7.67412
2825.37	8.6528
2826.69	8.94276
2828.02	9.22929
2829.34	9.64501
2830.66	10.5206
2831.99	11.0304
2833.31	12.3859
2834.63	13.2046
2835.96	15.0013
2837.28	15.972
2838.6	17.2415
2839.92	18.8198
2841.24	19.9666
2842.57	21.3788
2843.89	23.2484
2845.21	24.9514
2846.53	26.7998
2847.85	29.0377
2849.17	31.3293
2850.49	33.4924
2851.81	35.8338
2853.13	38.3405
2854.45	40.7568
2855.77	43.325
2857.09	45.598
2858.41	48.2919
2859.72	51.0463
2861.04	53.0332
2862.36	55.2861
2863.68	56.7051
2865	58.6831
2866.31	60.4721
2867.63	62.4659
2868.95	64.439
2870.26	65.8368
2871.58	67.8537
2872.9	69.5148
2874.21	70.8698
2875.53	71.9305
2876.84	73.0226
2878.16	74.4342
2879.47	75.675
2880.79	76.8715
2882.1	77.9646
2883.42	79.0496
2884.73	80.2973
2886.05	81.3849
2887.36	82.141
2888.67	82.4396
2889.99	82.9852
2891.3	84.3783
2892.61	85.2778
2893.92	86.9163
2895.24	87.8717
2896.55	89.4911
2897.86	91.1007
2899.17	92.5315
2900.48	94.0901
2901.79	96.0592
2903.11	97.8148
2904.42	99.96
2905.73	101.912
2907.04	104.034
2908.35	106.624
2909.66	109.189
2910.97	111.968
2912.27	114.97
2913.58	117.861
2914.89	120.464
2916.2	122.62
2917.51	125.855
2918.82	128.422
2920.13	130.632
2921.43	132.131
2922.74	134.29
2924.05	136.264
2925.35	137.651
2926.66	138.454
2927.97	138.91
2929.27	139.293
2930.58	140.201
2931.89	140.669
2933.19	140.979
2934.5	140.473
2935.8	139.892
2937.11	139.836
2938.41	137.828
2939.72	136.282
2941.02	134.519
2942.32	133.289
2943.63	132.382
2944.93	130.609
2946.24	128.309
2947.54	126.339
2948.84	123.751
2950.14	121.469
2951.45	118.488
2952.75	115.712
2954.05	113.326
2955.35	111.364
2956.65	108.931
2957.95	106.115
2959.26	103.897
2960.56	101.198
2961.86	99.2544
2963.16	96.9034
2964.46	94.7537
2965.76	92.9284
2967.06	90.5776
2968.36	88.452
2969.66	86.5088
2970.96	84.2661
2972.25	82.4679
2973.55	80.6259
2974.85	79.0313
2976.15	77.4362
2977.45	75.622
2978.74	74.0863
2980.04	72.1968
2981.34	70.1144
2982.64	68.4422
2983.93	65.7641
2985.23	63.25
2986.52	60.7126
2987.82	58.847
2989.12	56.3232
2990.41	53.6551
2991.71	50.9373
2993	48.6408
2994.3	46.8729
2995.59	44.6788
2996.89	42.3357
2998.18	39.7385
2999.48	37.0266
3000.77	35.3143
3002.06	34.0839
3003.36	31.4935
3004.65	30.3069
3005.94	28.8493
3007.23	27.5781
3008.53	25.0034
3009.82	22.6779
3011.11	21.0132
3012.4	20.0157
3013.69	18.7268
3014.99	17.7022
3016.28	16.6193
3017.57	16.0464
3018.86	15.3873
3020.15	15.4023
3021.44	14.8822
3022.73	14.2719
3024.02	14.2609
3025.31	14.0281
3026.6	14.4012
3027.89	14.6069
3029.18	14.5405
3030.46	14.6124
3031.75	14.8388
3033.04	15.2143
3034.33	16.1242
3035.62	16.9483
3036.9	17.2857
3038.19	17.7148
3039.48	18.4717
3040.76	19.2283
3042.05	19.7246
3043.34	20.4925
3044.62	20.5546
3045.91	21.1088
3047.19	21.6767
3048.48	22.0545
3049.77	22.3596
3051.05	22.4265
3052.34	22.4745
3053.62	22.4704
3054.9	22.5054
3056.19	22.7855
3057.47	22.7498
3058.76	22.2726
3060.04	21.6609
3061.32	21.5988
3062.61	21.2823
3063.89	21.1462
3065.17	20.712
3066.45	20.6765
3067.74	19.8821
3069.02	19.7668
3070.3	19.4436
3071.58	18.4859
3072.86	18.0806
3074.14	17.7779
3075.42	16.8928
3076.7	16.5498
3077.99	15.6339
3079.26	14.726
3080.54	13.7708
3081.82	12.6607
3083.1	11.4542
3084.38	11.3212
3085.66	9.86127
3086.94	9.02819
3088.22	8.61662
3089.5	8.16895
3090.78	7.64263
3092.05	7.18941
3093.33	7.14708
3094.61	6.62933
3095.89	6.21919
3097.16	6.34668
3098.44	6.86502
3099.72	6.22799
3100.99	5.66185
3102.27	5.57521
3103.54	5.49219
3104.82	5.4978
3106.1	5.13966
3107.37	5.0749
3108.65	5.10957
3109.92	4.94581
3111.2	4.55588
3112.47	4.44208
3113.74	4.52333
3115.02	4.6083
3116.29	4.79199
3117.56	4.64575
3118.84	4.57958
3120.11	4.52349
3121.38	4.14918
3122.66	4.07703
3123.93	4.26554
3125.2	4.36663
3126.47	4.1447
3127.74	4.42683
3129.01	4.74568
3130.29	5.55522
3131.56	5.28535
3132.83	5.13596
3134.1	4.75684
3135.37	3.70115
3136.64	3.4923
3137.91	2.66069
3139.18	2.14461
3140.45	2.05952
3141.72	1.63544
3142.99	1.40392
3144.26	1.32483
3145.52	1.37126
3146.79	1.1984
3148.06	0.853946
3149.33	2.40022
