#Acq. time (s)=	45
#Accumulations=	2
#Range (cm-¹)=	200...3150
#Windows=	2
#Auto scanning=	Off
#Autofocus=	Off
#Macrospot=	Off
#AutoExposure=	Off
#Spike filter=	Multiple accum.
#Delay time (s)=	0
#Binning=	1
#Readout mode=	Signal
#DeNoise=	Off
#ICS correction=	On
#Dark correction=	Off
#Inst. Process=	Off
#Detector Gain=	Best Dynamic Range
#Detector ADC=	20 kHz       
#Detector temperature (°C)=	-69.85
#Instrument=	LabRAM HR Evol
#Detector=	Synapse
#Objective=	x100
#Grating=	600 gr/mm
#ND Filter=	100%
#Laser (nm)=	532 
#Hole=	100.021
#Range=	Auto
#Laser Pol.=	No
#Raman. Pol.=	No
#Laser Pol. (°)=	-0.0007625
#Raman Pol. (°)=	89.9995
#Collection=	Microscope
#StageXY=	Marzhauser
#StageZ=	Marzhauser
#X (µm)=	-2356.3
#Y (µm)=	230
#Z (µm)=	521.25
#Full time(mm:ss)=	3:18
#Project=	
#Sample=	
#Site=	
#Title=	Thy_10_08_43_2x_45s_532 nm_x100_100%_600 gr_mm
#Remark=	
#Date=	06.07.2022 14:51
#Acquired=	06.07.2022 14:51:18
#Base:Fit=	10.08.2022 09:46:25
#Base:Sub=	10.08.2022 09:46:49
#Filter:Polynom=	16.08.2022 10:24:56
#AxisType[0]=Intens
#AxisUnit[0]=Cnt
#AxisType[1]=Spectr
#AxisUnit[1]=1/cm
200.398	3.19839
202.213	5.00481
204.027	6.11447
205.843	6.11139
207.657	6.75818
209.47	7.08581
211.283	7.31088
213.097	7.64976
214.909	8.39483
216.721	8.20528
218.533	8.08858
220.344	7.74966
222.157	7.10177
223.967	7.17237
225.777	5.9483
227.587	5.47614
229.396	4.49832
231.205	5.24171
233.016	6.00776
234.824	5.60383
236.632	5.50908
238.439	6.44142
240.247	6.52432
242.053	7.03023
243.86	7.47907
245.666	7.94934
247.474	7.45242
249.279	7.46575
251.085	6.60714
252.889	6.01992
254.694	5.7393
256.498	5.35825
258.301	5.52068
260.105	6.49074
261.908	6.97671
263.71	7.28346
265.513	8.4554
267.315	8.73845
269.116	8.82244
270.918	9.29274
272.718	8.98944
274.519	8.70235
276.319	9.38681
278.119	10.1393
279.918	10.5518
281.718	10.8412
283.516	11.2569
285.315	11.8842
287.113	12.7168
288.911	12.6962
290.708	13.4914
292.505	13.4575
294.302	13.5623
296.098	13.7787
297.894	13.4329
299.69	13.4637
301.485	13.3261
303.278	13.6732
305.073	13.6007
306.867	13.4479
308.661	13.371
310.454	12.9278
312.247	13.0761
314.04	13.5423
315.833	13.0024
317.623	13.5775
319.415	14.0907
321.206	14.917
322.997	14.4902
324.788	14.2004
326.579	14.6216
328.367	15.1032
330.156	14.7805
331.946	15.5556
333.735	15.2566
335.523	14.3719
337.31	13.451
339.098	12.6654
340.885	10.665
342.673	9.35117
344.458	9.06131
346.244	8.4968
348.03	8.67933
349.816	9.01778
351.6	8.5583
353.385	7.79227
355.17	7.37629
356.953	6.54175
358.737	6.14435
360.521	6.12903
362.304	5.9164
364.085	6.37894
365.868	6.5646
367.65	7.03041
369.431	7.21744
371.212	7.05741
372.994	6.85337
374.773	6.43982
376.554	6.24626
378.332	5.98162
380.112	5.50583
381.892	4.94996
383.669	4.69136
385.448	4.77963
387.225	5.49555
389.003	5.49218
390.781	6.11266
392.557	7.53649
394.334	8.31884
396.109	8.68177
397.885	9.31744
399.66	9.49556
401.436	9.83441
403.211	10.2029
404.984	10.4646
406.759	11.5516
408.532	12.4827
410.306	12.2509
412.078	12.8342
413.851	13.2922
415.623	13.4415
417.395	14.34
419.166	14.3129
420.938	14.5988
422.708	14.2228
424.477	13.5277
426.248	13.4699
428.017	13.1901
429.788	12.7919
431.556	13.1805
433.326	12.9818
435.093	12.8509
436.86	12.684
438.629	12.6444
440.395	12.8893
442.163	12.9902
443.929	13.2938
445.694	13.9471
447.461	14.1291
449.226	14.5178
450.99	15.0632
452.756	15.1682
454.52	14.8996
456.285	14.6217
458.048	13.8103
459.811	13.4417
461.573	14.0616
463.337	13.8729
465.099	13.3247
466.86	13.2941
468.623	12.5801
470.384	13.1464
472.144	13.672
473.906	14.1973
475.666	14.3307
477.425	14.8329
479.184	15.1757
480.944	15.751
482.703	16.2685
484.461	15.9395
486.218	16.1756
487.975	15.9596
489.734	16.2454
491.491	16.9584
493.247	17.5736
495.003	18.561
496.759	19.0577
498.516	19.3092
500.271	20.3155
502.025	20.0009
503.779	20.8128
505.533	22.1367
507.287	22.2119
509.042	23.3541
510.795	23.0716
512.547	22.9458
514.299	23.3668
516.051	23.0571
517.803	23.0786
519.554	22.5563
521.305	22.2666
523.055	23.3016
524.805	23.444
526.555	23.6581
528.307	22.8164
530.056	21.857
531.805	21.2803
533.553	21.2217
535.301	21.0259
537.049	21.0818
538.797	20.0768
540.544	19.703
542.291	18.5698
544.037	17.369
545.783	16.5278
547.529	15.3323
549.275	14.2162
551.02	13.1439
552.765	12.2047
554.509	12.9942
556.253	11.5916
557.997	11.66
559.738	10.7537
561.482	10.4471
563.224	9.47835
564.967	9.30744
566.709	8.47279
568.451	8.40314
570.192	7.64507
571.933	6.91682
573.674	6.49477
575.415	6.50861
577.153	6.62574
578.893	6.95082
580.632	6.91603
582.371	6.66051
584.11	6.08035
585.849	5.63372
587.587	5.06029
589.323	5.06794
591.06	5.17293
592.797	4.27396
594.534	3.92585
596.271	3.45146
598.005	3.43613
599.741	4.44702
601.476	4.20749
603.211	4.42014
604.944	4.97634
606.679	4.70969
608.413	5.22927
610.147	5.45262
611.878	5.80082
613.611	5.76155
615.344	5.9665
617.077	7.10888
618.807	8.16958
620.539	8.39185
622.27	8.23442
623.999	8.10163
625.73	7.73963
627.461	7.69985
629.189	7.06169
630.919	7.75988
632.648	8.4958
634.376	8.69807
636.105	9.86609
637.833	10.9376
639.559	11.2123
641.287	12.5856
643.013	11.7283
644.74	12.2293
646.467	12.5248
648.192	13.1258
649.918	13.3442
651.642	13.1461
653.368	13.3427
655.091	13.9302
656.816	15.2369
658.538	15.5556
660.263	16.2231
661.987	17.0642
663.708	16.9613
665.432	17.2053
667.153	18.0476
668.875	18.1499
670.596	18.4959
672.318	19.2118
674.037	19.2003
675.759	19.5652
677.478	18.6474
679.196	18.8776
680.917	19.7581
682.635	20.0217
684.355	21.0307
686.072	22.2223
687.791	22.5559
689.508	24.0965
691.224	24.5012
692.942	25.2605
694.658	25.9803
696.376	27.4262
698.091	27.9608
699.805	27.9402
701.522	28.4743
703.236	28.6808
704.95	29.169
706.665	28.77
708.379	29.0602
710.093	30.0108
711.806	30.8425
713.518	31.5964
715.23	33.0639
716.943	34.4377
718.655	34.8881
720.366	36.0242
722.078	37.3071
723.788	38.6599
725.498	39.3727
727.208	40.1031
728.919	40.2282
730.628	42.4082
732.337	43.9395
734.045	45.3981
735.755	46.2117
737.463	47.851
739.17	49.9333
740.877	51.9249
742.584	53.6887
744.292	54.1057
745.998	55.7099
747.704	56.6145
749.409	58.6911
751.114	60.6627
752.819	61.783
754.526	61.7833
756.23	62.8707
757.934	64.1524
759.637	64.4248
761.34	65.3878
763.043	66.1293
764.746	67.4558
766.448	68.8441
768.152	69.6248
769.853	70.3478
771.554	71.5245
773.255	72.0246
774.956	73.0584
776.656	73.52
778.356	74.6714
780.056	74.7347
781.755	75.1742
783.454	74.9962
785.153	76.1301
786.851	77.0292
788.549	78.2475
790.247	79.1233
791.944	79.9419
793.641	81.1221
795.338	82.4176
797.034	82.8517
798.73	83.5997
800.426	84.6034
802.121	85.0489
803.817	85.5078
805.511	85.862
807.206	85.305
808.9	85.5946
810.592	85.5223
812.286	85.559
813.979	86.8499
815.672	87.4395
817.364	87.5126
819.057	88.0531
820.748	88.2638
822.44	89.2393
824.129	88.9358
825.82	88.3309
827.511	87.7245
829.201	87.275
830.891	86.9322
832.581	86.1793
834.269	86.2065
835.958	84.9851
837.646	83.5652
839.335	82.6498
841.023	82.1978
842.709	81.5134
844.396	80.4811
846.084	79.6485
847.77	78.6375
849.455	76.9774
851.141	75.3925
852.827	73.9959
854.513	73.3328
856.196	72.2058
857.881	71.1603
859.566	70.2895
861.248	69.1191
862.932	68.0314
864.616	67.1841
866.297	67.2231
867.98	67.1585
869.663	67.7936
871.343	67.2793
873.026	66.7267
874.707	64.7819
876.387	64.3033
878.068	63.1565
879.747	62.7898
881.428	61.7377
883.108	62.0344
884.786	61.7299
886.465	60.9137
888.143	60.5126
889.822	59.8809
891.498	59.757
893.177	59.9571
894.855	60.4714
896.53	60.7062
898.208	60.8417
899.883	60.6494
901.56	61.1367
903.234	60.8101
904.91	59.9051
906.584	59.3417
908.26	57.965
909.933	57.4758
911.608	58.3069
913.28	57.9682
914.955	57.2016
916.627	57.4486
918.298	57.6564
919.972	57.9313
921.643	57.453
923.315	57.8534
924.986	57.6856
926.656	57.6189
928.328	57.795
929.997	57.3568
931.668	56.9225
933.337	56.6593
935.006	56.6342
936.676	56.7161
938.344	56.2076
940.012	55.6173
941.681	54.8591
943.348	54.2739
945.014	53.2279
946.683	52.5785
948.349	51.6943
950.015	50.816
951.682	50.0522
953.347	49.5264
955.012	47.1976
956.676	44.5591
958.343	42.8622
960.006	42.7454
961.67	42.366
963.333	43.6368
964.998	43.6371
966.661	43.7013
968.323	43.3669
969.985	43.5918
971.649	44.3525
973.31	44.455
974.971	44.5663
976.632	44.2593
978.293	44.728
979.953	44.1586
981.615	44.238
983.274	44.0425
984.933	43.592
986.592	43.3954
988.251	43.2761
989.909	43.0336
991.567	42.9648
993.225	43.5352
994.884	43.7422
996.541	43.1425
998.198	43.9752
999.855	43.6558
1001.51	43.2091
1003.17	43.5486
1004.82	42.5091
1006.48	42.2178
1008.13	42.6137
1009.79	42.7367
1011.44	42.2798
1013.1	41.5657
1014.75	40.9632
1016.4	39.9816
1018.06	39.0572
1019.71	37.9764
1021.36	37.2804
1023.01	35.6762
1024.66	33.7708
1026.32	32.8523
1027.97	31.5648
1029.62	30.2796
1031.27	29.7336
1032.92	29.1061
1034.57	28.8254
1036.22	28.3531
1037.87	26.907
1039.52	26.3156
1041.16	26.8598
1042.81	27.0671
1044.46	28.5041
1046.11	29.1843
1047.76	27.4117
1049.4	27.2187
1051.05	27.7177
1052.7	28.0861
1054.34	27.3527
1055.99	26.6535
1057.63	25.9789
1059.28	24.8456
1060.92	24.8725
1062.57	24.5979
1064.21	24.4428
1065.85	23.7563
1067.5	23.7436
1069.14	24.0724
1070.78	23.8062
1072.43	23.7506
1074.07	24.2091
1075.71	24.484
1077.35	24.0834
1078.99	23.4978
1080.63	23.4107
1082.27	22.3225
1083.91	22.7421
1085.55	22.8524
1087.19	22.8856
1088.83	22.6015
1090.47	22.849
1092.11	22.3528
1093.75	21.9416
1095.39	21.6977
1097.03	21.1121
1098.66	20.3154
1100.3	20.3174
1101.94	20.5174
1103.57	20.1915
1105.21	19.2955
1106.84	19.0825
1108.48	19.2606
1110.11	18.6083
1111.75	18.3883
1113.38	18.7311
1115.02	17.97
1116.65	17.4672
1118.29	16.1729
1119.92	14.8243
1121.55	14.0826
1123.19	12.5627
1124.82	11.538
1126.45	10.8536
1128.08	8.3189
1129.71	7.51708
1131.34	7.84051
1132.97	7.00167
1134.6	5.94498
1136.23	5.35235
1137.86	4.60932
1139.49	4.64312
1141.12	4.58974
1142.75	4.75685
1144.38	5.10979
1146.01	4.7777
1147.64	4.61515
1149.26	4.40944
1150.89	3.99069
1152.52	4.41179
1154.15	4.70885
1155.77	4.93557
1157.4	4.61365
1159.02	4.06974
1160.65	4.2723
1162.27	5.04269
1163.9	5.17552
1165.52	5.44582
1167.15	5.90136
1168.77	5.90679
1170.39	5.94874
1172.02	6.73817
1173.64	7.4375
1175.26	8.82803
1176.89	9.74865
1178.51	10.006
1180.13	9.91933
1181.75	11.2609
1183.37	12.9471
1184.99	13.3288
1186.61	14.4674
1188.23	14.7324
1189.85	14.7491
1191.47	14.8617
1193.09	15.3047
1194.71	16.2396
1196.33	15.8146
1197.94	16.3102
1199.56	17.2649
1201.18	17.7134
1202.8	18.0893
1204.41	18.4559
1206.03	19.5441
1207.65	19.9953
1209.26	21.1595
1210.88	22.5689
1212.49	22.9885
1214.11	23.8673
1215.72	24.6503
1217.34	25.294
1218.95	26.1281
1220.57	27.7679
1222.18	28.0871
1223.79	28.6866
1225.41	30.1535
1227.02	31.1966
1228.63	31.6628
1230.24	32.6705
1231.85	34.0421
1233.47	35.6408
1235.08	36.6
1236.69	37.8007
1238.3	38.5244
1239.91	40.029
1241.52	41.1642
1243.13	42.7739
1244.74	44.2941
1246.34	45.1392
1247.95	46.5179
1249.56	47.6668
1251.17	49.2416
1252.78	49.5387
1254.38	50.7118
1255.99	50.5302
1257.6	50.4467
1259.2	50.2854
1260.81	50.6758
1262.42	51.321
1264.02	51.825
1265.63	51.9431
1267.23	52.0066
1268.84	51.9958
1270.44	52.8465
1272.04	53.3781
1273.65	53.337
1275.25	54.6783
1276.85	54.3425
1278.46	54.9726
1280.06	55.1761
1281.66	54.9684
1283.26	55.1806
1284.86	55.47
1286.46	55.4338
1288.07	55.4872
1289.67	55.5803
1291.27	55.274
1292.87	55.8488
1294.47	56.3193
1296.06	56.4636
1297.66	57.0046
1299.26	58.1955
1300.86	58.31
1302.46	59.0695
1304.06	59.8648
1305.65	60.2503
1307.25	61.1702
1308.85	60.7158
1310.44	62.3988
1312.04	63.1566
1313.64	63.4893
1315.23	64.6541
1316.83	65.3555
1318.42	65.3793
1320.02	65.592
1321.61	65.2577
1323.2	65.6622
1324.8	65.1395
1326.39	64.9537
1327.99	64.734
1329.58	63.7259
1331.17	63.1911
1332.76	62.5551
1334.36	61.8226
1335.95	60.728
1337.54	60.2351
1339.13	59.7106
1340.72	58.9087
1342.31	58.2067
1343.9	57.7962
1345.49	56.8966
1347.08	55.6524
1348.67	54.6398
1350.26	53.5197
1351.85	52.0017
1353.43	50.8011
1355.02	50.3159
1356.61	48.333
1358.2	46.9446
1359.78	46.0199
1361.37	45.0908
1362.96	44.0215
1364.54	42.9195
1366.13	41.5654
1367.71	39.8121
1369.3	38.5203
1370.88	36.7118
1372.47	36.1667
1374.05	35.1817
1375.64	33.9319
1377.22	32.1677
1378.8	31.3835
1380.39	30.5254
1381.97	30.8498
1383.55	30.2766
1385.13	30.0972
1386.72	30.6775
1388.3	29.9026
1389.88	29.788
1391.46	28.8576
1393.04	27.9915
1394.62	27.9368
1396.2	26.9687
1397.78	26.1187
1399.36	25.3549
1400.94	24.8985
1402.52	25.7894
1404.1	26.7347
1405.68	28.085
1407.25	28.6088
1408.83	30.054
1410.41	32.0075
1411.98	32.9306
1413.56	34.3937
1415.14	36.1987
1416.71	38.2407
1418.29	41.5186
1419.87	43.5517
1421.44	45.1095
1423.02	47.257
1424.59	49.7286
1426.16	52.2979
1427.74	55.556
1429.31	58.7529
1430.89	61.2225
1432.46	63.7648
1434.03	65.9346
1435.6	67.3804
1437.18	68.6929
1438.75	70.1139
1440.32	71.3124
1441.89	71.8794
1443.46	73.0291
1445.03	73.5164
1446.6	73.5165
1448.17	73.4777
1449.74	73.4254
1451.31	74.4439
1452.88	73.2111
1454.45	72.4182
1456.02	71.0633
1457.59	70.668
1459.16	69.4272
1460.72	67.6923
1462.29	65.7272
1463.86	62.7623
1465.43	59.13
1466.99	54.8809
1468.56	51.0687
1470.13	47.5815
1471.69	44.7814
1473.26	41.3638
1474.82	37.5105
1476.38	33.9608
1477.95	31.6333
1479.51	29.1817
1481.08	27.8484
1482.64	26.2584
1484.2	24.3432
1485.77	22.1648
1487.33	20.9078
1488.89	19.478
1490.46	17.4671
1492.02	16.5958
1493.58	15.3981
1495.14	15.165
1496.7	14.5388
1498.26	13.2443
1499.82	12.1438
1501.38	12.344
1502.94	12.5838
1504.5	12.2726
1506.06	12.4023
1507.62	11.6265
1509.18	11.3966
1510.73	11.5228
1512.29	11.449
1513.85	11.2887
1515.41	10.9024
1516.96	11.5362
1518.52	12.7616
1520.08	13.3958
1521.63	15.2211
1523.19	15.2977
1524.75	16.1228
1526.3	17.0301
1527.85	18.2189
1529.41	18.7252
1530.96	17.7666
1532.52	18.2144
1534.07	17.7351
1535.62	17.8596
1537.18	18.3256
1538.73	18.2687
1540.28	19.2748
1541.84	18.8561
1543.39	19.5651
1544.94	19.7917
1546.49	20.9169
1548.04	22.1868
1549.59	23.7246
1551.14	23.7458
1552.69	25.187
1554.25	26.5704
1555.79	28.5401
1557.34	28.3415
1558.89	29.4981
1560.44	30.9793
1561.99	31.9813
1563.54	33.2158
1565.08	34.0288
1566.63	34.4193
1568.18	34.8965
1569.73	36.9715
1571.27	38.6206
1572.82	39.4276
1574.37	40.3467
1575.91	41.2362
1577.46	42.3096
1579	44.0503
1580.55	45.2552
1582.09	45.8589
1583.64	47.4471
1585.18	48.1159
1586.73	49.6673
1588.27	50.4229
1589.81	50.6397
1591.35	50.6915
1592.9	51.396
1594.44	52.0077
1595.98	52.1845
1597.52	52.6245
1599.06	53.527
1600.61	52.562
1602.15	52.402
1603.69	51.6165
1605.23	51.4035
1606.77	51.1197
1608.31	51.2735
1609.85	51.4998
1611.39	50.2933
1612.93	50.3299
1614.46	51.2659
1616	51.0462
1617.54	51.1217
1619.08	50.4548
1620.61	50.6323
1622.15	50.9506
1623.69	51.6745
1625.23	52.2141
1626.76	52.7337
1628.3	53.1091
1629.83	54.2708
1631.37	55.1408
1632.9	56.13
1634.44	57.1248
1635.97	59.2433
1637.51	61.5085
1639.04	62.6243
1640.57	63.5713
1642.11	64.3732
1643.64	66.7441
1645.17	69.1113
1646.71	71.7904
1648.24	73.2203
1649.77	75.0019
1651.3	77.0531
1652.83	78.3459
1654.36	79.8115
1655.89	80.856
1657.42	80.8723
1658.96	81.1479
1660.48	81.021
1662.01	80.8353
1663.54	80.95
1665.07	79.868
1666.6	78.8513
1668.13	77.8623
1669.66	76.9236
1671.19	75.3658
1672.71	74.3907
1674.24	73.2547
1675.77	70.7622
1677.29	67.9419
1678.82	65.889
1680.35	63.6905
1681.87	61.5501
1683.4	58.7424
1684.92	55.7495
1686.45	52.3033
1687.97	48.8925
1689.5	47.2909
1691.02	44.4296
1692.54	40.8521
1694.07	38.2133
1695.59	35.9317
1697.11	33.8723
1698.64	31.9838
1700.16	29.5036
1701.68	27.3677
1703.2	25.8958
1704.72	24.2775
1706.25	22.8334
1707.77	21.5435
1709.29	20.46
1710.81	19.1324
1712.33	17.7544
1713.85	17.1551
1715.37	15.9762
1716.89	15.2719
1718.41	14.418
1719.92	14.5599
1721.44	13.8176
1722.96	13.414
1724.48	12.7932
1725.99	12.461
1727.51	11.7971
1729.03	11.6239
1730.55	11.7066
1732.06	11.3647
1733.58	10.7944
1735.09	10.7197
1736.61	10.2367
1738.13	10.5473
1739.64	10.0562
1741.15	9.66702
1742.67	9.63375
1744.18	9.3351
1745.7	9.01262
1747.21	8.00883
1748.72	7.72499
1750.24	7.22899
1751.75	6.4502
1753.26	6.08727
1754.77	5.77665
1756.29	5.31355
1757.8	4.88492
1759.31	4.65102
1760.82	4.32437
1762.33	4.27075
1763.84	3.80167
1765.35	3.40663
1766.86	2.85996
1768.37	3.15023
1769.88	3.18633
1771.39	2.72772
1772.9	2.44497
1774.4	2.24592
1775.91	2.04854
1777.42	1.74632
1778.93	1.71767
1780.44	1.34525
1781.94	1.52615
1783.45	1.91192
1784.96	1.80826
1786.46	1.51927
1787.97	0.964576
1789.47	0.611897
1790.98	-0.075544
1792.48	-0.0238795
1793.99	-0.0594505
1795.49	0.334572
1797	0.429
1798.5	0.688339
1800.01	1.23823
1801.51	1.7969
1803.01	2.54887
1804.51	2.64232
1806.02	2.58194
1807.52	2.23464
1809.02	1.99216
1810.52	2.4707
1812.02	2.32236
1813.52	2.48155
1815.02	2.51692
1816.53	2.48955
1818.03	2.30662
1819.52	1.95907
1821.02	1.50216
1822.52	0.894972
1824.02	1.29319
1825.52	1.15173
1827.02	0.911855
1828.52	0.887423
1830.02	0.672814
1831.51	0.336941
1833.01	0.0404512
1834.51	0.245462
1836.01	0.369741
1837.5	0.363556
1839	0.70578
1840.49	1.1368
1841.99	2.03415
1843.49	2.33467
1844.98	2.13542
1846.48	2.10954
1847.97	2.2617
1849.47	2.658
1850.96	3.03545
1852.45	3.16402
1853.95	3.26897
1855.44	3.87236
1856.93	4.19605
1858.42	4.08791
1859.92	3.89179
1861.41	3.98633
1862.9	3.75721
1864.39	4.29147
1865.88	4.38263
1867.38	4.65342
1868.87	4.71934
1870.36	4.39916
1871.85	4.39108
1873.34	4.69858
1874.83	4.70012
1876.32	5.01133
1877.81	5.17336
1879.29	5.01621
1880.78	5.05302
1882.27	4.8608
1882.53	4.62551
1884.03	4.19785
1885.52	3.69336
1887.01	4.00191
1888.51	3.69067
1890	2.97849
1891.5	2.96296
1892.99	2.64958
1894.48	2.62265
1895.97	2.36787
1897.47	2.584
1898.96	2.72772
1900.45	2.39765
1901.94	2.02008
1903.43	2.45316
1904.92	3.01248
1906.41	3.00482
1907.9	3.92634
1909.39	3.58511
1910.88	4.07762
1912.37	4.80868
1913.86	5.52228
1915.35	5.43114
1916.84	5.61366
1918.33	4.78152
1919.81	5.09755
1921.3	5.76703
1922.79	6.00452
1924.28	6.13743
1925.76	6.09341
1927.25	5.81503
1928.73	6.15082
1930.22	5.73369
1931.71	5.26215
1933.19	5.5253
1934.68	6.06714
1936.16	6.0624
1937.65	6.2256
1939.13	6.04545
1940.62	6.25412
1942.1	6.89735
1943.58	6.86738
1945.07	7.0386
1946.55	7.69654
1948.03	7.85417
1949.51	8.17413
1951	8.19853
1952.48	8.19226
1953.96	8.11236
1955.44	8.44647
1956.92	8.57053
1958.4	8.92434
1959.88	9.74249
1961.36	10.5798
1962.84	10.1877
1964.32	10.7499
1965.8	11.3391
1967.28	11.6206
1968.76	11.792
1970.24	12.1108
1971.72	12.474
1973.2	12.9327
1974.67	12.7543
1976.15	13.6575
1977.63	14.5144
1979.1	14.7379
1980.58	14.6605
1982.06	14.9691
1983.54	14.9345
1985.01	15.4197
1986.49	14.7702
1987.96	15.248
1989.44	15.1917
1990.91	15.315
1992.39	14.7227
1993.86	14.9624
1995.33	14.9135
1996.81	14.3964
1998.28	13.8486
1999.75	13.7068
2001.23	13.3787
2002.7	13.3776
2004.17	13.4679
2005.65	13.2911
2007.12	14.2462
2008.59	14.0692
2010.06	13.7139
2011.53	13.836
2013	13.9525
2014.47	13.7222
2015.94	13.7823
2017.41	13.5353
2018.88	13.7919
2020.35	14.2543
2021.82	14.3147
2023.29	14.4812
2024.76	15.3166
2026.23	15.524
2027.69	15.8217
2029.16	16.1563
2030.63	16.5354
2032.1	16.0434
2033.56	16.1891
2035.03	16.4704
2036.5	16.7254
2037.96	17.3617
2039.43	17.3483
2040.89	17.2529
2042.36	17.4591
2043.83	18.2021
2045.29	18.0838
2046.75	19.0021
2048.22	19.1536
2049.68	19.5277
2051.15	19.245
2052.61	19.35
2054.07	19.2224
2055.54	19.5035
2057	19.4148
2058.46	19.2868
2059.92	19.0074
2061.39	19.359
2062.85	18.8922
2064.31	17.8743
2065.77	17.3902
2067.23	17.2114
2068.69	16.7656
2070.15	15.8736
2071.61	15.5264
2073.07	15.9554
2074.53	15.6809
2075.99	16.0075
2077.45	15.7365
2078.91	15.3515
2080.37	15.6661
2081.82	14.9337
2083.28	14.7946
2084.74	14.7959
2086.2	14.7043
2087.65	14.6034
2089.11	15.0538
2090.57	15.5432
2092.02	15.0946
2093.48	15.0508
2094.94	15.6864
2096.39	15.902
2097.85	16.0367
2099.3	15.4974
2100.76	15.6791
2102.21	15.9067
2103.66	16.5572
2105.12	16.7889
2106.57	18.1373
2108.03	19.0128
2109.48	20.4429
2110.93	20.2821
2112.38	20.5366
2113.84	21.4503
2115.29	21.9707
2116.74	22.5996
2118.19	23.2223
2119.64	23.8747
2121.09	23.7148
2122.54	24.4747
2123.99	25.11
2125.45	25.7399
2126.89	26.4544
2128.34	27.1715
2129.79	27.1863
2131.24	27.7958
2132.69	27.6389
2134.14	27.6149
2135.59	27.8101
2137.04	27.8624
2138.48	28.8289
2139.93	28.967
2141.38	29.1115
2142.83	29.8124
2144.27	30.9385
2145.72	31.5445
2147.17	32.3208
2148.61	33.1358
2150.06	33.1236
2151.5	33.8719
2152.95	34.5997
2154.39	34.991
2155.84	35.5545
2157.28	36.4067
2158.73	37.1135
2160.17	37.9208
2161.61	38.3997
2163.06	38.8707
2164.5	39.2552
2165.94	39.6375
2167.38	40.0898
2168.83	40.3438
2170.27	40.6648
2171.71	40.9075
2173.15	41.2981
2174.59	41.5293
2176.03	41.5264
2177.47	41.1153
2178.91	41.1736
2180.36	41.5383
2181.8	40.9703
2183.23	40.3064
2184.67	40.0122
2186.11	39.5929
2187.55	38.6245
2188.99	38.4941
2190.43	37.5014
2191.87	36.3814
2193.3	35.685
2194.74	35.202
2196.18	34.6068
2197.62	34.0734
2199.05	33.657
2200.49	32.9857
2201.93	31.8747
2203.36	31.1989
2204.8	30.2636
2206.23	29.5242
2207.67	29.2582
2209.1	28.5258
2210.54	28.1538
2211.97	26.6831
2213.41	26.2761
2214.84	25.9242
2216.27	25.1546
2217.71	24.2512
2219.14	24.2184
2220.57	23.3727
2222.01	22.7789
2223.44	23.0744
2224.87	23.6347
2226.3	23.2206
2227.73	23.1294
2229.16	23.4356
2230.6	23.3362
2232.03	23.5021
2233.46	23.0559
2234.89	23.0238
2236.32	22.4457
2237.75	21.8053
2239.18	21.5999
2240.61	21.5121
2242.03	21.0404
2243.46	21.0525
2244.89	20.9909
2246.32	21.1311
2247.75	21.0634
2249.17	21.3327
2250.6	21.5311
2252.03	21.1293
2253.46	20.2004
2254.88	20.5352
2256.31	20.064
2257.73	20.2146
2259.16	19.6579
2260.59	19.7026
2262.01	19.4445
2263.44	19.7479
2264.86	19.7162
2266.29	20.0571
2267.71	19.7273
2269.14	19.8515
2270.56	19.6377
2271.98	19.3211
2273.4	19.2905
2274.83	18.9694
2276.25	18.385
2277.67	18.2591
2279.09	18.0976
2280.52	17.8545
2281.94	17.7118
2283.36	17.3224
2284.78	17.4128
2286.2	17.161
2287.62	16.9978
2289.04	17.0478
2290.46	16.9139
2291.88	15.9015
2293.3	15.951
2294.72	15.8748
2296.14	16.0006
2297.56	15.4469
2298.98	16.0402
2300.4	16.1926
2301.82	16.1188
2303.23	16.4132
2304.65	16.2007
2306.07	16.0586
2307.49	15.4842
2308.9	15.3336
2310.32	15.1561
2311.73	15.5728
2313.15	15.5759
2314.57	15.5791
2315.98	15.2286
2317.4	14.7201
2318.81	14.2126
2320.23	13.8253
2321.64	13.3144
2323.06	12.9406
2324.47	13.0186
2325.88	12.9116
2327.3	13.1451
2328.71	13.1264
2330.12	12.7399
2331.54	12.3393
2332.95	12.0738
2334.36	11.5847
2335.77	10.9865
2337.18	10.7956
2338.6	10.5015
2340.01	10.4814
2341.42	10.1309
2342.83	10.0197
2344.24	9.86783
2345.65	9.90374
2347.06	10.3034
2348.47	10.5547
2349.88	10.7623
2351.29	10.6617
2352.7	9.97241
2354.1	9.41307
2355.51	8.91102
2356.92	9.08521
2358.33	8.39871
2359.74	8.12974
2361.14	7.58614
2362.55	7.43249
2363.96	8.24147
2365.36	8.11759
2366.77	8.88262
2368.18	9.11117
2369.58	9.13348
2370.99	8.6011
2372.39	8.5891
2373.8	8.49107
2375.2	8.77346
2376.61	8.31609
2378.01	7.4194
2379.42	7.04102
2380.82	6.53544
2382.22	6.17934
2383.63	5.60113
2385.03	5.36233
2386.43	5.38608
2387.84	5.39307
2389.24	5.09913
2390.64	5.10649
2392.04	5.13528
2393.44	4.83752
2394.84	4.60642
2396.25	4.56377
2397.65	5.26073
2399.05	5.07639
2400.45	4.79683
2401.85	4.75041
2403.25	5.60465
2404.65	5.85778
2406.05	6.3128
2407.45	6.31052
2408.84	6.43576
2410.24	6.63227
2411.64	7.88631
2413.04	8.36119
2414.44	9.42463
2415.83	10.3748
2417.23	10.5092
2418.63	10.5304
2420.02	10.6772
2421.42	10.4259
2422.82	10.2152
2424.21	10.4646
2425.61	10.715
2427	11.2729
2428.4	10.7417
2429.8	11.315
2431.19	11.6572
2432.58	11.7884
2433.98	11.6037
2435.37	11.136
2436.77	11.2612
2438.16	10.7273
2439.55	10.0293
2440.95	10.5399
2442.34	11.5207
2443.73	11.0921
2445.12	10.8987
2446.51	10.0451
2447.91	9.65541
2449.3	9.2872
2450.69	9.05384
2452.08	9.11069
2453.47	9.32147
2454.86	9.98126
2456.25	9.50957
2457.64	8.8074
2459.03	8.24359
2460.42	8.00205
2461.81	7.50702
2463.2	7.19416
2464.59	7.00547
2465.98	7.13029
2467.36	7.28762
2468.75	6.92132
2470.14	6.41479
2471.53	6.32802
2472.92	6.0724
2474.3	5.20441
2475.69	4.22052
2477.08	3.49735
2478.46	3.79625
2479.85	3.92007
2481.23	4.06512
2482.62	3.35603
2484	3.06689
2485.39	2.4507
2486.77	1.95271
2488.16	1.97892
2489.54	1.8286
2490.93	1.55286
2492.31	1.58583
2493.69	1.33027
2495.08	1.20757
2496.46	0.869015
2497.84	0.192858
2499.23	0.68895
2500.61	0.35874
2501.99	-0.354095
2503.37	-0.526161
2504.75	-0.0760258
2506.13	-0.125608
2507.52	-0.051955
2508.9	0.483744
2510.28	1.83683
2511.66	1.67121
2513.04	1.13853
2514.42	1.63495
2515.8	1.88194
2517.18	1.79272
2518.55	1.57366
2519.93	1.82785
2521.31	1.89036
2522.69	1.75955
2524.07	1.63575
2525.45	1.38148
2526.82	1.28103
2528.2	1.31916
2529.58	1.14686
2530.95	1.10656
2532.33	1.43609
2533.71	1.22744
2535.08	1.45395
2536.46	1.64779
2537.84	1.53647
2539.21	1.4949
2540.59	1.59158
2541.96	1.69799
2543.34	1.30872
2544.71	1.57815
2546.08	2.13679
2547.46	2.7311
2548.83	2.97055
2550.2	3.07835
2551.58	3.52556
2552.95	3.61692
2554.32	3.70673
2555.7	3.8431
2557.07	4.64122
2558.44	4.64351
2559.81	4.43206
2561.18	4.52682
2562.55	4.35796
2563.93	4.43715
2565.3	4.08669
2566.67	4.19805
2568.04	4.41025
2569.41	4.24142
2570.78	4.45401
2572.15	4.25258
2573.51	4.36858
2574.88	4.06899
2576.25	3.94223
2577.62	4.06898
2578.99	4.06101
2580.36	3.55831
2581.73	3.46856
2583.09	3.60236
2584.46	3.69775
2585.83	2.95692
2587.19	2.65181
2588.56	2.65063
2589.93	2.27172
2591.29	1.88127
2592.66	2.08431
2594.02	1.58791
2595.39	1.42067
2596.75	1.36573
2598.12	1.42782
2599.48	1.6654
2600.85	1.7047
2602.21	1.49344
2603.58	1.64378
2604.94	1.44151
2606.3	1.48385
2607.67	1.58482
2609.03	1.15802
2610.39	0.963243
2611.76	0.0937362
2613.12	0.0876061
2614.48	0.543101
2615.84	0.25153
2617.2	0.139741
2618.56	-0.236876
2619.92	0.046176
2621.28	-0.438143
2622.65	-0.178376
2624.01	0.329865
2625.37	0.231158
2626.72	-0.227253
2628.08	-0.155528
2629.44	-0.0919791
2630.8	0.268367
2632.16	0.203984
2633.52	0.679505
2634.88	0.603659
2636.24	0.899452
2637.59	1.04445
2638.95	0.717285
2640.31	0.931608
2641.67	0.94717
2643.02	0.609722
2644.38	0.925087
2645.74	0.761613
2647.09	1.32278
2648.45	1.69138
2649.8	1.87992
2651.16	1.94482
2652.51	2.07686
2653.87	1.69449
2655.22	2.05389
2656.58	2.83778
2657.93	2.48923
2659.29	2.60942
2660.64	2.84956
2661.99	3.30411
2663.35	3.87546
2664.7	3.94959
2666.05	4.47655
2667.41	4.59154
2668.76	4.29781
2670.11	4.76914
2671.46	4.9212
2672.81	4.96143
2674.16	5.09228
2675.51	5.14223
2676.87	4.89395
2678.22	4.55224
2679.57	4.70014
2680.92	5.23466
2682.27	5.33803
2683.62	4.43074
2684.97	4.9082
2686.31	4.93779
2687.66	5.46841
2689.01	5.1113
2690.36	5.48423
2691.71	5.54779
2693.06	5.12831
2694.4	5.21672
2695.75	5.52327
2697.1	5.86991
2698.45	6.36159
2699.79	6.23539
2701.14	6.37001
2702.49	6.22367
2703.83	6.66473
2705.18	6.45372
2706.52	6.27247
2707.87	6.23519
2709.21	5.91989
2710.56	6.04461
2711.9	6.48129
2713.25	6.45355
2714.59	7.10997
2715.94	7.07263
2717.28	7.18949
2718.62	7.54038
2719.97	8.05297
2721.31	8.09592
2722.65	8.63361
2723.99	8.71763
2725.34	8.37844
2726.68	8.5729
2728.02	8.90713
2729.36	9.3068
2730.7	9.1756
2732.04	9.43249
2733.39	9.835
2734.73	9.71635
2736.07	9.66788
2737.41	10.5164
2738.75	10.0081
2740.08	9.61297
2741.43	9.50514
2742.76	9.40336
2744.1	8.83545
2745.44	8.07346
2746.78	8.17394
2748.12	7.38991
2749.46	7.12137
2750.79	6.71534
2752.13	6.89504
2753.47	6.42913
2754.81	6.06934
2756.14	5.41288
2757.48	5.01539
2758.81	4.56157
2760.15	4.28205
2761.49	3.84704
2762.82	4.1843
2764.16	3.74765
2765.49	2.95359
2766.83	2.37664
2768.16	2.00393
2769.5	1.42561
2770.83	0.745023
2772.16	0.151498
2773.5	0.445484
2774.83	0.771627
2776.17	0.794549
2777.5	0.4891
2778.83	0.776896
2780.16	0.836388
2781.5	0.730012
2782.83	0.780917
2784.16	1.0475
2785.49	0.858873
2786.82	0.987045
2788.15	1.05342
2789.49	1.14691
2790.82	1.25085
2792.15	1.44969
2793.48	1.19446
2794.81	1.2555
2796.14	1.48998
2797.46	1.44495
2798.79	1.3524
2800.12	1.49936
2801.45	1.39065
2802.78	1.18225
2804.11	1.26263
2805.44	0.850803
2806.76	0.70892
2808.09	0.678633
2809.42	0.412849
2810.75	0.649163
2812.07	0.600571
2813.4	1.23339
2814.73	1.41289
2816.05	2.21894
2817.38	2.66407
2818.7	3.34976
2820.03	4.14114
2821.36	5.04405
2822.68	6.69785
2824.01	7.93468
2825.33	10.0033
2826.65	11.2504
2827.98	13.1866
2829.3	15.3485
2830.63	17.2553
2831.95	19.2241
2833.27	21.5972
2834.6	24.2718
2835.92	26.9722
2837.24	30.498
2838.56	34.7133
2839.88	38.1971
2841.21	41.1864
2842.53	44.7401
2843.85	48.2139
2845.17	52.7278
2846.49	56.7942
2847.81	61.1863
2849.13	66.2942
2850.45	71.1057
2851.77	76.05
2853.09	81.4838
2854.41	86.0639
2855.73	90.6663
2857.05	95.067
2858.37	99.6046
2859.69	103.728
2861	108.437
2862.32	112.453
2863.64	116.235
2864.96	119.854
2866.28	124.018
2867.59	127.767
2868.91	130.499
2870.23	134.071
2871.54	137.285
2872.86	139.708
2874.17	142.963
2875.49	145.729
2876.81	147.972
2878.12	150.317
2879.44	152.788
2880.75	154.597
2882.07	156.65
2883.38	158.735
2884.69	160.663
2886.01	162.779
2887.32	165.036
2888.63	167.082
2889.95	168.881
2891.26	170.834
2892.57	172.611
2893.89	174.961
2895.2	177.028
2896.51	179.353
2897.82	182.352
2899.13	185.895
2900.44	189.515
2901.76	193.279
2903.07	197.264
2904.38	201.876
2905.69	206.425
2907	211.771
2908.31	217.61
2909.62	223.091
2910.93	230.111
2912.24	235.767
2913.55	241.661
2914.85	248.037
2916.16	253.164
2917.47	258.923
2918.78	264.107
2920.09	268.462
2921.4	272.626
2922.7	276.402
2924.01	279.747
2925.32	282.045
2926.62	284.295
2927.93	285.376
2929.24	286.869
2930.54	287.351
2931.85	287.65
2933.15	286.591
2934.46	284.939
2935.76	283.645
2937.07	281.568
2938.37	278.476
2939.68	275.4
2940.98	271.299
2942.29	266.978
2943.59	262.941
2944.89	258.736
2946.2	253.536
2947.5	248.923
2948.8	243.729
2950.11	238.397
2951.41	233.089
2952.71	228.043
2954.01	222.414
2955.32	217.176
2956.62	211.643
2957.92	206.456
2959.22	201.242
2960.52	196.764
2961.82	191.567
2963.12	187.64
2964.42	182.583
2965.72	178.273
2967.02	173.937
2968.32	170.2
2969.62	167.129
2970.92	163.598
2972.22	159.837
2973.51	156.923
2974.81	154.025
2976.11	150.314
2977.41	145.757
2978.71	142.134
2980	138.859
2981.3	134.375
2982.6	130.835
2983.9	127.206
2985.19	122.406
2986.49	118.004
2987.78	113.048
2989.08	108.135
2990.38	103.594
2991.67	98.8559
2992.97	94.6582
2994.26	90.2342
2995.56	85.2769
2996.85	81.2163
2998.14	76.9458
2999.44	72.8821
3000.73	69.0496
3002.03	65.5325
3003.32	61.5213
3004.61	58.0509
3005.91	54.8388
3007.2	52.0183
3008.49	49.4133
3009.78	46.8572
3011.07	44.066
3012.37	42.0779
3013.66	39.5837
3014.95	37.6541
3016.24	35.8619
3017.53	34.3357
3018.82	32.2584
3020.11	31.4264
3021.4	29.7209
3022.69	28.2489
3023.98	26.9487
3025.27	26.0533
3026.56	24.6397
3027.85	24.0259
3029.14	23.1012
3030.43	23.1682
3031.71	22.7163
3033	22.7512
3034.29	23.1859
3035.58	23.5241
3036.87	24.163
3038.15	24.5226
3039.44	24.3206
3040.73	23.9919
3042.01	24.2935
3043.3	24.8513
3044.59	25.78
3045.87	26.1193
3047.16	26.9624
3048.44	27.1945
3049.73	27.0415
3051.01	27.6203
3052.3	27.7164
3053.58	28.0846
3054.87	28.6833
3056.15	28.9398
3057.43	28.9068
3058.72	29.0344
3060	28.8825
3061.29	28.972
3062.57	28.7833
3063.85	28.5952
3065.13	27.9948
3066.42	27.3128
3067.7	26.1698
3068.98	25.5966
3070.26	24.7436
3071.54	24.1665
3072.82	23.2831
3074.11	22.3298
3075.39	21.2625
3076.67	19.9222
3077.95	18.7328
3079.23	17.5732
3080.51	16.2959
3081.79	15.1232
3083.07	13.757
3084.35	12.4167
3085.63	10.4878
3086.9	9.16188
3088.18	8.03403
3089.46	6.81172
3090.74	5.72041
3092.02	5.14781
3093.29	4.50248
3094.57	3.49789
3095.85	2.85926
3097.13	2.43917
3098.4	2.27976
3099.68	1.67848
3100.95	1.2423
3102.23	0.695491
3103.51	0.160139
3104.78	0.118713
3106.06	-0.00141331
3107.33	0.0679531
3108.61	0.462577
3109.88	0.224461
3111.16	0.287727
3112.43	0.600585
3113.71	0.707274
3114.98	0.428386
3116.25	0.0238125
3117.53	-0.138412
3118.8	0.0775516
3120.07	0.00993115
3121.35	-0.0913983
3122.62	0.540111
3123.89	0.155756
3125.16	0.646697
3126.44	0.842706
3127.71	0.494081
3128.98	0.0282493
3130.25	0.257885
3131.52	0.706189
3132.79	1.3706
3134.06	1.32836
3135.33	1.74873
3136.6	1.77037
3137.87	1.78821
3139.14	1.77569
3140.41	2.03117
3141.68	2.18785
3142.95	2.42836
3144.22	2.80046
3145.49	3.26714
3146.76	4.11286
3148.02	5.55786
3149.29	6.54541
