#Acq. time (s)=	45
#Accumulations=	2
#Range (cm-¹)=	200...3150
#Windows=	2
#Auto scanning=	Off
#Autofocus=	Off
#Macrospot=	Off
#AutoExposure=	Off
#Spike filter=	Multiple accum.
#Delay time (s)=	0
#Binning=	1
#Readout mode=	Signal
#DeNoise=	Off
#ICS correction=	On
#Dark correction=	Off
#Inst. Process=	Off
#Detector Gain=	Best Dynamic Range
#Detector ADC=	20 kHz       
#Detector temperature (°C)=	-69.85
#Instrument=	LabRAM HR Evol
#Detector=	Synapse
#Objective=	x100
#Grating=	600 gr/mm
#ND Filter=	100%
#Laser (nm)=	532 
#Hole=	100.021
#Range=	Auto
#Laser Pol.=	No
#Raman. Pol.=	No
#Laser Pol. (°)=	-0.0007625
#Raman Pol. (°)=	89.9995
#Collection=	Microscope
#StageXY=	Marzhauser
#StageZ=	Marzhauser
#X (µm)=	4752.4
#Y (µm)=	-7737.3
#Z (µm)=	584.25
#Full time(mm:ss)=	3:18
#Project=	
#Sample=	
#Site=	
#Title=	Thy_30_10_06_2x_45s_532 nm_x100_100%_600 gr_mm
#Remark=	
#Date=	30.06.2022 11:48
#Acquired=	30.06.2022 11:48:30
#Base:Fit=	10.08.2022 09:56:48
#Base:Fit=	10.08.2022 09:57:06
#Base:Fit=	10.08.2022 09:57:43
#Base:Fit=	10.08.2022 09:57:50
#Base:Fit=	10.08.2022 09:58:11
#Base:Sub=	10.08.2022 09:58:44
#Filter:Polynom=	16.08.2022 10:22:53
#AxisType[0]=Intens
#AxisUnit[0]=Cnt
#AxisType[1]=Spectr
#AxisUnit[1]=1/cm
200.533	14.9305
202.348	14.3643
204.162	14.6425
205.976	13.6599
207.792	12.9255
209.605	11.8184
211.418	11.1198
213.23	10.4553
215.044	9.64798
216.856	9.07724
218.667	8.20024
220.478	6.72827
222.289	6.07915
224.102	6.08898
225.912	4.90125
227.721	3.78824
229.531	3.15427
231.34	2.83399
233.148	2.96229
234.956	2.48837
236.766	2.06322
238.574	1.868
240.381	1.26915
242.188	1.24504
243.994	0.958147
245.801	0.81665
247.606	0.242362
249.412	-0.592924
251.217	-0.856742
253.024	-0.444796
254.828	-0.146215
256.632	-0.471479
258.436	-0.849371
260.239	0.0486829
262.042	1.79134
263.845	2.70508
265.647	3.46266
267.449	3.37446
269.25	3.77524
271.052	4.04908
272.852	4.1239
274.653	4.01959
276.453	3.80372
278.253	4.15459
280.052	4.46682
281.852	5.19141
283.65	5.53997
285.449	5.79441
287.247	6.62803
289.044	7.16287
290.842	7.66215
292.639	7.72119
294.436	7.86198
296.232	9.38554
298.028	9.93845
299.821	10.889
301.617	11.1485
303.412	11.8549
305.206	11.9543
307	12.494
308.794	12.2261
310.588	12.2793
312.381	12.9045
314.172	13.063
315.964	12.4616
317.756	13.1194
319.548	13.5225
321.34	14.196
323.131	14.5288
324.921	14.7515
326.71	15.4295
328.5	15.6405
330.29	15.9837
332.079	15.9037
333.868	15.8293
335.654	15.0819
337.443	13.9735
339.231	14.0513
341.018	15.5672
342.804	15.357
344.591	15.3912
346.377	14.648
348.163	14.1698
349.947	14.1028
351.733	13.6648
353.518	12.923
355.303	11.8322
357.085	11.0231
358.869	9.86269
360.653	10.0638
362.435	9.08931
364.218	8.05042
366.001	7.7582
367.781	7.65404
369.563	6.73842
371.345	6.77932
373.124	6.87891
374.905	7.01637
376.686	6.70626
378.464	6.41372
380.244	6.28765
382.022	6.29773
383.801	6.02821
385.58	5.90274
387.357	5.21495
389.135	4.35181
390.911	4.12685
392.689	3.81593
394.466	2.85612
396.241	2.59059
398.018	2.31636
399.792	2.44201
401.568	2.52844
403.341	2.41292
405.117	2.84235
406.889	3.81322
408.664	4.09122
410.436	4.46204
412.21	4.32168
413.981	4.23077
415.755	4.27285
417.525	3.76369
419.298	3.84006
421.068	4.18036
422.84	4.49049
424.609	4.40619
426.38	4.95755
428.149	6.14693
429.919	6.45269
431.688	5.44046
433.455	6.225
435.225	6.55167
436.992	7.59382
438.76	8.43776
440.527	9.40315
442.293	9.26485
444.06	10.108
445.826	10.432
447.593	10.604
449.357	11.082
451.122	11.0419
452.888	12.9537
454.651	13.3707
456.415	14.051
458.18	14.5384
459.942	15.3771
461.705	16.5296
463.469	16.2329
465.23	16.0813
466.991	16.3262
468.752	17.1547
470.515	16.4082
472.275	15.1897
474.035	14.6723
475.797	14.4259
477.556	14.5532
479.315	14.8853
481.073	15.0789
482.834	15.7083
484.592	16.1935
486.349	16.39
488.106	15.9496
489.863	15.5873
491.622	16.1453
493.378	16.4782
495.134	16.6376
496.889	16.4089
498.645	16.6376
500.401	16.9746
502.156	17.2891
503.91	17.598
505.664	17.7231
507.417	18.4761
509.171	18.6251
510.923	18.3917
512.678	19.0452
514.43	18.7447
516.182	18.4386
517.933	18.0778
519.684	18.818
521.435	19.1654
523.186	19.6803
524.936	20.2404
526.686	19.171
528.435	19.6078
530.184	19.05
531.933	19.5167
533.682	18.7906
535.43	18.7415
537.18	19.435
538.927	19.8242
540.674	19.3776
542.421	18.883
544.167	18.3179
545.913	17.735
547.659	16.7691
549.403	16.377
551.148	15.7656
552.893	15.2944
554.637	15.1342
556.381	15.1983
558.125	13.8148
559.868	13.5643
561.611	14.1781
563.354	14.5788
565.097	15.2393
566.839	14.9641
568.581	14.1039
570.322	13.671
572.063	13.1544
573.802	12.369
575.542	12.129
577.283	11.8252
579.022	12.4796
580.762	11.9882
582.501	11.6844
584.24	10.7281
585.976	10.0108
587.714	9.27725
589.452	8.30456
591.19	8.5207
592.927	8.24336
594.663	8.4328
596.398	8.4656
598.134	8.58195
599.87	7.89875
601.605	7.12717
603.338	7.0821
605.073	7.47232
606.808	8.32961
608.542	8.6322
610.274	9.59809
612.007	10.0915
613.74	9.73941
615.473	11.0003
617.204	10.8788
618.936	11.1905
620.668	11.2358
622.397	11.9402
624.128	12.8214
625.859	13.0227
627.588	13.9913
629.318	15.3943
631.048	16.1398
632.775	16.6508
634.505	18.2168
636.233	19.0712
637.96	19.8007
639.688	20.5753
641.416	21.8479
643.142	22.5231
644.869	23.7728
646.594	25.1761
648.32	25.8915
650.045	26.6354
651.771	27.5045
653.496	27.666
655.219	27.2683
656.944	27.8386
658.667	27.9955
660.391	27.8101
662.113	28.1286
663.837	28.1975
665.558	28.6365
667.281	28.5118
669.002	28.1815
670.724	28.2857
672.444	29.0639
674.166	29.4403
675.885	28.7497
677.606	29.5477
679.325	28.8692
681.045	28.5933
682.763	28.6087
684.483	27.6556
686.2	27.2969
687.917	27.8263
689.636	28.4648
691.352	28.5738
693.07	29.1542
694.786	30.0335
696.501	30.5181
698.219	31.2223
699.933	31.1428
701.65	31.5988
703.364	32.2839
705.078	32.5247
706.793	33.1097
708.506	33.869
710.219	34.8541
711.934	35.4978
713.646	36.7103
715.358	37.647
717.071	38.1319
718.782	38.3051
720.493	39.6367
722.204	40.052
723.916	41.5677
725.626	43.3178
727.336	43.9813
729.045	44.1727
730.756	44.6426
732.464	45.2361
734.173	46.2224
735.881	46.7736
737.59	47.9296
739.297	48.1266
741.004	48.7706
742.711	49.552
744.417	50.5751
746.125	51.8971
747.831	53.595
749.537	54.0902
751.242	55.215
752.946	56.5971
754.651	57.7428
756.357	57.9405
758.061	58.4682
759.764	59.3236
761.467	59.7863
763.17	62.1036
764.872	61.9166
766.575	62.3785
768.276	63.9156
769.978	64.8418
771.679	65.9132
773.382	68.0134
775.083	70.0401
776.783	70.6754
778.483	72.3477
780.182	73.8264
781.882	75.0646
783.581	76.1667
785.279	77.3118
786.978	78.1355
788.676	80.0109
790.373	81.0846
792.071	82.2615
793.768	82.3936
795.464	83.7158
797.161	84.6143
798.857	86.2662
800.552	86.2626
802.248	86.1964
803.941	86.2271
805.636	86.8536
807.33	87.7786
809.024	87.8772
810.718	87.4717
812.412	87.5994
814.105	88.6704
815.798	89.2866
817.49	89.9398
819.183	89.6484
820.873	89.1155
822.564	89.0749
824.256	88.8601
825.947	89.0904
827.637	87.9765
829.328	87.2855
831.016	86.8252
832.705	86.5244
834.395	86.083
836.084	85.7867
837.772	85.5908
839.459	85.2478
841.147	84.4633
842.835	84.5644
844.522	84.0114
846.209	82.6598
847.894	82.5772
849.581	80.8202
851.267	80.9181
852.953	80.1701
854.637	79.2212
856.322	78.2874
858.007	78.1536
859.689	77.1381
861.374	74.881
863.058	74.6132
864.739	74.4627
866.423	74.0775
868.106	73.7044
869.787	73.6124
871.469	72.4495
873.151	72.8687
874.831	71.535
876.512	70.5771
878.193	69.1994
879.872	68.7082
881.553	67.1056
883.231	66.2561
884.911	65.5292
886.591	65.6638
888.268	65.0407
889.947	64.8774
891.623	64.8957
893.302	64.6185
894.978	65.0713
896.656	64.6738
898.331	63.9157
900.008	62.9911
901.683	62.5128
903.359	62.4488
905.033	61.7618
906.709	61.208
908.383	61.2861
910.058	59.9341
911.731	60.2054
913.405	59.7467
915.078	60.0349
916.752	60.0517
918.423	59.9269
920.096	60.0032
921.768	60.3973
923.438	59.9608
925.111	59.1978
926.781	58.6029
928.452	58.3881
930.122	57.8844
931.791	57.2739
933.462	55.5477
935.13	55.1331
936.799	54.3017
938.468	54.1331
940.136	53.7282
941.803	53.7269
943.472	53.166
945.139	52.5443
946.805	53.1768
948.473	52.9092
950.139	51.5396
951.804	51.0282
953.471	50.2142
955.136	50.0263
956.801	49.491
958.465	47.4422
960.131	46.3569
961.794	45.5864
963.458	45.9472
965.12	45.8631
966.785	45.8162
968.447	45.8232
970.109	45.3065
971.771	45.1295
973.432	45.8443
975.095	46.2186
976.756	46.6612
978.417	47.0208
980.077	46.309
981.737	46.6046
983.396	46.7611
985.057	46.3674
986.716	46.1782
988.375	45.3824
990.033	45.6607
991.691	46.0354
993.349	45.7188
995.006	46.3485
996.663	45.2295
998.32	46.2019
999.976	45.6732
1001.63	45.6978
1003.29	45.1901
1004.95	44.3449
1006.6	44.0362
1008.26	43.9158
1009.91	43.8262
1011.56	44.1495
1013.22	44.1699
1014.87	43.969
1016.53	43.791
1018.18	44.263
1019.83	44.3334
1021.48	43.6286
1023.14	42.8504
1024.79	42.2642
1026.44	41.6063
1028.09	41.3942
1029.74	40.9191
1031.39	39.9895
1033.04	39.9265
1034.69	40.5053
1036.34	40.9351
1037.99	40.6835
1039.64	39.3679
1041.29	38.2436
1042.94	38.6902
1044.58	38.1936
1046.23	37.9535
1047.88	37.3785
1049.52	36.0703
1051.17	36.4973
1052.82	36.4619
1054.46	35.5509
1056.11	35.2558
1057.75	35.3118
1059.4	35.8033
1061.04	35.2277
1062.69	34.7174
1064.33	34.6179
1065.98	33.5414
1067.62	34.0343
1069.26	34.4733
1070.9	34.0184
1072.55	34.5348
1074.19	34.8132
1075.83	33.9225
1077.47	33.9735
1079.11	33.7885
1080.76	34.1184
1082.4	33.3026
1084.04	34.038
1085.68	34.2685
1087.32	35.6639
1088.95	36.0059
1090.59	35.9562
1092.23	36.2865
1093.87	36.322
1095.51	36.0603
1097.15	35.5796
1098.78	35.6432
1100.42	35.9771
1102.06	36.4016
1103.69	35.6337
1105.33	35.9925
1106.97	36.3151
1108.6	36.064
1110.24	34.853
1111.87	33.7619
1113.51	32.9177
1115.14	32.2487
1116.77	30.5481
1118.41	29.286
1120.04	27.647
1121.67	26.192
1123.31	25.0299
1124.94	23.5596
1126.57	21.8154
1128.2	20.6896
1129.83	19.0475
1131.47	17.5845
1133.1	16.7308
1134.72	15.5431
1136.36	13.841
1137.98	14.2088
1139.62	13.6243
1141.24	12.4369
1142.87	12.0288
1144.5	11.9188
1146.13	10.5707
1147.76	9.85843
1149.38	10.7589
1151.01	10.1935
1152.64	9.17676
1154.27	8.83926
1155.89	8.19331
1157.52	8.04493
1159.14	8.49449
1160.77	8.83728
1162.39	9.3929
1164.02	9.68135
1165.64	10.1198
1167.27	11.4707
1168.89	12.195
1170.51	12.0443
1172.14	12.454
1173.76	13.4954
1175.38	14.5782
1177	16.0864
1178.63	16.9406
1180.25	17.6263
1181.87	19.0376
1183.49	19.7487
1185.11	19.9684
1186.73	20.5072
1188.35	19.8385
1189.97	19.3864
1191.59	19.4997
1193.21	19.9271
1194.83	20.5175
1196.45	20.8716
1198.07	21.9754
1199.68	23.1747
1201.3	23.8824
1202.92	24.783
1204.53	25.4072
1206.15	25.1597
1207.77	25.8733
1209.38	26.5268
1211	26.87
1212.62	27.7676
1214.23	28.5396
1215.84	29.708
1217.46	30.5828
1219.07	32.4495
1220.69	32.8
1222.3	33.9301
1223.91	35.9943
1225.53	36.2924
1227.14	36.5667
1228.75	37.4718
1230.36	38.4799
1231.97	39.3011
1233.59	39.57
1235.2	40.3065
1236.81	41.0009
1238.42	42.5278
1240.03	43.2972
1241.64	44.6791
1243.25	45.309
1244.85	45.9141
1246.46	46.9368
1248.07	48.0834
1249.68	48.0674
1251.29	48.0587
1252.9	48.5008
1254.5	48.6271
1256.11	49.3021
1257.72	49.0641
1259.32	49.0697
1260.93	49.2234
1262.54	49.4101
1264.14	48.3651
1265.75	47.9629
1267.35	46.9625
1268.96	47.2689
1270.56	48.0704
1272.16	49.4129
1273.77	49.5752
1275.37	50.7577
1276.97	51.0706
1278.57	51.7067
1280.18	52.3728
1281.78	52.9915
1283.38	53.5015
1284.98	52.9824
1286.58	52.8799
1288.18	53.0983
1289.78	53.8114
1291.38	54.3132
1292.99	55.7176
1294.58	56.1205
1296.18	56.5182
1297.78	57.6271
1299.38	57.9497
1300.98	57.6471
1302.58	58.9806
1304.17	59.3881
1305.77	59.313
1307.37	59.8715
1308.97	60.2852
1310.56	62.2968
1312.16	62.8484
1313.76	63.2617
1315.35	63.6473
1316.95	63.8496
1318.54	64.586
1320.14	64.5282
1321.73	64.2461
1323.32	63.8786
1324.92	63.598
1326.51	63.4421
1328.1	61.8626
1329.7	60.4622
1331.29	59.1105
1332.88	58.065
1334.47	56.4723
1336.07	55.5638
1337.66	53.9961
1339.25	52.0047
1340.84	50.948
1342.43	49.4731
1344.02	47.5671
1345.61	47.2103
1347.2	46.4723
1348.79	46.2319
1350.37	44.806
1351.96	43.4701
1353.55	41.1604
1355.14	40.9138
1356.73	38.8664
1358.31	38.2071
1359.9	36.7405
1361.49	35.2443
1363.07	33.2056
1364.66	32.0452
1366.25	30.6312
1367.83	29.5777
1369.42	29.3887
1371	28.4905
1372.59	27.0788
1374.17	25.9698
1375.75	25.0561
1377.34	25.0796
1378.92	24.3737
1380.5	24.5621
1382.09	25.301
1383.67	24.5594
1385.25	25.0538
1386.83	24.7195
1388.42	24.3677
1390	25.2518
1391.58	24.146
1393.16	23.9481
1394.74	24.5047
1396.32	24.1354
1397.9	24.4587
1399.48	24.7152
1401.06	25.1145
1402.64	25.4546
1404.21	24.9668
1405.79	25.1974
1407.37	25.6639
1408.95	26.494
1410.53	27.1702
1412.1	28.1293
1413.68	29.6239
1415.26	30.6534
1416.83	31.9789
1418.41	33.0049
1419.98	34.7585
1421.56	35.9653
1423.13	37.4332
1424.71	40.6614
1426.28	42.1188
1427.86	44.414
1429.43	46.2715
1431	48.0014
1432.58	49.8079
1434.15	51.9242
1435.72	53.4841
1437.29	54.8386
1438.87	55.0633
1440.44	56.467
1442.01	56.4945
1443.58	57.3
1445.15	57.2216
1446.72	57.5156
1448.29	58.0921
1449.86	58.0769
1451.43	56.8811
1453	56.351
1454.57	55.1745
1456.14	54.4121
1457.71	52.7874
1459.27	51.4948
1460.84	49.8832
1462.41	48.5842
1463.98	47.1656
1465.54	45.325
1467.11	43.6667
1468.67	42.2756
1470.24	40.3081
1471.81	38.1367
1473.37	36.1211
1474.94	33.1094
1476.5	30.6712
1478.07	28.5831
1479.63	26.3135
1481.19	23.5721
1482.76	21.1104
1484.32	19.8601
1485.88	19.2248
1487.45	17.564
1489.01	15.7243
1490.57	15.4182
1492.13	14.7456
1493.69	13.2944
1495.26	12.5463
1496.82	10.9354
1498.38	10.0719
1499.94	10.3096
1501.5	10.4624
1503.06	10.1596
1504.62	9.45808
1506.17	8.98204
1507.73	8.37923
1509.29	7.59346
1510.85	7.33234
1512.41	7.32538
1513.97	7.53203
1515.52	6.03389
1517.08	6.57202
1518.64	7.14064
1520.19	7.25991
1521.75	7.11639
1523.31	7.61788
1524.86	7.46223
1526.42	8.12713
1527.97	7.99483
1529.52	7.39488
1531.08	7.85317
1532.63	8.67539
1534.19	9.30363
1535.74	10.2855
1537.29	11.5579
1538.85	12.1236
1540.4	13.4149
1541.95	13.7574
1543.5	14.3303
1545.06	14.8598
1546.61	16.4879
1548.16	17.0178
1549.71	17.373
1551.26	18.186
1552.81	18.9877
1554.36	19.4695
1555.91	20.8569
1557.46	21.7601
1559.01	23.162
1560.56	24.3763
1562.11	25.862
1563.65	26.5746
1565.2	26.6509
1566.75	27.4508
1568.29	28.9631
1569.84	28.9252
1571.39	29.7945
1572.94	30.1739
1574.48	31.1201
1576.03	32.367
1577.57	32.6636
1579.12	33.5287
1580.66	33.6917
1582.21	35.2386
1583.75	35.9952
1585.3	36.9506
1586.84	36.5974
1588.38	37.6531
1589.93	38.1528
1591.47	38.3914
1593.01	38.2167
1594.55	39.5874
1596.1	39.2998
1597.64	38.4666
1599.18	38.1831
1600.72	38.7597
1602.26	38.7692
1603.8	37.9008
1605.34	37.9213
1606.88	37.1672
1608.42	37.1782
1609.96	37.734
1611.5	38.1324
1613.04	38.5478
1614.58	39.0181
1616.12	38.5331
1617.65	39.2858
1619.19	39.4895
1620.73	40.0804
1622.27	40.8609
1623.8	41.3382
1625.34	41.9421
1626.87	42.5597
1628.41	42.6151
1629.95	42.7627
1631.48	43.2088
1633.02	44.4167
1634.55	45.3411
1636.09	45.7443
1637.62	46.8765
1639.15	47.7997
1640.69	48.7246
1642.22	50.2946
1643.76	51.8209
1645.29	53.0504
1646.82	53.8487
1648.35	55.3952
1649.88	56.4196
1651.42	57.4911
1652.95	57.5937
1654.48	58.3064
1656.01	59.6634
1657.54	59.4244
1659.07	59.3232
1660.6	58.9863
1662.13	58.2913
1663.66	57.543
1665.19	57.6678
1666.72	56.3109
1668.24	55.8171
1669.77	54.9072
1671.3	53.8874
1672.83	52.2038
1674.35	50.2685
1675.88	48.942
1677.41	47.4005
1678.93	45.0282
1680.46	41.734
1681.99	40.2466
1683.51	37.4959
1685.04	36.0783
1686.56	34.2179
1688.09	31.4561
1689.61	28.7507
1691.13	26.0756
1692.66	24.1932
1694.18	23.1574
1695.71	20.8398
1697.23	18.5364
1698.75	16.473
1700.27	14.5865
1701.8	12.8284
1703.32	10.3289
1704.84	9.03516
1706.36	8.30782
1707.88	7.52897
1709.4	6.76076
1710.92	5.41641
1712.44	4.58164
1713.96	4.26968
1715.48	3.4112
1717	3.19512
1718.52	2.30749
1720.04	1.95733
1721.56	1.56247
1723.07	1.4477
1724.59	1.58741
1726.11	1.65058
1727.63	1.06893
1729.14	1.28732
1730.66	1.29865
1732.18	0.961495
1733.69	0.493737
1735.21	1.3403
1736.72	1.60405
1738.24	1.72248
1739.75	2.05747
1741.27	2.37028
1742.78	1.90561
1744.3	1.97693
1745.81	1.98816
1747.32	1.86761
1748.84	1.54124
1750.35	0.755454
1751.86	0.575569
1753.37	0.593602
1754.89	0.188026
1756.4	-0.0908009
1757.91	0.505003
1759.42	0.584895
1760.93	0.49242
1762.44	0.517701
1763.95	0.638511
1765.46	1.02597
1766.97	1.1602
1768.48	1.66521
1769.99	1.11138
1771.5	0.325439
1773.01	0.618025
1774.52	1.11123
1776.03	1.05593
1777.53	1.30629
1779.04	1.67753
1780.55	2.13256
1782.06	1.7014
1783.56	1.47275
1785.07	1.41223
1786.57	1.05505
1788.08	0.854575
1789.59	0.984846
1791.09	0.758974
1792.6	0.400051
1794.1	-0.0642861
1795.6	0.197155
1797.11	-0.00304128
1798.61	0.396382
1800.12	0.428769
1801.62	0.419042
1803.12	0.178327
1804.63	0.21842
1806.13	0.198736
1807.63	0.67083
1809.13	0.992954
1810.63	1.42175
1812.14	0.63682
1813.64	0.497249
1815.14	0.472518
1816.64	0.289613
1818.14	-0.00531132
1819.64	0.332289
1821.14	0.20233
1822.64	-0.0612866
1824.14	-0.132949
1825.63	0.0802616
1827.13	0.658535
1828.63	0.848229
1830.13	1.10556
1831.63	0.904352
1833.12	1.2466
1834.62	1.3179
1836.12	1.79162
1837.62	2.40294
1839.11	2.74413
1840.61	2.79659
1842.1	3.00672
1843.6	3.24242
1845.09	3.68038
1846.59	4.2488
1848.08	5.1242
1849.58	4.97615
1851.07	4.38376
1852.57	4.4406
1854.06	4.21281
1855.55	4.16209
1857.04	3.79394
1858.54	4.4386
1860.03	4.23393
1861.52	4.26473
1863.01	4.44774
1864.5	4.38372
1866	3.88215
1867.49	3.98589
1868.98	3.79151
1870.47	3.55956
1871.96	3.72413
1873.45	3.96236
1874.94	3.86316
1876.43	3.90803
1877.92	3.5398
1879.41	3.31871
1880.89	2.96491
1882.38	2.80241
1882.48	2.19704
1883.97	1.82015
1885.47	1.456
1886.96	1.69063
1888.46	1.90991
1889.95	1.54339
1891.44	1.27934
1892.94	1.45806
1894.43	0.976364
1895.92	1.86068
1897.41	1.98958
1898.9	1.93208
1900.4	1.94634
1901.89	1.98964
1903.38	2.60222
1904.87	2.99846
1906.36	3.77996
1907.85	4.27165
1909.34	4.52613
1910.83	4.45045
1912.32	4.84773
1913.81	5.81659
1915.29	6.52677
1916.78	7.22485
1918.27	7.40123
1919.76	7.8716
1921.25	7.98226
1922.74	7.76166
1924.22	8.1438
1925.71	9.08338
1927.2	9.90206
1928.68	10.3957
1930.17	10.7221
1931.65	10.7179
1933.14	10.1653
1934.63	9.92092
1936.11	9.70806
1937.59	9.22365
1939.08	9.60231
1940.56	9.77963
1942.05	9.7723
1943.53	9.88602
1945.01	9.53335
1946.5	9.23981
1947.98	8.75142
1949.46	8.29853
1950.94	7.63774
1952.43	7.10842
1953.91	7.11455
1955.39	7.2417
1956.87	6.86965
1958.35	6.72914
1959.83	7.21928
1961.31	6.2472
1962.79	5.28999
1964.27	5.32767
1965.75	5.50554
1967.23	5.45183
1968.71	5.39474
1970.19	5.84118
1971.67	5.2127
1973.14	4.81061
1974.62	4.98517
1976.1	4.78096
1977.58	5.38625
1979.05	5.61804
1980.53	5.78432
1982.01	5.69614
1983.48	6.23575
1984.96	6.84011
1986.43	7.88636
1987.91	8.17294
1989.38	7.89798
1990.86	7.9226
1992.33	7.89451
1993.81	8.60455
1995.28	8.87346
1996.76	9.42038
1998.23	9.60219
1999.7	10.2775
2001.18	10.5759
2002.65	10.6944
2004.12	10.4622
2005.59	10.2617
2007.06	10.3192
2008.54	10.346
2010.01	10.9701
2011.48	10.8313
2012.95	11.2512
2014.42	10.966
2015.89	11.0508
2017.36	10.3741
2018.83	9.7797
2020.3	10.2088
2021.77	9.79358
2023.24	9.75092
2024.71	10.501
2026.17	10.5622
2027.64	10.9356
2029.11	10.8127
2030.58	10.723
2032.04	10.4054
2033.51	10.4375
2034.98	9.53427
2036.45	10.1253
2037.91	10.2868
2039.38	9.71902
2040.84	9.41424
2042.31	9.37614
2043.77	8.77777
2045.24	7.88818
2046.7	7.68754
2048.17	8.23292
2049.63	7.91641
2051.1	8.3995
2052.56	8.58921
2054.02	8.42541
2055.48	7.83605
2056.95	7.90322
2058.41	8.32227
2059.87	8.28389
2061.33	7.86267
2062.8	8.23409
2064.26	8.33211
2065.72	8.69378
2067.18	9.39818
2068.64	9.65355
2070.1	10.4011
2071.56	10.159
2073.02	10.6475
2074.48	10.79
2075.94	11.4016
2077.4	11.5719
2078.86	12.1967
2080.31	12.3789
2081.77	13.3082
2083.23	14.1216
2084.69	14.1832
2086.14	15.3944
2087.6	15.4584
2089.06	16.2672
2090.52	16.6444
2091.97	17.8547
2093.43	19.0597
2094.88	19.2951
2096.34	20.7877
2097.79	21.73
2099.25	21.9723
2100.7	22.741
2102.16	23.138
2103.61	23.7064
2105.07	24.3453
2106.52	24.6722
2107.97	25.2121
2109.43	25.4626
2110.88	25.9546
2112.33	26.7206
2113.78	28.0513
2115.24	28.6137
2116.69	28.9635
2118.14	29.9851
2119.59	31.7165
2121.04	32.5129
2122.49	33.1461
2123.94	34.5542
2125.39	35.5067
2126.84	35.9637
2128.29	37.4778
2129.74	39.3658
2131.19	40.3064
2132.64	40.5376
2134.09	41.7099
2135.54	43.3644
2136.98	44.7202
2138.43	46.0904
2139.88	47.5676
2141.33	48.4433
2142.77	49.8477
2144.22	50.8811
2145.67	52.6449
2147.11	54.1381
2148.56	55.2127
2150.01	56.3214
2151.45	57.5355
2152.9	58.4599
2154.34	59.7717
2155.79	61.3404
2157.23	62.242
2158.67	63.6899
2160.12	64.0341
2161.56	64.7926
2163	65.0625
2164.45	65.488
2165.89	65.3262
2167.33	65.1782
2168.78	65.8467
2170.22	65.6129
2171.66	66.1335
2173.1	66.2149
2174.54	66.2781
2175.98	66.0604
2177.42	65.8385
2178.86	65.2629
2180.3	65.0408
2181.74	64.6337
2183.18	64.5643
2184.62	64.0729
2186.06	63.1598
2187.5	62.0794
2188.94	61.3787
2190.38	60.8429
2191.82	60.0285
2193.25	58.9768
2194.69	58.7564
2196.13	58.2802
2197.57	57.5018
2199	56.5804
2200.44	56.2946
2201.88	54.9915
2203.31	53.9974
2204.75	53.8798
2206.18	53.3876
2207.62	52.3847
2209.05	51.4002
2210.49	50.2268
2211.92	49.3265
2213.36	48.018
2214.79	46.9123
2216.22	45.6166
2217.66	44.463
2219.09	43.2226
2220.52	42.3118
2221.96	41.4442
2223.39	40.5296
2224.82	39.1766
2226.25	37.9424
2227.68	37.1378
2229.11	35.152
2230.55	33.6575
2231.98	31.7522
2233.41	30.7768
2234.84	29.4164
2236.27	28.5732
2237.7	27.4977
2239.12	26.5815
2240.55	26.0657
2241.98	24.8279
2243.41	24.078
2244.84	23.6643
2246.27	22.8208
2247.7	21.7547
2249.12	21.232
2250.55	20.2895
2251.98	20.3682
2253.41	20.1452
2254.83	19.7928
2256.26	19.5352
2257.68	19.2019
2259.11	19.2676
2260.54	18.8005
2261.96	18.5988
2263.39	18.9257
2264.81	19.216
2266.24	19.4339
2267.66	19.423
2269.08	19.134
2270.51	19.0412
2271.93	19.6585
2273.35	19.9217
2274.78	19.8555
2276.2	19.4485
2277.62	18.9632
2279.04	18.9496
2280.47	18.9097
2281.89	18.599
2283.31	18.9163
2284.73	18.7584
2286.15	18.9899
2287.57	18.6804
2288.99	18.1788
2290.41	17.0386
2291.83	16.0737
2293.25	14.984
2294.67	14.8478
2296.09	14.3784
2297.51	14.6155
2298.93	14.7926
2300.35	14.0237
2301.76	13.9733
2303.18	14.3828
2304.6	14.8528
2306.02	14.7674
2307.44	15.0258
2308.85	14.8171
2310.27	14.7818
2311.69	14.8279
2313.1	13.9963
2314.52	14.3457
2315.93	14.1788
2317.35	13.8281
2318.76	14.3037
2320.18	14.4074
2321.59	14.7184
2323.01	14.6451
2324.42	14.15
2325.83	14.0076
2327.25	13.5147
2328.66	13.3298
2330.07	12.7663
2331.49	12.4164
2332.9	12.5692
2334.31	12.3297
2335.72	11.9787
2337.13	11.396
2338.55	11.0537
2339.96	11.2295
2341.37	11.0378
2342.78	10.1511
2344.19	9.8162
2345.6	8.64597
2347.01	8.06243
2348.42	8.01131
2349.83	7.51359
2351.24	7.25688
2352.65	7.40351
2354.05	7.31239
2355.46	5.86818
2356.87	5.16633
2358.28	3.86703
2359.69	3.37326
2361.09	3.13434
2362.5	3.18001
2363.91	3.6871
2365.31	4.0083
2366.72	4.30139
2368.13	4.05234
2369.53	3.74359
2370.94	3.70348
2372.34	4.01912
2373.75	4.33646
2375.15	4.43308
2376.56	4.16056
2377.96	4.08815
2379.37	3.38404
2380.77	3.03678
2382.17	2.79922
2383.58	2.40659
2384.98	3.10105
2386.38	3.16587
2387.79	3.59435
2389.19	3.72179
2390.59	3.5997
2391.99	3.41451
2393.39	2.94759
2394.8	3.1324
2396.2	2.98314
2397.6	3.17142
2399	4.01561
2400.4	3.86833
2401.8	3.78195
2403.2	4.16378
2404.6	4.44912
2406	4.71335
2407.4	4.68799
2408.79	5.12996
2410.19	5.66252
2411.59	5.21475
2412.99	5.37897
2414.39	5.71442
2415.78	5.33097
2417.18	5.69861
2418.58	6.06441
2419.98	6.3168
2421.37	6.89234
2422.77	6.93171
2424.16	6.77891
2425.56	6.71197
2426.96	6.91779
2428.35	7.0732
2429.74	7.35969
2431.14	7.43578
2432.53	7.05012
2433.93	7.00301
2435.32	6.89734
2436.72	6.55718
2438.11	6.63439
2439.5	7.01293
2440.9	7.16926
2442.29	7.04817
2443.68	7.02946
2445.07	6.65329
2446.47	5.7287
2447.86	4.92152
2449.25	4.22844
2450.64	4.48937
2452.03	3.99032
2453.42	3.36899
2454.81	3.44166
2456.2	2.79785
2457.59	2.61719
2458.98	1.87619
2460.37	1.63171
2461.76	1.5037
2463.15	1.51997
2464.54	1.63449
2465.93	1.67286
2467.32	1.36529
2468.7	1.28067
2470.09	1.10722
2471.48	1.40548
2472.87	1.8287
2474.25	2.11381
2475.64	1.97023
2477.03	2.06234
2478.41	2.50629
2479.8	2.14744
2481.18	1.85363
2482.57	1.76193
2483.95	1.99678
2485.34	2.35551
2486.72	2.45677
2488.11	2.43172
2489.49	2.73674
2490.88	3.5183
2492.26	3.54899
2493.65	3.18625
2495.03	2.94365
2496.41	3.19811
2497.79	3.37995
2499.18	3.44467
2500.56	3.48503
2501.94	3.45459
2503.32	3.97054
2504.7	3.93612
2506.09	4.2223
2507.47	4.95189
2508.85	4.79832
2510.23	4.97592
2511.61	4.96969
2512.99	5.02057
2514.37	4.90799
2515.75	4.6805
2517.13	4.49531
2518.51	4.75653
2519.89	5.10798
2521.26	5.15851
2522.64	5.49778
2524.02	5.19938
2525.4	4.58398
2526.78	4.27373
2528.15	4.19747
2529.53	4.29208
2530.91	3.9927
2532.28	3.91137
2533.66	3.41635
2535.04	3.07858
2536.41	3.08517
2537.79	3.55942
2539.16	3.34688
2540.54	2.8674
2541.91	2.50951
2543.29	2.21672
2544.66	2.19129
2546.04	1.99793
2547.41	2.25905
2548.78	1.9055
2550.16	2.32131
2551.53	2.52546
2552.9	2.94014
2554.27	2.5564
2555.65	2.87438
2557.02	3.23765
2558.39	3.6279
2559.76	4.08609
2561.13	3.60612
2562.51	3.29705
2563.88	3.61613
2565.25	3.99163
2566.62	4.0427
2567.99	4.11325
2569.36	4.19395
2570.73	4.37489
2572.1	4.19068
2573.47	4.20186
2574.84	4.16
2576.2	4.08538
2577.57	4.19588
2578.94	4.62149
2580.31	4.20857
2581.68	4.35012
2583.05	4.36615
2584.41	4.77853
2585.78	4.63081
2587.15	5.0207
2588.51	5.53735
2589.88	5.18126
2591.24	4.43233
2592.61	4.01591
2593.98	3.73068
2595.34	4.08779
2596.71	4.50341
2598.07	3.92873
2599.44	4.15649
2600.8	4.81769
2602.16	4.39509
2603.53	4.25062
2604.89	4.02983
2606.26	3.87729
2607.62	3.09843
2608.98	3.09445
2610.34	3.28719
2611.71	3.29662
2613.07	3.4187
2614.43	3.15107
2615.79	3.0159
2617.15	2.86118
2618.52	2.97126
2619.88	3.09427
2621.24	3.11851
2622.6	2.64755
2623.96	2.62876
2625.32	2.26239
2626.68	2.12669
2628.04	1.97986
2629.4	1.39981
2630.75	1.04097
2632.11	0.8292
2633.47	0.773019
2634.83	0.990935
2636.19	0.378248
2637.55	0.274046
2638.9	0.504818
2640.26	0.763375
2641.62	0.635223
2642.98	0.0596367
2644.33	0.192625
2645.69	0.310448
2647.04	0.667545
2648.4	0.504926
2649.76	1.45001
2651.11	1.76384
2652.47	2.27276
2653.82	2.06335
2655.18	2.23149
2656.53	2.46165
2657.88	2.04379
2659.24	2.42213
2660.59	2.5906
2661.95	3.02757
2663.3	3.47691
2664.65	3.54164
2666	3.67909
2667.36	4.08827
2668.71	4.03991
2670.06	3.6748
2671.41	3.51479
2672.76	3.86675
2674.12	4.36408
2675.47	3.94196
2676.82	4.51764
2678.17	4.34108
2679.52	4.21651
2680.87	3.99594
2682.22	4.18962
2683.57	4.53017
2684.92	5.11802
2686.27	5.32388
2687.62	4.88184
2688.97	5.04231
2690.31	5.2159
2691.66	5.55973
2693.01	5.54283
2694.36	5.61946
2695.71	5.87748
2697.05	6.27546
2698.4	6.55709
2699.75	6.82043
2701.09	7.19595
2702.44	7.53219
2703.78	7.61166
2705.13	8.27397
2706.48	8.77201
2707.82	8.6909
2709.17	8.5109
2710.51	8.67212
2711.86	9.19022
2713.2	9.9286
2714.54	10.8231
2715.89	10.7272
2717.23	11.1507
2718.57	11.0259
2719.92	11.0051
2721.26	10.9875
2722.6	11.5563
2723.95	11.7901
2725.29	11.7114
2726.63	11.8238
2727.97	11.4041
2729.31	11.5577
2730.65	11.3823
2732	11.6021
2733.34	11.501
2734.68	11.0988
2736.02	10.6715
2737.36	10.6185
2738.7	10.1692
2740.04	10.2458
2741.38	9.81375
2742.72	9.51998
2744.05	9.43615
2745.39	8.79706
2746.73	8.40604
2748.07	8.4953
2749.41	8.36111
2750.75	7.94138
2752.08	7.5069
2753.42	7.15623
2754.76	6.59019
2756.09	6.38975
2757.43	6.31924
2758.77	6.32357
2760.1	6.07041
2761.44	6.00062
2762.78	5.68207
2764.11	4.92824
2765.44	4.80542
2766.78	4.74157
2768.11	4.76131
2769.45	4.66005
2770.78	5.21899
2772.12	5.17049
2773.45	5.25733
2774.78	5.30084
2776.12	5.26647
2777.45	5.81199
2778.78	6.37266
2780.12	6.70869
2781.45	6.91072
2782.78	7.00514
2784.11	7.4197
2785.44	7.16652
2786.78	7.34085
2788.11	7.79238
2789.44	8.04114
2790.77	7.50544
2792.1	7.71678
2793.43	7.27977
2794.76	7.07938
2796.09	7.4608
2797.42	6.77672
2798.75	6.57542
2800.08	5.70764
2801.4	4.91176
2802.73	4.40506
2804.06	4.89644
2805.39	4.5192
2806.72	4.69526
2808.05	4.60601
2809.37	4.53203
2810.7	4.1563
2812.03	4.08316
2813.35	4.22453
2814.68	4.5577
2816.01	5.2438
2817.33	5.52779
2818.66	6.27998
2819.98	6.96469
2821.31	7.50376
2822.63	8.22519
2823.96	9.81509
2825.28	10.5524
2826.61	10.8722
2827.93	11.7965
2829.25	12.768
2830.58	13.9847
2831.9	16.0219
2833.23	16.8868
2834.55	18.4853
2835.87	19.909
2837.19	21.7275
2838.52	23.3666
2839.84	25.867
2841.16	27.836
2842.48	30.8612
2843.8	33.3669
2845.12	35.5812
2846.44	37.99
2847.77	41.1431
2849.08	44.1901
2850.4	47.2072
2851.73	50.7843
2853.05	54.7271
2854.36	58.4203
2855.68	62.2582
2857	65.7721
2858.32	69.3412
2859.64	72.2467
2860.96	75.5124
2862.28	78.8001
2863.59	81.4311
2864.91	85.1083
2866.23	87.7782
2867.55	90.6877
2868.86	93.7823
2870.18	97.0226
2871.5	98.9496
2872.81	101.292
2874.13	103.718
2875.44	106.101
2876.76	108.28
2878.07	109.996
2879.39	112.219
2880.7	114.28
2882.02	116.525
2883.33	117.324
2884.65	118.981
2885.96	120.378
2887.28	122.214
2888.59	123.704
2889.9	125.644
2891.21	126.982
2892.53	128.816
2893.84	130.246
2895.15	132.237
2896.46	134.344
2897.78	137.006
2899.09	138.671
2900.4	141.99
2901.71	144.519
2903.02	147.872
2904.33	151.531
2905.64	155.503
2906.95	159.295
2908.26	163.513
2909.57	167.247
2910.88	172.07
2912.19	176.607
2913.5	181.595
2914.81	186.34
2916.12	191.316
2917.43	195.865
2918.73	200.2
2920.04	204.104
2921.35	207.371
2922.66	210.75
2923.96	213.528
2925.27	215.494
2926.58	217.588
2927.88	219.584
2929.19	220.747
2930.5	221.12
2931.8	221.344
2933.11	221.425
2934.41	221.328
2935.72	220.327
2937.02	218.694
2938.33	217.338
2939.63	215.876
2940.94	213.813
2942.24	211.014
2943.54	208.471
2944.85	206.173
2946.15	203.412
2947.45	199.822
2948.76	196.206
2950.06	192.733
2951.36	189.14
2952.66	185.893
2953.97	181.983
2955.27	178.347
2956.57	174.332
2957.87	170.775
2959.17	166.956
2960.47	163.371
2961.77	159.51
2963.07	156.115
2964.37	151.801
2965.67	148.395
2966.97	144.21
2968.27	140.853
2969.57	137.223
2970.87	134.01
2972.17	130.598
2973.47	127.034
2974.77	124.005
2976.07	120.47
2977.36	117.391
2978.66	114.234
2979.96	111.044
2981.26	107.62
2982.55	103.775
2983.85	100.081
2985.15	96.013
2986.44	92.6883
2987.74	89.4267
2989.03	85.2805
2990.33	81.7855
2991.63	78.2412
2992.92	74.9331
2994.21	71.4423
2995.51	68.229
2996.8	65.5566
2998.1	62.5586
2999.39	59.4468
3000.69	56.7533
3001.98	54.304
3003.27	52.0444
3004.57	49.8474
3005.86	47.3951
3007.15	45.2916
3008.44	43.6518
3009.74	41.6594
3011.03	39.6066
3012.32	37.2897
3013.61	35.7591
3014.9	33.8257
3016.19	32.4227
3017.48	31.1842
3018.78	29.8658
3020.07	28.6419
3021.36	27.6439
3022.65	27.146
3023.94	26.0465
3025.23	25.0857
3026.51	24.2237
3027.8	23.5593
3029.09	22.9613
3030.38	22.6931
3031.67	22.8453
3032.96	22.8752
3034.24	22.9888
3035.53	22.946
3036.82	23.0627
3038.11	23.3418
3039.39	23.2493
3040.68	22.892
3041.97	23.3075
3043.25	23.2932
3044.54	23.6538
3045.83	23.5638
3047.11	23.9073
3048.4	23.8832
3049.68	23.9884
3050.97	24.6231
3052.25	24.6679
3053.54	25.0552
3054.82	25.5146
3056.11	25.6474
3057.39	25.7172
3058.67	25.7728
3059.96	25.6072
3061.24	25.3448
3062.52	25.2296
3063.81	24.5367
3065.09	23.7309
3066.37	22.3319
3067.65	21.4916
3068.94	20.8417
3070.22	19.9765
3071.5	19.5627
3072.78	18.2397
3074.06	17.0746
3075.34	15.9865
3076.62	15.6126
3077.9	14.9858
3079.18	14.0921
3080.46	13.9287
3081.74	13.6024
3083.02	12.8606
3084.3	11.9417
3085.58	11.2184
3086.86	10.5066
3088.14	9.39295
3089.42	8.98005
3090.69	8.53212
3091.97	8.15688
3093.25	7.83699
3094.53	7.26965
3095.8	6.98815
3097.08	6.24815
3098.36	6.09604
3099.63	5.66959
3100.91	5.74964
3102.19	5.40169
3103.46	4.41293
3104.74	4.07483
3106.01	4.30475
3107.29	4.2835
3108.56	3.91641
3109.84	3.60788
3111.11	3.65912
3112.39	3.48192
3113.66	3.57353
3114.94	4.0288
3116.21	3.93185
3117.48	3.82086
3118.76	3.71049
3120.03	3.58752
3121.3	3.05034
3122.57	3.17979
3123.85	2.61245
3125.12	2.01551
3126.39	1.6236
3127.66	0.674228
3128.93	0.327952
3130.21	0.238433
3131.48	0.491813
3132.75	0.608952
3134.02	0.427166
3135.29	0.353038
3136.56	-0.0620696
3137.83	0.369415
3139.1	0.569686
3140.37	0.812317
3141.64	0.409231
3142.91	0.118493
3144.17	-0.196775
3145.44	-0.448161
3146.71	-0.167681
3147.98	0.0568224
3149.25	0.195327
