#Acq. time (s)=	45
#Accumulations=	2
#Range (cm-¹)=	200...3150
#Windows=	2
#Auto scanning=	Off
#Autofocus=	Off
#Macrospot=	Off
#AutoExposure=	Off
#Spike filter=	Multiple accum.
#Delay time (s)=	0
#Binning=	1
#Readout mode=	Signal
#DeNoise=	Off
#ICS correction=	On
#Dark correction=	Off
#Inst. Process=	Off
#Detector Gain=	Best Dynamic Range
#Detector ADC=	20 kHz       
#Detector temperature (°C)=	-69.85
#Instrument=	LabRAM HR Evol
#Detector=	Synapse
#Objective=	x100
#Grating=	600 gr/mm
#ND Filter=	100%
#Laser (nm)=	532 
#Hole=	100.021
#Range=	Auto
#Laser Pol.=	No
#Raman. Pol.=	No
#Laser Pol. (°)=	-0.0007625
#Raman Pol. (°)=	89.9995
#Collection=	Microscope
#StageXY=	Marzhauser
#StageZ=	Marzhauser
#X (µm)=	8999.2
#Y (µm)=	-3061.6
#Z (µm)=	-55.2
#Full time(mm:ss)=	3:19
#Project=	
#Sample=	
#Site=	
#Title=	Thy_00_07_24_2x_45s_532 nm_x100_100%_600 gr_mm
#Remark=	
#Date=	28.06.2022 11:53
#Acquired=	28.06.2022 11:53:48
#Base:Fit=	10.08.2022 10:07:56
#Base:Sub=	10.08.2022 10:08:40
#Filter:Polynom=	16.08.2022 10:26:06
#AxisType[0]=Intens
#AxisUnit[0]=Cnt
#AxisType[1]=Spectr
#AxisUnit[1]=1/cm
200.407	1.66349
202.221	3.7239
204.035	5.05106
205.849	5.79837
207.665	6.4994
209.478	6.97206
211.291	6.78701
213.104	6.49976
214.916	5.95962
216.73	5.8047
218.541	4.44013
220.352	4.52116
222.163	5.07094
223.973	5.91173
225.785	5.95285
227.595	4.55119
229.404	3.78861
231.213	4.31522
233.022	5.25835
234.83	5.39391
236.638	4.552
238.448	4.88726
240.255	4.78014
242.062	5.01015
243.868	4.43921
245.675	4.43813
247.48	4.58867
249.286	5.04021
251.091	4.52361
252.896	4.19113
254.702	3.85893
256.506	3.67503
258.31	4.02889
260.113	4.4082
261.916	4.51549
263.719	4.94855
265.521	6.56297
267.323	7.52161
269.125	8.24174
270.926	8.32757
272.727	8.0085
274.527	8.92735
276.328	9.77496
278.127	10.249
279.927	9.77379
281.726	8.83049
283.525	8.99279
285.323	9.09318
287.121	9.82418
288.919	11.2531
290.716	12.2507
292.513	11.3369
294.31	12.4655
296.104	13.0581
297.9	13.5359
299.696	13.4824
301.491	13.1093
303.286	13.6513
305.081	14.4979
306.875	14.8386
308.669	15.1622
310.463	17.002
312.256	18.1711
314.047	18.5301
315.839	19.0373
317.631	19.3677
319.423	21.4176
321.215	21.8274
323.006	22.0631
324.794	22.4131
326.585	22.828
328.375	22.8092
330.165	22.6238
331.954	23.5761
333.741	24.443
335.53	25.45
337.318	26.5157
339.106	26.663
340.894	25.7866
342.679	25.7526
344.466	25.9819
346.253	26.9025
348.039	26.5695
349.823	25.7974
351.608	25.4952
353.393	25.2609
355.176	24.3666
356.961	22.6295
358.745	22.3741
360.529	21.8306
362.31	21.7899
364.093	21.383
365.876	20.6823
367.657	20.2119
369.439	18.8776
371.221	18.777
373	18.9218
374.781	19.1474
376.56	19.679
378.34	18.9366
380.12	18.0906
381.898	17.8237
383.677	18.3387
385.456	17.4171
387.233	16.8738
389.011	15.4069
390.787	14.6035
392.565	14.6383
394.34	14.9511
396.117	14.2162
397.894	14.4673
399.668	15.1266
401.444	15.129
403.217	14.877
404.993	15.92
406.766	16.5233
408.54	17.2612
410.312	17.1456
412.086	19.4198
413.858	20.7801
415.631	20.6946
417.402	20.3758
419.174	21.8686
420.944	22.914
422.716	23.8376
424.486	22.3646
426.257	22.1154
428.025	21.1155
429.794	19.6881
431.564	18.447
433.332	17.7458
435.101	16.6878
436.868	14.3203
438.637	14.1121
440.403	13.9894
442.169	13.8946
443.937	14.2345
445.703	15.5349
447.468	17.0076
449.234	18.2239
450.999	18.8044
452.765	18.8996
454.528	19.7501
456.292	20.5041
458.057	21.6599
459.819	23.4334
461.582	25.1413
463.344	25.8859
465.107	26.9501
466.868	27.8591
468.629	28.4404
470.392	28.9303
472.152	29.7543
473.912	30.4688
475.672	30.9545
477.433	32.1402
479.192	33.5547
480.951	34.7782
482.709	35.3758
484.469	35.6264
486.226	37.7392
487.984	39.5684
489.74	40.5708
491.499	42.5216
493.255	44.3117
495.011	44.6909
496.767	45.6608
498.522	45.7104
500.277	45.3618
502.033	44.9388
503.788	43.205
505.541	42.8602
507.295	42.7237
509.048	42.5483
510.801	41.2606
512.553	38.8487
514.308	38.5006
516.06	36.6533
517.811	35.1467
519.562	33.8594
521.313	32.6956
523.063	30.4983
524.814	30.0775
526.563	29.6415
528.313	28.4354
530.062	27.9573
531.811	25.368
533.559	23.9021
535.308	22.8664
537.055	23.7168
538.803	22.6416
540.55	22.9087
542.297	23.132
544.043	23.6532
545.789	23.9805
547.535	24.019
549.281	23.8661
551.026	23.2355
552.771	23.6124
554.515	22.8983
556.259	22.1917
558.003	22.8016
559.747	23.6029
561.49	23.4555
563.233	23.141
564.975	22.956
566.717	22.0855
568.459	22.4741
570.2	22.1875
571.942	22.5476
573.68	23.2119
575.421	23.2157
577.161	23.5054
578.901	23.727
580.64	23.9594
582.379	24.0551
584.118	23.8104
585.855	23.0677
587.593	23.3819
589.331	24.5448
591.068	24.6311
592.805	24.802
594.54	25.039
596.277	24.258
598.013	23.0743
599.749	22.5816
601.484	21.8423
603.217	20.8235
604.952	19.5685
606.687	17.8987
608.421	16.4753
610.153	14.9578
611.886	14.0183
613.619	11.5167
615.35	10.6557
617.083	10.3482
618.815	9.56218
620.547	10.0244
622.276	9.70945
624.008	9.71824
625.738	8.81638
627.467	8.5865
629.197	7.81604
630.927	7.08429
632.655	7.15973
634.384	6.56506
636.113	5.19396
637.839	4.86951
639.568	4.79596
641.293	4.46096
643.021	4.40561
644.748	4.08859
646.473	3.98133
648.2	3.61779
649.924	3.06137
651.65	3.92339
653.376	4.5345
655.099	5.17522
656.824	4.28287
658.546	4.92473
660.271	5.90317
661.993	7.60343
663.716	8.24911
665.438	8.61949
667.161	8.81903
668.881	9.51626
670.604	9.48631
672.324	9.86191
674.045	10.328
675.765	10.6177
677.486	10.9456
679.204	9.98461
680.925	11.4345
682.643	11.2826
684.361	11.8655
686.08	12.4979
687.797	13.295
689.516	14.0309
691.232	14.1375
692.95	14.8062
694.666	14.9841
696.382	14.9405
698.099	15.2877
699.813	15.5629
701.528	16.3059
703.244	16.4253
704.958	17.2741
706.673	16.2516
708.387	17.0028
710.099	17.3729
711.814	18.5243
713.526	19.6693
715.238	21.1289
716.949	21.4756
718.663	22.2217
720.374	23.0554
722.084	23.3611
723.796	25.1918
725.506	25.8026
727.216	25.6404
728.925	26.5813
730.636	27.3649
732.345	28.8588
734.053	29.8864
735.761	30.6305
737.471	32.8115
739.178	33.7936
740.885	34.7351
742.592	36.268
744.298	38.4547
746.006	40.3858
747.712	42.0598
749.417	43.0141
751.122	44.1043
752.827	45.6001
754.532	47.4074
756.236	47.1088
757.942	48.5451
759.645	49.8226
761.348	50.7893
763.051	52.5928
764.753	53.6964
766.456	55.1638
768.158	55.485
769.859	56.491
771.56	58.2965
773.261	59.5236
774.964	59.6256
776.664	59.8596
778.364	59.7273
780.064	59.218
781.763	58.7308
783.462	58.7396
785.16	58.5713
786.859	58.3094
788.557	58.6599
790.255	59.2352
791.952	58.8134
793.649	59.756
795.346	60.2533
797.042	60.9878
798.738	61.8055
800.434	62.2506
802.127	62.3247
803.823	62.2292
805.517	62.4709
807.212	60.9907
808.906	61.8101
810.6	61.4275
812.293	61.7929
813.987	63.535
815.68	64.8739
817.372	65.8923
819.064	67.7153
820.754	68.2906
822.446	70.3344
824.137	71.3759
825.828	72.9468
827.519	75.4457
829.209	76.2211
830.897	77.956
832.587	78.8998
834.276	79.5939
835.966	79.8977
837.654	80.1466
839.341	79.9852
841.029	79.6
842.717	80.3087
844.404	79.1282
846.091	78.8835
847.776	78.9905
849.463	78.1959
851.149	75.231
852.833	74.3117
854.519	73.4148
856.204	72.4856
857.889	70.333
859.572	68.4193
861.256	67.0206
862.94	64.59
864.622	63.0039
866.305	61.1327
867.988	58.6357
869.669	56.698
871.351	55.2841
873.033	53.6362
874.713	52.0086
876.395	49.8452
878.074	48.039
879.755	46.179
881.435	45.1369
883.114	44.6235
884.794	42.8684
886.471	41.4009
888.15	39.6214
889.829	40.3429
891.506	39.6436
893.184	40.072
894.861	39.9573
896.538	40.321
898.214	41.0084
899.891	42.1044
901.566	43.0375
903.242	43.847
904.916	44.8193
906.592	48.1952
908.266	49.6642
909.941	52.0384
911.614	53.4701
913.288	54.735
914.961	56.7992
916.635	57.9808
918.306	59.144
919.979	59.7757
921.651	61.016
923.321	61.4164
924.994	61.695
926.664	62.6749
928.336	62.36
930.005	62.6461
931.674	61.4543
933.345	60.3551
935.014	58.2252
936.682	58.8993
938.352	57.9465
940.019	56.5012
941.687	55.1766
943.356	54.3779
945.022	52.3036
946.689	50.5835
948.357	48.9755
950.022	46.7144
951.688	44.7805
953.355	43.2562
955.02	41.5341
956.684	38.1283
958.348	36.5485
960.014	33.5261
961.678	31.6652
963.341	30.2585
965.004	31.1471
966.669	29.9791
968.331	29.0893
969.993	29.6048
971.655	29.1519
973.316	30.1084
974.979	28.1247
976.64	27.9142
978.3	28.3848
979.961	29.0269
981.62	29.8564
983.28	30.5268
984.941	30.9341
986.6	30.8937
988.259	32.2171
989.917	33.532
991.575	34.2979
993.233	36.0065
994.89	36.6931
996.547	37.4415
998.204	38.3248
999.86	39.4875
1001.52	40.1332
1003.17	40.6469
1004.83	41.756
1006.49	42.8648
1008.14	43.7522
1009.79	44.0377
1011.45	44.0216
1013.1	43.8855
1014.76	44.3097
1016.41	45.5373
1018.06	45.4179
1019.72	45.9649
1021.37	46.0316
1023.02	46.4647
1024.67	47.6466
1026.32	47.5934
1027.97	47.3562
1029.62	47.3248
1031.27	46.0216
1032.92	45.0894
1034.57	43.83
1036.22	42.635
1037.87	41.5268
1039.52	40.2831
1041.17	39.5774
1042.82	38.1603
1044.47	39.0675
1046.11	39.1529
1047.76	39.1749
1049.41	37.7686
1051.06	37.3292
1052.7	36.0605
1054.35	35.1933
1055.99	33.8603
1057.64	32.1828
1059.28	31.6261
1060.93	30.9288
1062.57	29.6665
1064.22	29.0954
1065.86	28.6862
1067.5	28.6385
1069.15	27.7843
1070.79	28.6116
1072.43	29.4631
1074.08	29.8381
1075.72	30.011
1077.36	30.5012
1079	31.319
1080.64	32.2797
1082.28	32.8949
1083.92	33.532
1085.56	34.37
1087.2	35.0956
1088.84	36.3336
1090.48	36.6958
1092.12	38.0072
1093.76	39.8142
1095.39	41.1767
1097.03	43.4117
1098.67	44.2785
1100.31	45.6146
1101.94	46.9773
1103.58	47.9482
1105.22	49.1557
1106.85	49.7676
1108.49	50.2088
1110.12	51.0388
1111.76	50.5183
1113.39	50.2374
1115.03	50.2569
1116.66	49.8325
1118.29	49.4673
1119.93	48.493
1121.56	48.5677
1123.19	48.6014
1124.82	47.9348
1126.46	48.1001
1128.09	47.0273
1129.72	46.8929
1131.35	45.9911
1132.98	44.7335
1134.61	42.7052
1136.24	41.7848
1137.87	39.1165
1139.5	38.358
1141.13	37.4198
1142.76	35.9034
1144.39	33.935
1146.01	32.735
1147.64	30.5961
1149.27	29.1189
1150.9	27.3767
1152.53	26.6249
1154.15	24.9005
1155.78	22.9359
1157.4	21.1423
1159.03	19.2475
1160.65	16.3375
1162.28	14.3183
1163.9	12.271
1165.53	10.9103
1167.15	9.68823
1168.78	8.76495
1170.4	8.63569
1172.02	8.0308
1173.65	7.95863
1175.27	7.90328
1176.89	7.75117
1178.51	7.70059
1180.14	7.77381
1181.76	8.13998
1183.38	8.24207
1185	8.13021
1186.62	8.54536
1188.24	9.18684
1189.86	9.86662
1191.48	10.0886
1193.1	10.3252
1194.71	11.6593
1196.33	12.2113
1197.95	12.486
1199.57	14.3964
1201.19	15.7041
1202.8	18.4752
1204.42	20.674
1206.04	21.6735
1207.65	24.1349
1209.27	26.2029
1210.88	27.8358
1212.5	29.3449
1214.12	31.7867
1215.73	33.225
1217.35	36.371
1218.96	38.7743
1220.57	40.9894
1222.19	43.3148
1223.8	43.7772
1225.41	46.2462
1227.03	48.8651
1228.64	51.2464
1230.25	54.222
1231.86	55.8685
1233.47	57.3581
1235.08	58.2414
1236.69	58.9268
1238.31	59.6747
1239.92	60.7935
1241.52	61.5031
1243.13	62.3327
1244.74	62.9837
1246.35	64.1428
1247.96	65.4496
1249.57	65.3859
1251.18	65.6178
1252.78	66.2611
1254.39	66.2516
1256	66.3771
1257.6	66.1228
1259.21	66.0722
1260.82	66.0086
1262.42	65.7606
1264.03	64.8913
1265.63	63.4822
1267.24	62.8374
1268.84	62.2296
1270.45	61.3369
1272.05	60.4873
1273.65	58.8772
1275.26	58.2577
1276.86	57.6192
1278.46	57.6083
1280.06	58.4594
1281.67	58.7238
1283.27	59.7393
1284.87	59.7532
1286.47	59.5717
1288.07	59.4429
1289.67	59.6819
1291.27	59.6555
1292.87	60.731
1294.47	61.2992
1296.07	62.0077
1297.67	62.3006
1299.27	62.26
1300.87	63.4398
1302.47	65.4086
1304.06	67.1784
1305.66	70.616
1307.26	72.8187
1308.85	74.8374
1310.45	77.002
1312.05	78.5107
1313.64	80.5575
1315.24	82.6708
1316.83	83.5641
1318.43	85.6477
1320.02	87.9951
1321.62	89.7039
1323.21	92.1108
1324.8	94.2479
1326.4	96.4323
1327.99	98.5541
1329.59	100.108
1331.18	101.875
1332.77	102.862
1334.36	103.495
1335.95	104.512
1337.54	105.14
1339.14	105.819
1340.73	106.076
1342.32	105.813
1343.91	104.844
1345.5	104.248
1347.09	102.941
1348.67	101.359
1350.26	100.398
1351.85	99.2229
1353.44	98.374
1355.03	97.3725
1356.62	95.8959
1358.2	92.9362
1359.79	90.6487
1361.38	88.5057
1362.96	85.7142
1364.55	83.296
1366.14	80.6703
1367.72	78.5353
1369.31	76.314
1370.89	74.2797
1372.48	72.7774
1374.06	70.7999
1375.64	69.8408
1377.23	67.902
1378.81	67.5766
1380.39	66.477
1381.98	65.5193
1383.56	64.7472
1385.14	64.255
1386.72	63.3021
1388.3	62.2827
1389.89	61.9078
1391.47	60.8161
1393.05	59.6525
1394.63	59.175
1396.21	58.1185
1397.79	59.6104
1399.37	59.7887
1400.95	60.3729
1402.52	61.357
1404.1	61.5542
1405.68	62.371
1407.26	63.5361
1408.84	64.5014
1410.42	64.231
1411.99	64.8006
1413.57	66.671
1415.15	68.0333
1416.72	69.8968
1418.3	71.8523
1419.87	73.7672
1421.45	75.2065
1423.02	77.8155
1424.6	79.6685
1426.17	81.9019
1427.75	85.355
1429.32	88.5442
1430.89	91.5096
1432.47	94.1612
1434.04	96.1583
1435.61	98.6068
1437.18	100.542
1438.76	102.828
1440.33	105.095
1441.9	107.263
1443.47	109.673
1445.04	110.215
1446.61	110.913
1448.18	111.105
1449.75	111.571
1451.32	112.266
1452.89	112.129
1454.46	112.067
1456.03	110.811
1457.6	109.035
1459.16	106.38
1460.73	103.927
1462.3	100.854
1463.87	98.5805
1465.43	93.9029
1467	89.5513
1468.56	85.7055
1470.13	81.2059
1471.7	77.3971
1473.26	73.5904
1474.83	69.2079
1476.39	65.3115
1477.96	60.8361
1479.52	56.6459
1481.08	52.4762
1482.65	48.7405
1484.21	45.791
1485.77	42.1861
1487.34	38.5588
1488.9	35.223
1490.46	32.7637
1492.02	30.5427
1493.58	27.8056
1495.15	26.2718
1496.71	24.743
1498.27	22.7196
1499.83	22.3591
1501.39	21.9107
1502.95	20.3065
1504.51	20.0616
1506.07	20.0191
1507.63	20.0488
1509.18	20.0541
1510.74	20.0515
1512.3	18.7308
1513.86	18.9342
1515.41	18.8457
1516.97	19.043
1518.53	20.0926
1520.08	20.4071
1521.64	20.3706
1523.2	19.0716
1524.75	19.4189
1526.31	20.3058
1527.86	21.5196
1529.42	22.5463
1530.97	22.962
1532.52	22.9688
1534.08	22.7862
1535.63	23.4687
1537.19	24.0439
1538.74	24.2193
1540.29	25.1131
1541.84	26.148
1543.4	26.8973
1544.95	30.0828
1546.5	31.0793
1548.05	32.6831
1549.6	34.4755
1551.15	35.6123
1552.7	37.1882
1554.25	38.9426
1555.8	40.8965
1557.35	42.377
1558.9	44.9824
1560.45	46.4368
1562	48.4666
1563.54	50.4437
1565.09	51.4278
1566.64	51.9079
1568.19	52.8921
1569.73	54.4847
1571.28	57.0861
1572.83	58.9967
1574.37	60.6239
1575.92	62.9896
1577.47	65.7385
1579.01	66.3477
1580.56	68.1187
1582.1	70.2184
1583.64	71.6192
1585.19	73.6407
1586.73	74.692
1588.28	75.8091
1589.82	75.467
1591.36	76.9276
1592.9	77.3867
1594.45	78.257
1595.99	77.8459
1597.53	77.1812
1599.07	76.2003
1600.61	75.2706
1602.15	75.396
1603.69	75.0928
1605.23	74.6402
1606.77	73.7091
1608.31	72.4329
1609.85	70.3223
1611.39	68.4588
1612.93	68.4934
1614.47	68.7997
1616.01	70.3477
1617.55	71.6141
1619.08	73.1122
1620.62	74.3796
1622.16	75.0618
1623.7	74.4155
1625.23	75.642
1626.77	76.7384
1628.3	77.6221
1629.84	78.2828
1631.37	79.0117
1632.91	79.357
1634.44	80.4736
1635.98	80.9433
1637.51	81.0617
1639.05	82.8141
1640.58	83.6061
1642.11	83.5384
1643.65	85.4828
1645.18	87.3175
1646.71	88.9635
1648.24	90.4249
1649.78	90.899
1651.31	92.2963
1652.84	93.7873
1654.37	93.6205
1655.9	93.0734
1657.43	92.7213
1658.96	92.1415
1660.49	91.1427
1662.02	91.194
1663.55	89.607
1665.08	86.9465
1666.61	84.5104
1668.14	82.7853
1669.66	80.8635
1671.19	77.6552
1672.72	74.3086
1674.25	72.0031
1675.77	69.1837
1677.3	65.8171
1678.83	62.9425
1680.35	59.3426
1681.88	56.204
1683.4	52.0073
1684.93	48.8052
1686.45	46.6657
1687.98	45.5297
1689.5	45.7623
1691.03	45.0717
1692.55	43.3102
1694.07	40.5615
1695.6	38.2632
1697.12	35.5939
1698.64	33.1118
1700.17	31.7327
1701.69	30.38
1703.21	28.7756
1704.73	27.0086
1706.25	24.6037
1707.77	23.3951
1709.29	22.6128
1710.81	21.7052
1712.33	19.3615
1713.85	18.9384
1715.37	18.7238
1716.89	17.6441
1718.41	16.4575
1719.93	15.7508
1721.45	14.7557
1722.97	14.209
1724.49	13.6337
1726	13.2001
1727.52	12.7013
1729.04	11.7869
1730.55	10.1889
1732.07	9.61028
1733.59	9.03928
1735.1	9.2116
1736.62	8.52146
1738.13	7.8521
1739.65	6.73494
1741.16	5.62759
1742.68	4.92269
1744.19	4.41384
1745.7	4.39865
1747.22	4.34008
1748.73	4.18941
1750.24	3.70611
1751.76	2.79778
1753.27	2.01705
1754.78	2.01096
1756.29	1.52413
1757.8	1.55137
1759.31	1.62007
1760.83	2.41423
1762.34	2.42101
1763.85	2.30196
1765.36	2.21637
1766.87	2.21781
1768.38	2.42219
1769.89	2.25282
1771.39	1.57371
1772.9	1.16827
1774.41	1.34455
1775.92	2.23397
1777.43	2.07761
1778.94	2.22091
1780.44	2.64128
1781.95	2.41743
1783.46	3.11672
1784.96	3.3041
1786.47	3.08338
1787.97	3.49704
1789.48	4.70135
1790.99	4.59326
1792.49	4.89331
1794	5.43428
1795.5	5.78387
1797	6.12546
1798.51	6.15525
1800.01	6.22097
1801.51	5.74983
1803.02	5.01846
1804.52	4.52026
1806.02	4.29003
1807.53	4.34503
1809.03	4.09287
1810.53	4.17415
1812.03	3.95444
1813.53	3.63456
1815.03	3.86724
1816.53	3.59392
1818.03	3.65968
1819.53	4.35782
1821.03	4.74525
1822.53	4.49341
1824.03	4.27578
1825.53	4.71114
1827.03	4.69815
1828.53	4.28772
1830.02	4.14788
1831.52	4.03431
1833.02	4.19946
1834.52	4.24871
1836.01	4.23012
1837.51	4.1758
1839.01	4.24313
1840.5	4.11501
1842	3.71012
1843.49	3.4946
1844.99	2.98413
1846.48	2.51904
1847.98	2.64999
1849.47	3.01662
1850.97	3.50151
1852.46	3.11587
1853.95	3.27893
1855.45	2.64758
1856.94	2.91068
1858.43	3.43904
1859.93	4.00743
1861.42	3.9826
1862.91	4.0179
1864.4	3.54557
1865.89	3.22483
1867.38	3.81145
1868.87	4.15636
1870.36	3.75384
1871.85	3.57576
1873.34	3.31959
1874.83	3.24307
1876.32	2.47629
1877.81	2.52624
1879.3	2.35409
1880.79	3.21347
1882.28	3.19959
1882.52	3.2898
1884.02	3.11494
1885.51	3.07334
1887.01	3.29703
1888.5	3.0127
1889.99	2.94328
1891.49	3.55666
1892.98	3.46109
1894.47	3.24834
1895.97	2.60404
1897.46	3.03319
1898.95	3.07761
1900.44	2.5319
1901.93	3.08053
1903.42	3.33006
1904.91	3.27261
1906.4	3.93974
1907.89	4.23758
1909.38	4.48299
1910.87	4.85515
1912.36	4.9937
1913.85	4.51504
1915.34	4.82514
1916.83	5.19924
1918.32	5.79899
1919.8	6.20333
1921.29	6.72789
1922.78	7.31356
1924.27	7.99177
1925.75	8.05686
1927.24	8.34523
1928.73	8.55115
1930.21	9.32393
1931.7	10.1331
1933.18	10.1449
1934.67	10.2726
1936.15	10.6562
1937.64	11.074
1939.12	11.7993
1940.61	11.7624
1942.09	11.4968
1943.57	10.2881
1945.06	10.5578
1946.54	10.4433
1948.02	9.48632
1949.51	8.15646
1950.99	8.49911
1952.47	8.20594
1953.95	8.61837
1955.43	7.43467
1956.91	6.38279
1958.4	5.57978
1959.88	5.98704
1961.36	5.64729
1962.84	4.69053
1964.32	4.24622
1965.8	3.56198
1967.27	2.69144
1968.75	1.92825
1970.23	1.0004
1971.71	1.04905
1973.19	0.725668
1974.67	0.514538
1976.14	0.758005
1977.62	1.12284
1979.1	1.24864
1980.58	1.37874
1982.05	1.36221
1983.53	1.73837
1985	2.11662
1986.48	2.45896
1987.95	3.11118
1989.43	4.02154
1990.9	4.74944
1992.38	5.62243
1993.85	5.59791
1995.33	6.503
1996.8	7.00981
1998.27	7.82522
1999.75	7.88497
2001.22	7.46587
2002.69	7.98149
2004.16	8.35069
2005.64	8.19038
2007.11	8.21005
2008.58	8.54817
2010.05	8.52124
2011.52	8.28667
2012.99	8.28842
2014.46	7.86043
2015.93	7.91794
2017.4	7.64402
2018.87	8.54369
2020.34	7.94592
2021.81	7.98912
2023.28	8.06425
2024.75	8.97082
2026.22	8.90172
2027.69	8.60516
2029.15	7.55512
2030.62	7.80638
2032.09	8.28039
2033.56	8.59317
2035.02	8.19016
2036.49	7.89974
2037.96	8.16992
2039.42	7.45211
2040.89	7.70382
2042.35	7.84387
2043.82	7.49265
2045.28	8.00298
2046.75	8.41604
2048.21	8.44907
2049.67	8.56374
2051.14	8.40619
2052.6	7.32681
2054.07	7.66677
2055.53	8.24399
2056.99	8.21275
2058.45	7.64656
2059.92	7.84294
2061.38	7.3895
2062.84	6.1808
2064.3	5.74649
2065.76	5.45183
2067.22	5.26439
2068.68	4.9898
2070.14	4.50659
2071.6	3.77384
2073.06	2.79941
2074.52	2.6146
2075.98	2.98785
2077.44	2.61502
2078.9	2.22775
2080.36	2.38188
2081.82	1.73782
2083.27	2.1061
2084.73	2.03313
2086.19	2.2036
2087.65	1.93112
2089.1	2.22511
2090.56	2.44308
2092.02	2.78761
2093.47	2.38837
2094.93	2.26297
2096.38	2.13344
2097.84	2.64049
2099.29	2.6201
2100.75	2.78036
2102.2	3.23518
2103.66	4.45493
2105.11	4.15788
2106.56	4.19898
2108.02	4.55519
2109.47	5.56344
2110.92	5.404
2112.38	4.53514
2113.83	5.26357
2115.28	5.55171
2116.73	5.58626
2118.18	6.06739
2119.63	5.57234
2121.09	5.07553
2122.54	5.55478
2123.99	5.69191
2125.44	5.93228
2126.89	6.60495
2128.34	6.54837
2129.79	6.34395
2131.23	6.9906
2132.68	6.9722
2134.13	6.69091
2135.58	7.05825
2137.03	8.60808
2138.48	9.58562
2139.92	9.54356
2141.37	9.33536
2142.82	10.4316
2144.27	9.96987
2145.71	10.4723
2147.16	10.8174
2148.6	11.2289
2150.05	11.5723
2151.49	11.6318
2152.94	12.0013
2154.38	12.0951
2155.83	12.3713
2157.27	12.2043
2158.72	11.8437
2160.16	11.8624
2161.6	12.2084
2163.05	11.9477
2164.49	11.3544
2165.93	10.9946
2167.38	10.5383
2168.82	10.7381
2170.26	10.661
2171.7	11.2058
2173.14	11.1145
2174.58	11.2758
2176.03	11.2137
2177.47	10.8233
2178.91	10.8942
2180.35	10.593
2181.79	10.7517
2183.23	9.65544
2184.67	9.9391
2186.1	10.2446
2187.54	10.4218
2188.98	10.2418
2190.42	9.85104
2191.86	9.55516
2193.3	9.80251
2194.73	9.83146
2196.17	9.32025
2197.61	8.89751
2199.05	8.55803
2200.48	8.01609
2201.92	8.17316
2203.35	8.08075
2204.79	7.54835
2206.22	7.99312
2207.66	8.4544
2209.1	8.39111
2210.53	8.15324
2211.97	7.74323
2213.4	7.78501
2214.83	7.7411
2216.27	7.05647
2217.7	7.59865
2219.13	7.64915
2220.57	7.75231
2222	7.74216
2223.43	7.17207
2224.86	6.80303
2226.29	6.20554
2227.72	6.04552
2229.16	5.99976
2230.59	5.73538
2232.02	6.25898
2233.45	6.11905
2234.88	5.7656
2236.31	5.44564
2237.74	5.83273
2239.17	5.46555
2240.6	6.77936
2242.03	7.01063
2243.45	7.81294
2244.88	7.42879
2246.31	8.29145
2247.74	7.97829
2249.17	8.43768
2250.59	7.98186
2252.02	8.01935
2253.45	8.44767
2254.87	8.81913
2256.3	8.29769
2257.73	8.01903
2259.15	7.43861
2260.58	7.2555
2262	6.87141
2263.43	6.22451
2264.85	5.93267
2266.28	5.89538
2267.7	5.54555
2269.13	5.1674
2270.55	5.58739
2271.97	6.063
2273.4	7.39484
2274.82	7.06632
2276.24	6.85515
2277.67	6.99122
2279.09	6.82901
2280.51	6.48501
2281.93	6.58598
2283.35	6.04697
2284.77	5.80974
2286.2	5.32275
2287.62	5.57083
2289.04	5.83485
2290.46	5.64595
2291.88	5.27947
2293.3	4.6748
2294.72	4.72868
2296.13	5.06104
2297.55	5.82034
2298.97	6.47035
2300.39	7.21746
2301.81	7.67787
2303.23	8.52335
2304.64	8.27448
2306.06	8.84382
2307.48	9.03836
2308.89	9.84448
2310.31	10.5986
2311.73	11.2065
2313.14	10.8324
2314.56	10.97
2315.98	11.3582
2317.39	11.1642
2318.81	10.9052
2320.22	10.9997
2321.64	10.0168
2323.05	10.2295
2324.46	10.0673
2325.88	10.1878
2327.29	9.09249
2328.7	9.14469
2330.12	8.93359
2331.53	8.34595
2332.94	7.57568
2334.35	7.52186
2335.77	7.47228
2337.18	7.11498
2338.59	6.45272
2340	6.74911
2341.41	6.71763
2342.82	6.50359
2344.23	5.70792
2345.64	4.16296
2347.05	3.24514
2348.46	3.25407
2349.87	2.42196
2351.28	1.72015
2352.69	1.0191
2354.1	0.552613
2355.51	0.352154
2356.91	0.358357
2358.32	0.281548
2359.73	-0.00641627
2361.14	-0.514589
2362.54	-0.175555
2363.95	0.155499
2365.36	1.47644
2366.76	1.46418
2368.17	1.50174
2369.58	2.09477
2370.98	2.28078
2372.39	2.6802
2373.79	3.25422
2375.2	3.50602
2376.6	3.62211
2378	3.8504
2379.41	5.02854
2380.81	5.72074
2382.22	5.97613
2383.62	7.11637
2385.02	7.22743
2386.43	7.73464
2387.83	6.98815
2389.23	7.89732
2390.63	7.77379
2392.03	7.70331
2393.44	7.68857
2394.84	7.51048
2396.24	7.52013
2397.64	6.89654
2399.04	7.54278
2400.44	7.73825
2401.84	7.54512
2403.24	8.12596
2404.64	8.63307
2406.04	8.59792
2407.44	8.84737
2408.84	9.06881
2410.23	9.58463
2411.63	9.66672
2413.03	9.85006
2414.43	9.51884
2415.83	9.75172
2417.22	9.48474
2418.62	9.91804
2420.02	9.08878
2421.41	9.28868
2422.81	9.76286
2424.21	10.4552
2425.6	10.195
2427	10.5087
2428.39	10.3754
2429.79	10.4847
2431.18	10.1957
2432.58	10.0788
2433.97	9.90613
2435.36	10.0666
2436.76	9.64351
2438.15	10.6742
2439.54	10.9411
2440.94	10.4213
2442.33	10.5416
2443.72	11.0665
2445.12	11.0485
2446.51	10.4075
2447.9	11.2575
2449.29	11.4471
2450.68	10.5833
2452.07	9.92935
2453.46	9.20088
2454.85	8.30836
2456.24	7.89
2457.64	7.16927
2459.02	7.6544
2460.41	6.26999
2461.8	5.958
2463.19	6.00456
2464.58	6.00659
2465.97	5.78853
2467.36	5.35054
2468.75	5.57511
2470.13	5.13139
2471.52	4.70718
2472.91	4.87225
2474.3	5.40315
2475.68	4.99134
2477.07	5.10827
2478.45	4.70163
2479.84	4.39466
2481.23	4.36109
2482.61	4.00205
2484	3.86593
2485.38	3.11161
2486.77	2.82536
2488.15	2.8474
2489.54	1.85441
2490.92	1.89955
2492.3	2.02397
2493.69	1.38374
2495.07	1.18413
2496.45	0.985763
2497.84	0.828519
2499.22	0.289631
2500.6	-0.149482
2501.98	0.240895
2503.36	0.0677064
2504.75	-0.270632
2506.13	-0.526557
2507.51	0.072007
2508.89	-0.419037
2510.27	-0.383824
2511.65	0.690234
2513.03	1.61723
2514.41	0.670273
2515.79	0.71529
2517.17	1.66941
2518.55	1.42443
2519.93	1.04054
2521.3	2.13914
2522.68	2.24714
2524.06	2.13881
2525.44	2.21826
2526.82	1.97215
2528.19	2.57176
2529.57	2.5078
2530.95	3.07556
2532.32	2.93432
2533.7	2.52444
2535.08	2.69803
2536.45	3.44319
2537.83	3.88645
2539.2	4.42545
2540.58	4.64743
2541.95	4.86385
2543.33	5.03602
2544.7	5.21259
2546.08	5.96823
2547.45	5.77835
2548.82	5.78258
2550.2	6.00569
2551.57	6.00863
2552.94	5.95812
2554.32	5.95283
2555.69	6.07472
2557.06	5.47911
2558.43	4.94253
2559.8	5.47856
2561.18	6.1227
2562.55	5.22628
2563.92	4.97184
2565.29	4.43245
2566.66	4.2131
2568.03	3.44074
2569.4	3.13047
2570.77	2.23049
2572.14	1.43695
2573.51	2.42073
2574.88	2.13008
2576.25	2.92716
2577.61	3.43505
2578.98	3.56817
2580.35	3.76798
2581.72	2.97891
2583.09	2.30635
2584.45	2.49531
2585.82	2.45488
2587.19	1.76606
2588.55	1.51301
2589.92	1.79837
2591.29	0.551088
2592.65	0.282377
2594.02	0.537156
2595.38	0.0633593
2596.75	0.295149
2598.11	0.0347622
2599.48	-0.00869749
2600.84	0.00645655
2602.21	0.346963
2603.57	0.766287
2604.93	1.59971
2606.3	1.46142
2607.66	2.043
2609.02	2.23978
2610.39	2.59441
2611.75	3.21346
2613.11	3.28714
2614.47	2.53056
2615.83	2.53803
2617.19	2.7643
2618.56	3.14476
2619.92	3.52604
2621.28	3.43577
2622.64	3.2257
2624	2.77254
2625.36	3.16791
2626.72	4.22247
2628.08	4.76305
2629.44	4.70995
2630.8	4.2942
2632.15	4.17667
2633.51	4.29392
2634.87	4.18569
2636.23	4.28302
2637.59	4.77885
2638.94	4.9691
2640.3	6.20958
2641.66	6.75809
2643.02	6.44165
2644.37	7.16868
2645.73	7.1763
2647.09	6.74694
2648.44	6.70477
2649.8	6.12571
2651.15	6.79275
2652.51	6.60276
2653.86	6.87692
2655.22	6.89552
2656.57	7.14867
2657.93	7.25859
2659.28	7.06553
2660.63	6.88343
2661.99	6.76594
2663.34	6.27966
2664.69	6.26481
2666.05	6.39287
2667.4	6.26399
2668.75	6.1713
2670.1	6.11543
2671.45	5.66625
2672.81	5.39613
2674.16	5.23879
2675.51	5.68228
2676.86	5.02933
2678.21	4.55148
2679.56	4.06931
2680.91	4.29203
2682.26	4.28092
2683.61	4.48104
2684.96	3.99468
2686.31	3.96687
2687.66	4.25491
2689	4.26962
2690.35	4.55117
2691.7	4.62113
2693.05	5.22907
2694.4	5.26914
2695.74	4.63519
2697.09	4.79223
2698.44	5.29684
2699.79	5.81848
2701.13	6.59902
2702.48	7.30718
2703.83	7.9422
2705.17	8.66885
2706.52	8.57403
2707.86	9.2029
2709.21	9.88706
2710.55	10.5579
2711.9	11.1947
2713.24	11.3245
2714.58	11.1762
2715.93	11.5646
2717.27	11.6859
2718.62	12.1569
2719.96	12.4342
2721.3	12.6494
2722.65	12.4279
2723.99	11.904
2725.33	11.1601
2726.67	10.9117
2728.01	10.5119
2729.35	11.0349
2730.7	11.1436
2732.04	11.386
2733.38	11.7172
2734.72	11.6284
2736.06	11.8945
2737.4	11.2487
2738.74	10.8947
2740.08	10.9437
2741.42	11.3623
2742.76	11.0387
2744.1	9.88917
2745.43	9.58083
2746.77	9.94521
2748.11	9.97599
2749.45	8.96345
2750.79	9.17848
2752.12	9.32817
2753.46	9.39677
2754.8	9.19303
2756.14	9.02152
2757.47	8.75743
2758.81	8.21508
2760.14	8.62275
2761.48	8.55135
2762.81	9.09872
2764.15	9.06003
2765.49	9.34221
2766.82	9.17159
2768.16	8.89896
2769.49	8.70772
2770.82	8.38193
2772.16	8.41303
2773.49	7.46708
2774.82	7.31131
2776.16	6.95927
2777.49	6.50286
2778.82	5.93493
2780.16	5.33915
2781.49	5.31549
2782.82	5.21927
2784.15	4.25955
2785.48	3.94197
2786.82	3.57367
2788.15	2.82551
2789.48	1.97665
2790.81	1.76244
2792.14	1.82184
2793.47	2.20723
2794.8	2.05474
2796.13	2.175
2797.46	1.7734
2798.79	0.752225
2800.12	0.438161
2801.44	0.0455997
2802.77	-0.0461585
2804.1	0.0065628
2805.43	-0.0112892
2806.76	-0.131002
2808.08	-0.00708919
2809.41	-0.628764
2810.74	-0.480625
2812.07	0.00145174
2813.39	1.14415
2814.72	0.646029
2816.05	1.42656
2817.37	2.6094
2818.7	3.47538
2820.02	4.68798
2821.35	6.44886
2822.67	8.45479
2824	10.6374
2825.32	13.2123
2826.65	16.0272
2827.97	18.3901
2829.3	21.3563
2830.62	23.5692
2831.94	26.9218
2833.26	29.9299
2834.59	32.3969
2835.91	35.5375
2837.23	39.8499
2838.56	44.062
2839.88	47.95
2841.2	53.1009
2842.52	58.3602
2843.84	64.0585
2845.16	69.0802
2846.48	74.2041
2847.8	79.6054
2849.12	84.8139
2850.45	89.9892
2851.77	96.5133
2853.08	102.751
2854.4	109.51
2855.72	116.059
2857.04	122.709
2858.36	129.368
2859.68	135.537
2861	141.643
2862.32	147.771
2863.63	153.709
2864.95	159.613
2866.27	167.284
2867.59	173.156
2868.9	179.307
2870.22	184.185
2871.54	188.931
2872.85	194.893
2874.17	200.221
2875.48	206.187
2876.8	211.583
2878.11	216.256
2879.43	220.961
2880.74	225.589
2882.06	230.972
2883.37	235.613
2884.69	239.84
2886	244.327
2887.31	249.174
2888.63	253.33
2889.94	257.705
2891.25	261.737
2892.57	266.259
2893.88	270.147
2895.19	274.084
2896.5	278.544
2897.82	282.711
2899.13	287.23
2900.44	291.106
2901.75	296.964
2903.06	302.032
2904.37	306.424
2905.68	311.646
2906.99	317.24
2908.3	321.887
2909.61	327.566
2910.92	332.868
2912.23	338.534
2913.54	344.759
2914.85	350.086
2916.16	354.916
2917.46	360.669
2918.77	365.355
2920.08	369.003
2921.39	372.281
2922.7	374.4
2924	376.769
2925.31	377.574
2926.62	379.419
2927.92	380.141
2929.23	381.028
2930.54	380.971
2931.84	380.522
2933.15	378.474
2934.45	376.823
2935.76	374.005
2937.06	371.873
2938.37	368.573
2939.67	364.116
2940.98	359.429
2942.28	353.413
2943.58	348.25
2944.89	342.293
2946.19	336.325
2947.49	329.931
2948.8	323.278
2950.1	316.553
2951.4	310.954
2952.7	304.223
2954.01	296.424
2955.31	289.347
2956.61	282.522
2957.91	275.704
2959.21	268.307
2960.51	261.839
2961.81	254.92
2963.11	247.858
2964.41	241.333
2965.71	233.872
2967.01	227.926
2968.31	221.505
2969.61	216.362
2970.91	211.172
2972.21	205.483
2973.51	199.343
2974.81	194.374
2976.1	189.312
2977.4	183.37
2978.7	177.156
2980	170.784
2981.29	164.287
2982.59	158.693
2983.89	152.035
2985.18	145.441
2986.48	138.618
2987.78	132.183
2989.07	126.532
2990.37	120.328
2991.66	114.907
2992.96	108.425
2994.25	102.452
2995.55	96.3816
2996.84	91.3956
2998.14	85.3213
2999.43	79.8985
3000.73	74.2756
3002.02	68.4555
3003.31	62.6324
3004.61	57.2866
3005.9	51.7045
3007.19	47.1256
3008.48	43.2142
3009.77	38.5268
3011.07	34.8661
3012.36	31.1622
3013.65	27.4134
3014.94	24.1149
3016.23	21.4096
3017.52	17.3187
3018.81	14.5067
3020.1	12.6249
3021.4	10.8751
3022.68	8.57232
3023.97	6.97244
3025.26	5.78686
3026.55	4.38906
3027.84	3.60039
3029.13	2.64805
3030.42	1.52167
3031.71	1.48863
3033	1.92982
3034.28	2.31567
3035.57	2.94371
3036.86	2.92661
3038.15	3.53565
3039.43	5.09467
3040.72	6.24872
3042.01	7.38045
3043.29	8.46818
3044.58	9.48192
3045.87	10.3112
3047.15	12.1484
3048.44	13.3695
3049.72	14.7345
3051.01	15.3499
3052.29	16.6852
3053.58	18.0217
3054.86	18.6034
3056.15	19.3953
3057.43	20.226
3058.71	20.439
3060	20.9926
3061.28	20.8379
3062.56	19.9531
3063.84	20.3079
3065.13	19.6273
3066.41	18.2464
3067.69	17.6731
3068.97	16.9081
3070.26	16.1845
3071.54	16.293
3072.82	15.4364
3074.1	14.7341
3075.38	13.7777
3076.66	12.828
3077.94	12.4333
3079.22	11.4937
3080.5	10.9579
3081.78	9.53983
3083.06	8.79277
3084.34	7.29412
3085.62	5.89577
3086.9	5.21958
3088.18	5.07945
3089.45	4.01524
3090.73	2.93693
3092.01	2.14627
3093.29	1.51894
3094.56	1.14513
3095.84	1.99629
3097.12	2.46886
3098.4	2.52598
3099.67	3.18123
3100.95	2.78984
3102.22	3.28785
3103.5	3.83828
3104.78	4.29605
3106.05	5.54578
3107.33	5.67277
3108.6	6.46589
3109.88	7.49093
3111.15	8.66508
3112.43	9.24656
3113.7	10.2261
3114.97	10.921
3116.25	12.1686
3117.52	13.6909
3118.79	14.326
3120.07	15.053
3121.34	15.7727
3122.61	16.0926
3123.88	17.2626
3125.16	18.378
3126.43	19.8066
3127.7	20.9977
3128.97	21.6569
3130.24	22.2909
3131.51	24.0887
3132.79	25.7168
3134.06	27.2795
3135.33	29.0177
3136.6	30.074
3137.87	31.7472
3139.14	32.7601
3140.41	34.2804
3141.67	35.1565
3142.94	35.6867
3144.21	36.2381
3145.48	37.0367
3146.75	38.1789
3148.02	39.5718
3149.29	39.617
