#Acq. time (s)=	45
#Accumulations=	2
#Range (cm-¹)=	200...3150
#Windows=	2
#Auto scanning=	Off
#Autofocus=	Off
#Macrospot=	Off
#AutoExposure=	Off
#Spike filter=	Multiple accum.
#Delay time (s)=	0
#Binning=	1
#Readout mode=	Signal
#DeNoise=	Off
#ICS correction=	On
#Dark correction=	Off
#Inst. Process=	Off
#Detector Gain=	Best Dynamic Range
#Detector ADC=	20 kHz       
#Detector temperature (°C)=	-69.85
#Instrument=	LabRAM HR Evol
#Detector=	Synapse
#Objective=	x100
#Grating=	600 gr/mm
#ND Filter=	100%
#Laser (nm)=	532 
#Hole=	100.021
#Range=	Auto
#Laser Pol.=	No
#Raman. Pol.=	No
#Laser Pol. (°)=	-0.0007625
#Raman Pol. (°)=	89.9995
#Collection=	Microscope
#StageXY=	Marzhauser
#StageZ=	Marzhauser
#X (µm)=	4766.8
#Y (µm)=	-7717.9
#Z (µm)=	584.7
#Full time(mm:ss)=	3:19
#Project=	
#Sample=	
#Site=	
#Title=	Thy_30_10_25_2x_45s_532 nm_x100_100%_600 gr_mm
#Remark=	
#Date=	30.06.2022 13:17
#Acquired=	30.06.2022 13:17:31
#Base:Fit=	10.08.2022 09:58:11
#Base:Sub=	10.08.2022 09:58:44
#Filter:Polynom=	16.08.2022 10:22:53
#AxisType[0]=Intens
#AxisUnit[0]=Cnt
#AxisType[1]=Spectr
#AxisUnit[1]=1/cm
200.533	3.07825
202.348	2.88178
204.162	4.19406
205.976	3.34101
207.792	2.71672
209.605	2.69991
211.418	2.61575
213.23	2.44127
215.044	2.58924
216.856	3.07929
218.667	4.01114
220.478	4.52236
222.289	4.39039
224.102	4.35458
225.912	4.24611
227.721	3.92798
229.531	3.72908
231.34	5.553
233.148	6.94789
234.956	6.84261
236.766	7.19541
238.574	7.38195
240.381	7.6527
242.188	7.7868
243.994	7.79604
245.801	8.15682
247.606	9.33126
249.412	9.67036
251.217	10.6416
253.024	10.6967
254.828	11.1033
256.632	11.5689
258.436	10.9673
260.239	10.1145
262.042	9.67719
263.845	9.00914
265.647	8.71234
267.449	8.56311
269.25	7.97975
271.052	7.6913
272.852	7.89525
274.653	7.15396
276.453	7.46836
278.253	8.46202
280.052	8.04551
281.852	8.26451
283.65	7.87341
285.449	8.3523
287.247	7.91501
289.044	7.66608
290.842	7.60828
292.639	7.1105
294.436	6.0087
296.232	7.25838
298.028	7.46267
299.821	5.98122
301.617	5.59171
303.412	6.13934
305.206	6.86882
307	7.76933
308.794	7.88996
310.588	8.46444
312.381	8.73557
314.172	9.02405
315.964	9.31513
317.756	9.64028
319.548	11.4689
321.34	12.9814
323.131	12.5729
324.921	12.4042
326.71	12.3682
328.5	12.7525
330.29	11.9239
332.079	11.7874
333.868	11.9292
335.654	12.297
337.443	12.4446
339.231	11.4337
341.018	11.3002
342.804	9.80276
344.591	9.4821
346.377	9.14317
348.163	8.91316
349.947	9.18742
351.733	8.41698
353.518	7.06079
355.303	6.80667
357.085	7.30604
358.869	6.90414
360.653	7.65949
362.435	7.884
364.218	7.68446
366.001	8.41705
367.781	8.6036
369.563	8.29121
371.345	8.53489
373.124	9.15451
374.905	9.64562
376.686	9.28969
378.464	9.36852
380.244	8.75075
382.022	9.29701
383.801	9.73608
385.58	10.8458
387.357	11.0626
389.135	11.5675
390.911	13.0481
392.689	13.6595
394.466	14.1872
396.241	15.0836
398.018	15.522
399.792	15.3806
401.568	14.8198
403.341	14.0445
405.117	14.1889
406.889	14.6514
408.664	14.7135
410.436	13.0654
412.21	12.5876
413.981	12.3264
415.755	11.3548
417.525	11.0621
419.298	9.85705
421.068	10.0723
422.84	10.3074
424.609	9.45573
426.38	8.44141
428.149	7.64336
429.919	6.57513
431.688	6.1966
433.455	5.84885
435.225	5.81164
436.992	4.69173
438.76	4.50004
440.527	4.13565
442.293	3.52068
444.06	4.26278
445.826	4.48967
447.593	4.91193
449.357	5.17942
451.122	4.62071
452.888	4.24864
454.651	4.9399
456.415	5.30222
458.18	6.10878
459.942	5.99937
461.705	6.01956
463.469	6.81027
465.23	7.89219
466.991	7.89784
468.752	7.5875
470.515	7.95642
472.275	8.30276
474.035	8.13258
475.797	7.84303
477.556	7.9656
479.315	8.10491
481.073	9.07864
482.834	9.88051
484.592	10.457
486.349	10.6769
488.106	10.6146
489.863	11.292
491.622	11.39
493.378	12.3845
495.134	12.9687
496.889	13.6242
498.645	14.4323
500.401	15.1595
502.156	15.1896
503.91	15.5357
505.664	15.2111
507.417	15.2626
509.171	16.1718
510.923	16.3647
512.678	15.8721
514.43	16.3628
516.182	17.1742
517.933	16.872
519.684	17.9034
521.435	17.5239
523.186	18.5088
524.936	18.8883
526.686	20.308
528.435	19.5994
530.184	19.0188
531.933	19.4403
533.682	19.3471
535.43	18.8184
537.18	18.3366
538.927	17.9177
540.674	18.8331
542.421	18.8216
544.167	18.2762
545.913	18.2273
547.659	16.3178
549.403	16.4625
551.148	16.3931
552.893	15.1439
554.637	12.8173
556.381	12.1446
558.125	11.5839
559.868	11.8844
561.611	11.1074
563.354	10.5198
565.097	10.8282
566.839	10.4696
568.581	10.2266
570.322	9.34501
572.063	8.81917
573.802	8.10822
575.542	6.93207
577.283	6.15622
579.022	5.206
580.762	4.56332
582.501	3.80213
584.24	3.4803
585.976	1.87488
587.714	1.37525
589.452	2.0224
591.19	1.78209
592.927	1.34288
594.663	1.74194
596.398	3.19798
598.134	2.98569
599.87	2.27336
601.605	1.93408
603.338	1.98757
605.073	2.17685
606.808	3.42186
608.542	3.18335
610.274	4.03792
612.007	4.30681
613.74	5.29583
615.473	4.95438
617.204	6.04643
618.936	7.0655
620.668	7.86838
622.397	8.42292
624.128	9.38075
625.859	9.54557
627.588	9.85855
629.318	9.73375
631.048	10.4348
632.775	10.9857
634.505	11.239
636.233	12.997
637.96	12.705
639.688	12.5084
641.416	13.027
643.142	14.146
644.869	14.4295
646.594	14.5739
648.32	14.5648
650.045	15.0413
651.771	14.5356
653.496	13.1711
655.219	13.5364
656.944	13.6295
658.667	13.5294
660.391	13.104
662.113	12.6238
663.837	11.7147
665.558	10.5425
667.281	10.2899
669.002	10.387
670.724	10.3267
672.444	9.83252
674.166	11.0403
675.885	11.0698
677.606	11.3785
679.325	11.7541
681.045	11.6179
682.763	12.3175
684.483	11.8998
686.2	11.4635
687.917	12.5732
689.636	14.4012
691.352	15.4702
693.07	16.1645
694.786	16.4129
696.501	18.0349
698.219	19.8275
699.933	21.3344
701.65	21.8372
703.364	23.8796
705.078	24.5437
706.793	26.541
708.506	28.3414
710.219	29.9778
711.934	32.0082
713.646	33.5639
715.358	35.9494
717.071	37.6785
718.782	39.2292
720.493	41.1574
722.204	42.8101
723.916	43.9555
725.626	45.2685
727.336	47.1685
729.045	48.2776
730.756	49.6941
732.464	51.1308
734.173	52.1821
735.881	53.8355
737.59	54.1614
739.297	56.1095
741.004	58.3463
742.711	58.9636
744.417	59.416
746.125	59.7005
747.831	60.0561
749.537	60.474
751.242	60.9949
752.946	61.8782
754.651	63.0816
756.357	64.808
758.061	66.8177
759.764	66.9762
761.467	67.7239
763.17	68.3443
764.872	68.1191
766.575	68.3253
768.276	69.0723
769.978	69.9471
771.679	70.0887
773.382	70.8917
775.083	72.2972
776.783	71.9999
778.483	71.7627
780.182	72.6965
781.882	73.2909
783.581	74.3402
785.279	74.1871
786.978	74.1545
788.676	74.204
790.373	73.6664
792.071	75.8173
793.768	75.3469
795.464	74.8373
797.161	74.3284
798.857	74.1871
800.552	74.1136
802.248	74.2095
803.941	75.1237
805.636	76.7887
807.33	77.3959
809.024	77.5471
810.718	76.9131
812.412	77.5773
814.105	77.7395
815.798	78.1289
817.49	78.3565
819.183	78.3253
820.873	78.765
822.564	78.2635
824.256	78.6339
825.947	77.7935
827.637	78.0948
829.328	78.2481
831.016	78.1805
832.705	77.8133
834.395	78.0533
836.084	78.3731
837.772	78.8025
839.459	78.9564
841.147	78.9822
842.835	77.3938
844.522	75.3387
846.209	75.8083
847.894	74.2102
849.581	73.1972
851.267	71.9469
852.953	71.7735
854.637	70.9347
856.322	69.8887
858.007	69.2946
859.689	68.6856
861.374	66.628
863.058	65.4421
864.739	64.3871
866.423	62.4995
868.106	61.9298
869.787	60.617
871.469	59.355
873.151	58.166
874.831	57.8831
876.512	57.7801
878.193	55.0639
879.872	54.8186
881.553	54.7296
883.231	55.3941
884.911	55.3094
886.591	55.1334
888.268	54.8137
889.947	54.6233
891.623	53.1515
893.302	52.8979
894.978	51.8871
896.656	51.8898
898.331	51.222
900.008	50.4455
901.683	50.1374
903.359	49.9201
905.033	50.2139
906.709	49.8554
908.383	49.7024
910.058	49.2872
911.731	49.6302
913.405	48.9026
915.078	48.7536
916.752	48.5392
918.423	48.6504
920.096	47.7544
921.768	46.253
923.438	45.0957
925.111	44.5527
926.781	44.2102
928.452	44.0209
930.122	43.9129
931.791	42.5489
933.462	41.5563
935.13	41.4866
936.799	41.1727
938.468	40.0818
940.136	39.8588
941.803	38.9953
943.472	37.606
945.139	35.5861
946.805	36.0525
948.473	35.861
950.139	36.476
951.804	37.6975
953.471	38.7131
955.136	38.1488
956.801	37.7988
958.465	37.2913
960.131	36.9193
961.794	36.912
963.458	37.7649
965.12	38.8737
966.785	39.3713
968.447	38.9982
970.109	39.0991
971.771	40.3074
973.432	41.6087
975.095	42.6466
976.756	42.9356
978.417	43.8613
980.077	44.3899
981.737	44.9379
983.396	46.0887
985.057	47.1183
986.716	47.3412
988.375	47.7012
990.033	47.6133
991.691	48.2793
993.349	48.3293
995.006	48.2778
996.663	48.2014
998.32	48.254
999.976	49.5168
1001.63	49.5005
1003.29	49.3398
1004.95	48.6598
1006.6	48.5333
1008.26	49.7113
1009.91	50.2528
1011.56	49.0946
1013.22	49.2286
1014.87	47.9157
1016.53	48.7888
1018.18	48.819
1019.83	48.1649
1021.48	48.3035
1023.14	48.3243
1024.79	48.2766
1026.44	48.1829
1028.09	48.124
1029.74	48.6202
1031.39	47.593
1033.04	47.1743
1034.69	46.1945
1036.34	44.3809
1037.99	41.2815
1039.64	39.9953
1041.29	39.6019
1042.94	39.0133
1044.58	37.1859
1046.23	36.3344
1047.88	35.3016
1049.52	33.9954
1051.17	33.1821
1052.82	32.8088
1054.46	31.5672
1056.11	30.3989
1057.75	29.2519
1059.4	28.0271
1061.04	28.0463
1062.69	26.8684
1064.33	26.2496
1065.98	25.7957
1067.62	24.6219
1069.26	23.8529
1070.9	23.8822
1072.55	23.1693
1074.19	23.2905
1075.83	22.393
1077.47	22.146
1079.11	22.2801
1080.76	22.9993
1082.4	24.2617
1084.04	22.7257
1085.68	22.8008
1087.32	23.1339
1088.95	25.0722
1090.59	26.2979
1092.23	26.3999
1093.87	26.6364
1095.51	27.2016
1097.15	26.8956
1098.78	28.2595
1100.42	27.8699
1102.06	28.1123
1103.69	28.3658
1105.33	27.7603
1106.97	27.1428
1108.6	26.376
1110.24	25.4463
1111.87	24.2362
1113.51	23.305
1115.14	22.0541
1116.77	20.2722
1118.41	19.1271
1120.04	17.1297
1121.67	15.9357
1123.31	15.7267
1124.94	13.6429
1126.57	12.2383
1128.2	11.8925
1129.83	10.1696
1131.47	9.89464
1133.1	8.6266
1134.72	7.04567
1136.36	5.9995
1137.98	5.18545
1139.62	5.01546
1141.24	4.88826
1142.87	4.57994
1144.5	4.19104
1146.13	3.82639
1147.76	3.58424
1149.38	3.33505
1151.01	2.83503
1152.64	2.51438
1154.27	2.25055
1155.89	2.45209
1157.52	2.43066
1159.14	2.62547
1160.77	2.64621
1162.39	2.81103
1164.02	2.82958
1165.64	2.3897
1167.27	3.64656
1168.89	4.07185
1170.51	4.52996
1172.14	3.30828
1173.76	3.19669
1175.38	2.92472
1177	2.24104
1178.63	3.24348
1180.25	3.03843
1181.87	2.06137
1183.49	1.28586
1185.11	1.63013
1186.73	2.07011
1188.35	2.73229
1189.97	2.90045
1191.59	3.13408
1193.21	3.99026
1194.83	3.72171
1196.45	4.56516
1198.07	5.24286
1199.68	6.65357
1201.3	7.69213
1202.92	9.80939
1204.53	11.3815
1206.15	11.4465
1207.77	12.949
1209.38	14.4457
1211	16.263
1212.62	18.724
1214.23	20.336
1215.84	22.414
1217.46	24.3107
1219.07	25.8755
1220.69	27.8788
1222.3	29.0043
1223.91	30.1929
1225.53	31.3984
1227.14	33.1791
1228.75	34.2308
1230.36	35.8082
1231.97	36.6531
1233.59	38.6619
1235.2	40.0183
1236.81	41.0388
1238.42	41.6883
1240.03	41.8928
1241.64	42.743
1243.25	43.6524
1244.85	44.5093
1246.46	45.2156
1248.07	45.6637
1249.68	45.5674
1251.29	44.9837
1252.9	44.57
1254.5	44.4434
1256.11	44.6888
1257.72	45.1691
1259.32	45.4741
1260.93	45.0957
1262.54	45.5291
1264.14	46.7177
1265.75	47.8268
1267.35	48.3392
1268.96	47.5917
1270.56	47.7553
1272.16	49.1554
1273.77	49.8446
1275.37	50.0296
1276.97	51.8151
1278.57	52.3456
1280.18	53.6002
1281.78	54.2073
1283.38	55.082
1284.98	55.8048
1286.58	56.6744
1288.18	57.1674
1289.78	58.1058
1291.38	59.053
1292.99	58.7702
1294.58	59.3759
1296.18	59.3588
1297.78	58.7795
1299.38	58.8296
1300.98	58.9378
1302.58	59.3204
1304.17	60.146
1305.77	60.3624
1307.37	61.8112
1308.97	62.9325
1310.56	63.5024
1312.16	64.2354
1313.76	65.0212
1315.35	65.4414
1316.95	65.1205
1318.54	64.4828
1320.14	64.5517
1321.73	64.9394
1323.32	65.63
1324.92	65.6565
1326.51	65.3734
1328.1	64.6353
1329.7	64.3441
1331.29	63.617
1332.88	63.3694
1334.47	62.3281
1336.07	61.3507
1337.66	60.6168
1339.25	59.8273
1340.84	59.3335
1342.43	58.5906
1344.02	56.9429
1345.61	54.9789
1347.2	53.4735
1348.79	52.0143
1350.37	51.2816
1351.96	49.7619
1353.55	49.0056
1355.14	47.9231
1356.73	46.7323
1358.31	45.2369
1359.9	43.9561
1361.49	42.2266
1363.07	41.123
1364.66	39.8735
1366.25	38.0428
1367.83	36.107
1369.42	34.8995
1371	33.3272
1372.59	31.3544
1374.17	30.3629
1375.75	29.0736
1377.34	28.3355
1378.92	27.9523
1380.5	27.7418
1382.09	27.594
1383.67	27.1447
1385.25	27.2768
1386.83	28.6155
1388.42	28.2091
1390	27.2475
1391.58	27.646
1393.16	27.0034
1394.74	26.4246
1396.32	26.1667
1397.9	26.4457
1399.48	27.1444
1401.06	27.7606
1402.64	28.6129
1404.21	28.2018
1405.79	27.948
1407.37	27.4598
1408.95	28.0913
1410.53	28.7552
1412.1	29.8925
1413.68	31.8209
1415.26	34.1748
1416.83	36.8079
1418.41	38.3703
1419.98	39.1114
1421.56	40.752
1423.13	41.6376
1424.71	44.1954
1426.28	46.8892
1427.86	49.3991
1429.43	51.8789
1431	54.7985
1432.58	58.0593
1434.15	58.8695
1435.72	60.1399
1437.29	61.0186
1438.87	61.4177
1440.44	62.3985
1442.01	63.942
1443.58	65.3439
1445.15	66.0936
1446.72	65.7747
1448.29	65.935
1449.86	66.283
1451.43	66.2265
1453	66.7303
1454.57	67.0656
1456.14	66.0219
1457.71	65.023
1459.27	63.8024
1460.84	61.7868
1462.41	59.583
1463.98	57.8632
1465.54	55.5436
1467.11	53.3607
1468.67	50.5548
1470.24	47.7455
1471.81	45.091
1473.37	41.7151
1474.94	38.7036
1476.5	35.1682
1478.07	32.2368
1479.63	29.1676
1481.19	27.1175
1482.76	23.988
1484.32	21.3065
1485.88	19.4026
1487.45	18.0754
1489.01	17.2964
1490.57	16.3688
1492.13	15.149
1493.69	13.5515
1495.26	11.6321
1496.82	10.3689
1498.38	9.48722
1499.94	9.05779
1501.5	8.17796
1503.06	8.23148
1504.62	8.12041
1506.17	7.1268
1507.73	6.34416
1509.29	6.71649
1510.85	5.66353
1512.41	5.0953
1513.97	5.66193
1515.52	5.93559
1517.08	6.67392
1518.64	7.94373
1520.19	9.03019
1521.75	9.49372
1523.31	9.10669
1524.86	9.39309
1526.42	10.8711
1527.97	12.5108
1529.52	13.1634
1531.08	13.9732
1532.63	14.5304
1534.19	15.107
1535.74	16.2476
1537.29	17.1825
1538.85	17.3953
1540.4	19.2245
1541.95	20.3822
1543.5	21.9674
1545.06	23.2401
1546.61	24.5826
1548.16	26.459
1549.71	28.7938
1551.26	30.2382
1552.81	32.4408
1554.36	34.4426
1555.91	36.6994
1557.46	38.4934
1559.01	40.3201
1560.56	41.7743
1562.11	43.8715
1563.65	44.6338
1565.2	47.0372
1566.75	49.3222
1568.29	50.4672
1569.84	52.2314
1571.39	53.2253
1572.94	54.151
1574.48	55.6907
1576.03	57.2117
1577.57	58.2442
1579.12	59.7532
1580.66	61.5021
1582.21	62.5676
1583.75	62.9493
1585.3	64.3873
1586.84	66.1786
1588.38	64.8554
1589.93	65.5862
1591.47	65.3155
1593.01	64.3695
1594.55	64.4374
1596.1	64.5127
1597.64	64.2368
1599.18	64.3239
1600.72	64.0356
1602.26	63.5499
1603.8	62.9674
1605.34	61.1208
1606.88	59.8337
1608.42	58.834
1609.96	57.7869
1611.5	57.3413
1613.04	56.1674
1614.58	55.2101
1616.12	54.0765
1617.65	54.7975
1619.19	53.7789
1620.73	54.512
1622.27	54.9086
1623.8	56.7693
1625.34	57.6578
1626.87	58.293
1628.41	59.0275
1629.95	59.5504
1631.48	60.1603
1633.02	61.0803
1634.55	62.0654
1636.09	63.3899
1637.62	65.1278
1639.15	66.2359
1640.69	68.1454
1642.22	70.2789
1643.76	71.5822
1645.29	73.4906
1646.82	74.2499
1648.35	74.477
1649.88	76.1526
1651.42	77.0221
1652.95	77.9886
1654.48	79.3859
1656.01	79.4326
1657.54	80.2741
1659.07	79.7604
1660.6	79.3623
1662.13	78.7688
1663.66	77.673
1665.19	76.0017
1666.72	75.4269
1668.24	73.8596
1669.77	72.0147
1671.3	71.0102
1672.83	68.8603
1674.35	66.2783
1675.88	63.6796
1677.41	60.6417
1678.93	56.8357
1680.46	53.7229
1681.99	49.7924
1683.51	47.2809
1685.04	43.8705
1686.56	40.7015
1688.09	38.4479
1689.61	34.8433
1691.13	32.2195
1692.66	29.6674
1694.18	27.8664
1695.71	25.0343
1697.23	23.4056
1698.75	21.5543
1700.27	19.633
1701.8	16.9669
1703.32	15.2034
1704.84	13.428
1706.36	11.4378
1707.88	9.87585
1709.4	8.46734
1710.92	7.47183
1712.44	5.90762
1713.96	4.99673
1715.48	3.73238
1717	2.94141
1718.52	1.47652
1720.04	1.61705
1721.56	0.991035
1723.07	-0.376666
1724.59	-0.373424
1726.11	-0.327203
1727.63	-0.750327
1729.14	-0.353829
1730.66	-0.166848
1732.18	-0.865932
1733.69	-0.510331
1735.21	-1.04363
1736.72	-0.672445
1738.24	-0.730788
1739.75	0.0619294
1741.27	0.718071
1742.78	0.637688
1744.3	0.289217
1745.81	0.307436
1747.32	1.16195
1748.84	1.43991
1750.35	1.9441
1751.86	2.07065
1753.37	2.19655
1754.89	1.67037
1756.4	2.23296
1757.91	2.58262
1759.42	2.75978
1760.93	2.89015
1762.44	3.15755
1763.95	3.62357
1765.46	3.58943
1766.97	3.66651
1768.48	3.49288
1769.99	3.14942
1771.5	2.52377
1773.01	2.40573
1774.52	2.23308
1776.03	1.8195
1777.53	1.88092
1779.04	1.85652
1780.55	1.45249
1782.06	1.30085
1783.56	0.984687
1785.07	0.46484
1786.57	0.320767
1788.08	0.104245
1789.59	0.378639
1791.09	0.68889
1792.6	1.01254
1794.1	1.19162
1795.6	1.11421
1797.11	0.972329
1798.61	0.81248
1800.12	0.996948
1801.62	1.10435
1803.12	1.95592
1804.63	2.57712
1806.13	2.71536
1807.63	3.09956
1809.13	3.36012
1810.63	3.88424
1812.14	4.12436
1813.64	4.55693
1815.14	5.09763
1816.64	4.48011
1818.14	4.40951
1819.64	4.629
1821.14	5.71387
1822.64	6.25248
1824.14	6.90003
1825.63	6.50907
1827.13	6.64518
1828.63	6.72793
1830.13	6.92541
1831.63	6.80431
1833.12	6.72224
1834.62	6.92171
1836.12	7.19215
1837.62	6.9361
1839.11	7.53373
1840.61	7.35324
1842.1	6.83961
1843.6	6.71844
1845.09	6.45162
1846.59	6.24631
1848.08	6.95848
1849.58	7.18108
1851.07	7.31287
1852.57	7.90682
1854.06	7.75294
1855.55	7.63788
1857.04	7.67155
1858.54	8.50164
1860.03	9.1267
1861.52	9.7165
1863.01	10.4298
1864.5	10.8483
1866	10.8145
1867.49	10.4999
1868.98	10.6759
1870.47	10.6471
1871.96	10.974
1873.45	11.2635
1874.94	11.6558
1876.43	11.7945
1877.92	12.6227
1879.41	12.3749
1880.89	12.6373
1882.38	12.8066
1882.48	12.9773
1883.97	12.8879
1885.47	12.573
1886.96	12.5759
1888.46	12.1988
1889.95	12.2727
1891.44	12.4606
1892.94	12.0088
1894.43	11.6962
1895.92	11.0211
1897.41	10.7757
1898.9	10.5381
1900.4	10.4717
1901.89	10.3179
1903.38	11.0293
1904.87	10.5698
1906.36	10.5515
1907.85	10.4403
1909.34	10.2859
1910.83	10.8958
1912.32	11.5456
1913.81	11.228
1915.29	11.2016
1916.78	11.3749
1918.27	11.273
1919.76	11.9491
1921.25	13.1632
1922.74	13.2244
1924.22	13.513
1925.71	13.8705
1927.2	13.7359
1928.68	14.1381
1930.17	15.4929
1931.65	16.0797
1933.14	15.7064
1934.63	15.4477
1936.11	15.5055
1937.59	14.9201
1939.08	14.3763
1940.56	14.1656
1942.05	14.6689
1943.53	14.7415
1945.01	15.6568
1946.5	15.8162
1947.98	16.3708
1949.46	16.7345
1950.94	17.3686
1952.43	16.9995
1953.91	17.1889
1955.39	16.9037
1956.87	16.9653
1958.35	16.2807
1959.83	16.1609
1961.31	16.2058
1962.79	16.1039
1964.27	15.9372
1965.75	15.4898
1967.23	15.6781
1968.71	16.0556
1970.19	16.5234
1971.67	17.082
1973.14	17.5397
1974.62	17.1745
1976.1	17.6679
1977.58	17.7782
1979.05	16.9898
1980.53	17.217
1982.01	17.3177
1983.48	18.0813
1984.96	18.4124
1986.43	17.9283
1987.91	17.6171
1989.38	18.1911
1990.86	18.1409
1992.33	17.7546
1993.81	18.0419
1995.28	18.0068
1996.76	17.7939
1998.23	17.6697
1999.7	17.7548
2001.18	17.9437
2002.65	17.8089
2004.12	18.1069
2005.59	17.4904
2007.06	16.4475
2008.54	16.2208
2010.01	16.0192
2011.48	15.9771
2012.95	16.0245
2014.42	16.3058
2015.89	17.1784
2017.36	16.8564
2018.83	17.1619
2020.3	17.0458
2021.77	17.6197
2023.24	17.8372
2024.71	18.0438
2026.17	17.9997
2027.64	18.2187
2029.11	18.4484
2030.58	19.1842
2032.04	19.5429
2033.51	20.1773
2034.98	20.2081
2036.45	20.3064
2037.91	20.6676
2039.38	20.8523
2040.84	21.0472
2042.31	21.5092
2043.77	21.5833
2045.24	21.409
2046.7	22.109
2048.17	22.2288
2049.63	22.7951
2051.1	22.6666
2052.56	22.562
2054.02	22.5578
2055.48	22.6085
2056.95	23.9728
2058.41	23.8569
2059.87	24.3162
2061.33	25.1611
2062.8	26.281
2064.26	26.2826
2065.72	26.5462
2067.18	27.0507
2068.64	27.8183
2070.1	28.3443
2071.56	28.4238
2073.02	29.168
2074.48	29.1433
2075.94	29.6789
2077.4	29.9209
2078.86	30.1157
2080.31	29.5767
2081.77	30.2441
2083.23	30.792
2084.69	31.0369
2086.14	31.5833
2087.6	32.2565
2089.06	32.6984
2090.52	33.0621
2091.97	33.4982
2093.43	33.8203
2094.88	34.2065
2096.34	34.8969
2097.79	35.5322
2099.25	35.7775
2100.7	36.0122
2102.16	37.0575
2103.61	37.0045
2105.07	37.4927
2106.52	37.7274
2107.97	38.2251
2109.43	38.9705
2110.88	39.7083
2112.33	40.0142
2113.78	40.6873
2115.24	41.8925
2116.69	42.6268
2118.14	43.6569
2119.59	44.842
2121.04	45.4227
2122.49	46.3224
2123.94	46.9898
2125.39	48.1392
2126.84	50.0917
2128.29	52.0787
2129.74	53.8438
2131.19	54.6339
2132.64	56.9031
2134.09	58.8852
2135.54	60.3327
2136.98	61.5099
2138.43	63.1989
2139.88	65.2169
2141.33	66.7103
2142.77	68.3258
2144.22	69.7091
2145.67	72.2213
2147.11	72.9782
2148.56	74.3673
2150.01	75.6242
2151.45	76.8651
2152.9	77.3044
2154.34	78.7665
2155.79	79.714
2157.23	80.1649
2158.67	81.0986
2160.12	81.543
2161.56	82.0183
2163	82.302
2164.45	82.4388
2165.89	83.1825
2167.33	83.6829
2168.78	84.7661
2170.22	85.2318
2171.66	85.4437
2173.1	85.6559
2174.54	85.9181
2175.98	85.6695
2177.42	86.1029
2178.86	85.4694
2180.3	85.5125
2181.74	84.6303
2183.18	84.1916
2184.62	83.3922
2186.06	83.0358
2187.5	82.16
2188.94	80.5873
2190.38	78.8471
2191.82	77.8749
2193.25	76.658
2194.69	75.5429
2196.13	74.3139
2197.57	73.0426
2199	71.9834
2200.44	70.8344
2201.88	69.1074
2203.31	68.3198
2204.75	67.7696
2206.18	66.1178
2207.62	64.981
2209.05	63.5071
2210.49	62.882
2211.92	61.6355
2213.36	59.8908
2214.79	58.8849
2216.22	57.54
2217.66	56.3057
2219.09	54.0387
2220.52	52.8701
2221.96	51.7364
2223.39	49.9997
2224.82	48.3013
2226.25	46.6761
2227.68	45.22
2229.11	44.4686
2230.55	43.6222
2231.98	43.4079
2233.41	42.4396
2234.84	41.5993
2236.27	41.3864
2237.7	41.264
2239.12	40.6087
2240.55	40.2797
2241.98	39.7074
2243.41	39.6216
2244.84	38.9581
2246.27	38.6009
2247.7	37.8015
2249.12	37.1559
2250.55	36.2325
2251.98	35.8733
2253.41	35.4758
2254.83	35.2999
2256.26	34.8189
2257.68	34.1261
2259.11	32.957
2260.54	33.0657
2261.96	33.2863
2263.39	32.9007
2264.81	32.809
2266.24	32.4028
2267.66	32.2208
2269.08	31.4905
2270.51	31.4165
2271.93	30.6124
2273.35	29.6836
2274.78	29.7175
2276.2	29.0525
2277.62	28.4235
2279.04	27.9407
2280.47	26.9747
2281.89	26.4853
2283.31	25.4504
2284.73	24.3186
2286.15	23.5763
2287.57	22.7588
2288.99	21.4135
2290.41	20.2358
2291.83	19.7265
2293.25	18.8924
2294.67	18.2441
2296.09	17.7032
2297.51	17.7224
2298.93	18.6741
2300.35	19.4617
2301.76	19.5646
2303.18	20.1264
2304.6	19.8201
2306.02	20.2661
2307.44	21.2361
2308.85	21.4885
2310.27	21.1452
2311.69	21.5057
2313.1	21.6173
2314.52	21.5592
2315.93	20.7203
2317.35	20.7628
2318.76	20.6816
2320.18	21.1589
2321.59	21.0112
2323.01	21.5387
2324.42	21.76
2325.83	21.4077
2327.25	21.5667
2328.66	20.9717
2330.07	20.5195
2331.49	20.4667
2332.9	20.5761
2334.31	20.022
2335.72	20.5451
2337.13	20.2243
2338.55	20.0136
2339.96	18.4214
2341.37	18.4437
2342.78	17.3429
2344.19	17.1458
2345.6	16.3727
2347.01	15.2951
2348.42	14.2623
2349.83	13.0608
2351.24	11.9989
2352.65	10.8615
2354.05	10.1968
2355.46	9.34579
2356.87	8.44945
2358.28	7.73341
2359.69	7.47752
2361.09	7.18947
2362.5	7.15077
2363.91	7.36447
2365.31	7.36368
2366.72	8.02273
2368.13	8.93824
2369.53	9.13475
2370.94	9.22856
2372.34	8.98806
2373.75	8.84746
2375.15	8.16128
2376.56	8.45283
2377.96	8.18426
2379.37	7.85888
2380.77	7.95207
2382.17	7.86434
2383.58	7.81564
2384.98	7.76152
2386.38	7.38169
2387.79	7.90511
2389.19	7.59421
2390.59	7.54774
2391.99	7.20106
2393.39	7.45335
2394.8	7.54765
2396.2	7.52851
2397.6	8.01672
2399	8.05931
2400.4	8.98386
2401.8	9.77087
2403.2	10.6433
2404.6	10.2693
2406	10.8278
2407.4	10.7106
2408.79	10.4548
2410.19	9.98579
2411.59	11.2083
2412.99	11.0492
2414.39	11.0001
2415.78	10.609
2417.18	10.7588
2418.58	10.769
2419.98	10.8407
2421.37	11.3384
2422.77	11.5128
2424.16	11.8915
2425.56	12.4627
2426.96	12.3955
2428.35	12.7564
2429.74	12.6741
2431.14	12.3038
2432.53	12.208
2433.93	12.7997
2435.32	12.5709
2436.72	13.2217
2438.11	13.2436
2439.5	12.442
2440.9	12.502
2442.29	12.3036
2443.68	12.0796
2445.07	11.6257
2446.47	11.6255
2447.86	11.4571
2449.25	11.7133
2450.64	11.0162
2452.03	10.0909
2453.42	9.82729
2454.81	9.10589
2456.2	8.57764
2457.59	8.69703
2458.98	8.26989
2460.37	7.84272
2461.76	6.78531
2463.15	6.59823
2464.54	6.23952
2465.93	6.44314
2467.32	6.36823
2468.7	5.9252
2470.09	5.90844
2471.48	5.25823
2472.87	5.38201
2474.25	5.32762
2475.64	5.35629
2477.03	5.40825
2478.41	5.16621
2479.8	5.16706
2481.18	5.93417
2482.57	5.7787
2483.95	5.58915
2485.34	5.6658
2486.72	5.7115
2488.11	5.9563
2489.49	6.22575
2490.88	6.35546
2492.26	5.71924
2493.65	6.12925
2495.03	6.16085
2496.41	5.86872
2497.79	5.63872
2499.18	5.13521
2500.56	5.07767
2501.94	4.71848
2503.32	4.68349
2504.7	4.4818
2506.09	4.0461
2507.47	3.95137
2508.85	3.34714
2510.23	3.45161
2511.61	3.24342
2512.99	2.91148
2514.37	2.81743
2515.75	2.6289
2517.13	2.93353
2518.51	2.53258
2519.89	1.88079
2521.26	1.69565
2522.64	1.49289
2524.02	0.775354
2525.4	0.895217
2526.78	0.827263
2528.15	1.11771
2529.53	1.08407
2530.91	0.931892
2532.28	1.38846
2533.66	1.35256
2535.04	1.62423
2536.41	1.49592
2537.79	1.36006
2539.16	1.84803
2540.54	1.61352
2541.91	1.85043
2543.29	1.93698
2544.66	2.64325
2546.04	2.88975
2547.41	2.67268
2548.78	2.99011
2550.16	3.34598
2551.53	3.22439
2552.9	3.35997
2554.27	3.54745
2555.65	3.64064
2557.02	3.85442
2558.39	4.13669
2559.76	4.34941
2561.13	4.70598
2562.51	5.67193
2563.88	5.66672
2565.25	6.02076
2566.62	5.79258
2567.99	5.74766
2569.36	5.97667
2570.73	6.23898
2572.1	6.36995
2573.47	6.56135
2574.84	6.26051
2576.2	6.27027
2577.57	6.17221
2578.94	6.49631
2580.31	6.5478
2581.68	6.20931
2583.05	5.94277
2584.41	5.54689
2585.78	5.15899
2587.15	4.52242
2588.51	4.29356
2589.88	4.36508
2591.24	4.24931
2592.61	3.86079
2593.98	3.77311
2595.34	3.22737
2596.71	2.82101
2598.07	1.84781
2599.44	0.8154
2600.8	0.431175
2602.16	0.178273
2603.53	0.450347
2604.89	-0.0314167
2606.26	-0.841932
2607.62	-0.875364
2608.98	-1.45345
2610.34	-1.50477
2611.71	-1.25064
2613.07	-1.49821
2614.43	-2.14036
2615.79	-2.29017
2617.15	-2.01755
2618.52	-1.94703
2619.88	-1.94984
2621.24	-1.81235
2622.6	-1.41783
2623.96	-1.67633
2625.32	-1.31314
2626.68	-0.303466
2628.04	0.00172062
2629.4	0.412014
2630.75	0.885955
2632.11	0.979671
2633.47	1.64433
2634.83	1.51752
2636.19	1.57786
2637.55	2.05406
2638.9	2.03805
2640.26	1.77326
2641.62	2.26048
2642.98	2.397
2644.33	2.76881
2645.69	3.14695
2647.04	3.33051
2648.4	3.12521
2649.76	3.25432
2651.11	3.51325
2652.47	3.21512
2653.82	3.06525
2655.18	3.26911
2656.53	3.04198
2657.88	3.01441
2659.24	2.83338
2660.59	2.49544
2661.95	2.60476
2663.3	2.717
2664.65	3.01648
2666	2.93827
2667.36	2.92969
2668.71	3.58304
2670.06	3.11714
2671.41	2.92287
2672.76	2.28175
2674.12	1.75692
2675.47	2.25961
2676.82	1.68964
2678.17	1.64675
2679.52	1.59881
2680.87	1.22822
2682.22	1.04105
2683.57	1.23736
2684.92	1.05205
2686.27	1.18797
2687.62	1.12183
2688.97	1.03157
2690.31	1.24085
2691.66	0.341436
2693.01	0.728194
2694.36	0.303787
2695.71	-0.285435
2697.05	-0.0331666
2698.4	-0.126302
2699.75	-0.137496
2701.09	0.286503
2702.44	-0.0598784
2703.78	0.0289341
2705.13	0.476133
2706.48	0.451571
2707.82	0.565809
2709.17	1.31826
2710.51	1.65169
2711.86	1.71182
2713.2	1.9676
2714.54	1.82804
2715.89	1.98542
2717.23	2.52571
2718.57	2.71868
2719.92	2.9409
2721.26	3.88204
2722.6	4.226
2723.95	4.15105
2725.29	4.70241
2726.63	4.93078
2727.97	5.06914
2729.31	5.20335
2730.65	5.12202
2732	5.4362
2733.34	5.72093
2734.68	5.98505
2736.02	6.1717
2737.36	5.9081
2738.7	6.65548
2740.04	6.31814
2741.38	6.25287
2742.72	6.59697
2744.05	5.76279
2745.39	5.94364
2746.73	5.82644
2748.07	5.57234
2749.41	5.48992
2750.75	5.98031
2752.08	5.75564
2753.42	5.54233
2754.76	4.71243
2756.09	4.4205
2757.43	3.59734
2758.77	2.69538
2760.1	3.11495
2761.44	2.75963
2762.78	2.93738
2764.11	2.96432
2765.44	2.37895
2766.78	2.59953
2768.11	2.06332
2769.45	1.68213
2770.78	1.6407
2772.12	1.83933
2773.45	1.68501
2774.78	1.94823
2776.12	1.76719
2777.45	1.30808
2778.78	0.945447
2780.12	1.51745
2781.45	1.28273
2782.78	1.78302
2784.11	1.97342
2785.44	2.07723
2786.78	1.66553
2788.11	1.25815
2789.44	0.69545
2790.77	0.705752
2792.1	1.22104
2793.43	1.50596
2794.76	1.75425
2796.09	2.19035
2797.42	2.24608
2798.75	2.09499
2800.08	1.97308
2801.4	1.87278
2802.73	1.71718
2804.06	1.95633
2805.39	1.64346
2806.72	0.764029
2808.05	0.705096
2809.37	1.06015
2810.7	0.558664
2812.03	0.400863
2813.35	0.259126
2814.68	0.331262
2816.01	0.664053
2817.33	0.889068
2818.66	0.944758
2819.98	1.08774
2821.31	2.08516
2822.63	3.21197
2823.96	4.21639
2825.28	6.05053
2826.61	8.12588
2827.93	9.25788
2829.25	11.1034
2830.58	12.8049
2831.9	14.1162
2833.23	15.5872
2834.55	17.0871
2835.87	19.176
2837.19	21.5591
2838.52	23.4215
2839.84	25.5821
2841.16	27.988
2842.48	30.6826
2843.8	33.6058
2845.12	37.2407
2846.44	40.8309
2847.77	44.0955
2849.08	47.5368
2850.4	51.3163
2851.73	55.4881
2853.05	59.6273
2854.36	64.2556
2855.68	68.6127
2857	73.0431
2858.32	77.1984
2859.64	81.1764
2860.96	85.5161
2862.28	88.9185
2863.59	92.4684
2864.91	95.8876
2866.23	98.9839
2867.55	102.772
2868.86	105.469
2870.18	108.189
2871.5	109.899
2872.81	111.998
2874.13	114.648
2875.44	117.465
2876.76	119.185
2878.07	120.977
2879.39	122.945
2880.7	124.841
2882.02	127.157
2883.33	129.214
2884.65	131.101
2885.96	133.542
2887.28	135.71
2888.59	137.773
2889.9	139.879
2891.21	141.716
2892.53	143.503
2893.84	145.351
2895.15	147.451
2896.46	149.26
2897.78	151.735
2899.09	154.315
2900.4	157.263
2901.71	160.142
2903.02	163.73
2904.33	167.629
2905.64	172.256
2906.95	176.404
2908.26	180.737
2909.57	185.578
2910.88	191.273
2912.19	196.505
2913.5	201.59
2914.81	206.648
2916.12	211.797
2917.43	216.806
2918.73	221.811
2920.04	225.476
2921.35	229.489
2922.66	233.489
2923.96	236.53
2925.27	239.114
2926.58	241.297
2927.88	242.567
2929.19	244.266
2930.5	244.327
2931.8	244.257
2933.11	244.284
2934.41	243.191
2935.72	242.432
2937.02	241.434
2938.33	240.394
2939.63	238.681
2940.94	235.943
2942.24	232.48
2943.54	229.097
2944.85	225.619
2946.15	222.294
2947.45	218.817
2948.76	214.17
2950.06	210.632
2951.36	206.256
2952.66	201.785
2953.97	197.698
2955.27	192.33
2956.57	187.779
2957.87	183.842
2959.17	179.728
2960.47	175.415
2961.77	171.258
2963.07	166.75
2964.37	162.234
2965.67	158.092
2966.97	153.82
2968.27	150.13
2969.57	146.548
2970.87	142.376
2972.17	138.842
2973.47	135.795
2974.77	132.913
2976.07	128.996
2977.36	125.147
2978.66	121.306
2979.96	117.583
2981.26	113.8
2982.55	110.586
2983.85	106.558
2985.15	101.963
2986.44	98.4099
2987.74	94.303
2989.03	90.1034
2990.33	86.6233
2991.63	82.5816
2992.92	79.1068
2994.21	74.9681
2995.51	70.6227
2996.8	67.4465
2998.1	64.6301
2999.39	61.4558
3000.69	58.6518
3001.98	55.5124
3003.27	52.2914
3004.57	49.4923
3005.86	46.5316
3007.15	44.187
3008.44	41.9232
3009.74	39.2745
3011.03	37.3178
3012.32	35.2772
3013.61	33.555
3014.9	31.8641
3016.19	29.5169
3017.48	28.5769
3018.78	26.9487
3020.07	25.6795
3021.36	25.2731
3022.65	24.2385
3023.94	23.6055
3025.23	23.0422
3026.51	22.0448
3027.8	21.4752
3029.09	21.2882
3030.38	20.5308
3031.67	20.493
3032.96	20.9489
3034.24	21.6409
3035.53	21.759
3036.82	22.4379
3038.11	22.6695
3039.39	23.2563
3040.68	23.3438
3041.97	23.407
3043.25	23.9042
3044.54	24.1969
3045.83	24.7505
3047.11	25.2356
3048.4	25.182
3049.68	25.8256
3050.97	25.8585
3052.25	25.6615
3053.54	25.5753
3054.82	25.3891
3056.11	25.2349
3057.39	25.3884
3058.67	24.5472
3059.96	24.2071
3061.24	24.4813
3062.52	23.6813
3063.81	22.7643
3065.09	21.9461
3066.37	21.1918
3067.65	20.5687
3068.94	19.9684
3070.22	19.0818
3071.5	18.367
3072.78	17.7675
3074.06	16.8487
3075.34	15.9823
3076.62	15.52
3077.9	14.1475
3079.18	13.1336
3080.46	12.852
3081.74	11.8394
3083.02	11.1713
3084.3	10.5495
3085.58	10.007
3086.86	9.16974
3088.14	8.65243
3089.42	7.83596
3090.69	7.5833
3091.97	7.39032
3093.25	6.91077
3094.53	6.53397
3095.8	7.04454
3097.08	6.96724
3098.36	6.61753
3099.63	6.44783
3100.91	6.63281
3102.19	6.63247
3103.46	6.14052
3104.74	5.26386
3106.01	5.32704
3107.29	5.75788
3108.56	5.82022
3109.84	5.89177
3111.11	5.77829
3112.39	5.44818
3113.66	5.4708
3114.94	5.16257
3116.21	5.05197
3117.48	5.09794
3118.76	4.93849
3120.03	5.02885
3121.3	4.43011
3122.57	4.0186
3123.85	3.88359
3125.12	3.99072
3126.39	3.12256
3127.66	3.01795
3128.93	2.81801
3130.21	3.31043
3131.48	3.1938
3132.75	2.99479
3134.02	2.78329
3135.29	2.38553
3136.56	2.16714
3137.83	1.37774
3139.1	1.00694
3140.37	0.891033
3141.64	0.19843
3142.91	0.047311
3144.17	-0.486795
3145.44	-0.776565
3146.71	-1.58604
3147.98	-1.73789
3149.25	-2.31965
