#Acq. time (s)=	45
#Accumulations=	2
#Range (cm-¹)=	200...3150
#Windows=	2
#Auto scanning=	Off
#Autofocus=	Off
#Macrospot=	Off
#AutoExposure=	Off
#Spike filter=	Multiple accum.
#Delay time (s)=	0
#Binning=	1
#Readout mode=	Signal
#DeNoise=	Off
#ICS correction=	On
#Dark correction=	Off
#Inst. Process=	Off
#Detector Gain=	Best Dynamic Range
#Detector ADC=	20 kHz       
#Detector temperature (°C)=	-69.85
#Instrument=	LabRAM HR Evol
#Detector=	Synapse
#Objective=	x100
#Grating=	600 gr/mm
#ND Filter=	100%
#Laser (nm)=	532 
#Hole=	100.021
#Range=	Auto
#Laser Pol.=	No
#Raman. Pol.=	No
#Laser Pol. (°)=	-0.0007625
#Raman Pol. (°)=	89.9995
#Collection=	Microscope
#StageXY=	Marzhauser
#StageZ=	Marzhauser
#X (µm)=	252.4
#Y (µm)=	1686.6
#Z (µm)=	427.5
#Full time(mm:ss)=	3:18
#Project=	
#Sample=	
#Site=	
#Title=	Thy_40_11_42_2x_45s_532 nm_x100_100%_600 gr_mm
#Remark=	
#Date=	05.07.2022 12:59
#Acquired=	05.07.2022 12:59:14
#Base:Fit=	10.08.2022 10:01:35
#Base:Sub=	10.08.2022 10:01:52
#Filter:Polynom=	16.08.2022 10:21:53
#AxisType[0]=Intens
#AxisUnit[0]=Cnt
#AxisType[1]=Spectr
#AxisUnit[1]=1/cm
200.43	11.0626
202.244	13.1604
204.059	15.5182
205.873	17.4128
207.688	18.2314
209.501	18.3149
211.314	17.8279
213.127	16.7651
214.941	16.6212
216.753	15.1963
218.564	14.9032
220.375	14.9021
222.186	14.9317
223.999	14.9219
225.809	14.2584
227.618	13.679
229.428	13.5293
231.236	12.8162
233.045	12.5449
234.855	12.743
236.663	12.5827
238.471	13.3459
240.278	13.1201
242.085	13.7753
243.891	13.773
245.698	13.3677
247.503	13.2307
249.309	13.5212
251.116	13.1772
252.921	13.8108
254.725	13.1591
256.529	12.8261
258.333	13.3337
260.136	13.4187
261.939	12.3002
263.742	12.8386
265.544	13.3275
267.346	14.1636
269.148	13.9648
270.949	14.4213
272.75	15.3229
274.55	15.5902
276.351	15.9146
278.15	15.9563
279.95	16.5727
281.749	16.7426
283.548	17.1899
285.346	17.2545
287.144	16.9225
288.942	17.0222
290.739	16.7986
292.536	15.9494
294.333	15.0603
296.129	14.3633
297.925	13.9146
299.721	12.8599
301.514	13.5285
303.309	14.2267
305.104	14.8388
306.898	14.5192
308.692	15.0518
310.486	14.6609
312.279	14.2156
314.072	13.8389
315.862	13.4582
317.654	13.4847
319.446	13.7889
321.238	14.0551
323.029	15.1744
324.819	15.7714
326.608	16.0729
328.398	16.2028
330.188	15.4898
331.977	16.2524
333.766	15.5679
335.553	15.6253
337.341	16.4328
339.129	16.7022
340.917	15.9561
342.704	16.2996
344.489	16.1426
346.275	17.0351
348.062	17.727
349.845	17.1398
351.631	16.9334
353.416	18.0214
355.201	18.5523
356.984	18.6998
358.768	17.4621
360.552	17.1376
362.333	17.1116
364.116	16.1961
365.899	15.3022
367.68	14.6367
369.462	14.8924
371.243	14.5037
373.023	13.8152
374.804	13.3569
376.585	12.6843
378.363	11.9673
380.143	11.7241
381.923	10.4231
383.7	10.4002
385.479	10.0092
387.256	9.8415
389.034	9.77921
390.812	10.056
392.588	9.13539
394.365	8.2696
396.14	7.70364
397.916	7.59007
399.691	7.16443
401.467	7.11788
403.24	7.57507
405.015	7.40628
406.788	7.27993
408.563	7.33193
410.335	6.96084
412.109	6.44164
413.88	5.72238
415.654	5.14492
417.424	4.91716
419.197	5.10086
420.967	4.7629
422.739	4.53351
424.508	5.28311
426.279	5.07781
428.048	4.79259
429.819	4.50984
431.587	5.21872
433.356	5.21854
435.124	4.77092
436.891	4.63311
438.66	3.91552
440.426	3.55381
442.194	3.54907
443.96	3.01202
445.725	2.66714
447.492	2.89924
449.257	3.24461
451.021	3.8164
452.787	3.70887
454.551	3.89395
456.314	4.5527
458.079	4.88319
459.842	4.80377
461.604	5.28302
463.368	6.23431
465.13	6.63094
466.891	7.21749
468.654	8.10089
470.415	8.87877
472.175	10.0335
473.935	10.4178
475.696	11.7113
477.456	12.1596
479.215	12.2335
480.973	12.8459
482.733	13.6389
484.491	14.3702
486.249	14.7347
488.006	14.18
489.765	14.8408
491.522	15.2487
493.278	14.8523
495.034	15.1768
496.789	15.541
498.544	15.8798
500.301	15.8387
502.056	16.0099
503.81	15.7557
505.564	15.9451
507.317	15.0994
509.071	14.7318
510.825	15.0563
512.578	14.7995
514.33	14.2725
516.082	13.9234
517.833	12.9594
519.585	12.5012
521.335	12.1436
523.086	11.938
524.836	11.8956
526.586	11.8507
528.335	11.4903
530.085	11.3635
531.835	11.2477
533.584	11.1585
535.332	10.9136
537.08	10.3896
538.827	9.54444
540.574	9.78163
542.321	8.84821
544.068	8.81784
545.814	8.242
547.56	7.60593
549.305	7.5851
551.05	6.82285
552.795	6.24005
554.54	5.44377
556.282	5.60071
558.025	5.48324
559.769	5.42921
561.512	4.9921
563.255	4.67754
564.997	3.36455
566.739	2.73173
568.481	2.51089
570.223	2.66055
571.964	3.18423
573.705	2.55236
575.443	2.29703
577.183	2.88528
578.923	3.48992
580.663	3.51203
582.402	3.72721
584.141	3.53703
585.879	3.07057
587.615	2.23259
589.353	1.90504
591.09	1.7074
592.828	1.3422
594.564	1.28431
596.299	1.91577
598.035	1.73228
599.771	1.86005
601.506	2.1252
603.242	2.06538
604.974	2.79838
606.709	3.96371
608.443	4.79073
610.177	5.21806
611.908	5.89107
613.642	6.08197
615.374	5.97261
617.105	6.56955
618.837	7.07832
620.569	7.89447
622.3	8.29142
624.03	8.41969
625.761	9.00924
627.491	9.97574
629.219	9.88171
630.949	10.4041
632.677	9.84358
634.406	9.67105
636.135	10.032
637.861	10.2072
639.59	10.8233
641.318	11.4393
643.043	12.1927
644.77	12.3103
646.495	13.1413
648.222	12.5092
649.948	12.7804
651.672	13.6163
653.398	14.3956
655.121	15.0649
656.846	16.6258
658.569	16.9288
660.293	17.1648
662.015	18.3331
663.738	19.1118
665.46	18.7602
667.183	18.9182
668.903	19.5096
670.626	20.3448
672.346	20.6641
674.067	21.254
675.787	22.4762
677.508	23.5467
679.226	24.3477
680.947	26.2469
682.665	27.0006
684.385	28.0773
686.102	29.1438
687.821	30.6218
689.538	31.7743
691.254	32.762
692.972	34.0707
694.688	35.0687
696.406	36.0584
698.121	36.7175
699.835	37.3602
701.552	37.6669
703.266	37.8538
704.98	38.5973
706.695	39.497
708.409	39.9359
710.121	41.2082
711.836	41.4402
713.548	41.7988
715.26	41.8685
716.973	41.4265
718.685	40.7863
720.396	41.2337
722.108	41.7463
723.818	41.5106
725.528	41.8901
727.238	42.0922
728.949	41.7663
730.658	42.1611
732.367	42.2777
734.075	41.8982
735.785	42.4688
737.493	42.3025
739.2	42.2795
740.907	43.0101
742.614	43.3327
744.322	42.4989
746.028	43.3863
747.734	44.1876
749.439	45.0242
751.144	46.0784
752.849	48.0848
754.555	48.9634
756.26	50.1555
757.963	51.4131
759.667	52.6484
761.37	54.6871
763.073	55.462
764.775	56.6529
766.477	58.4213
768.179	58.9922
769.883	59.875
771.584	61.3285
773.285	62.7797
774.986	64.1907
776.686	65.6086
778.386	66.6457
780.085	67.1473
781.785	68.283
783.484	69.4212
785.182	70.3228
786.881	71.1368
788.579	73.2114
790.276	74.6455
791.974	75.6073
793.671	76.6618
795.367	76.7688
797.064	77.7165
798.76	78.0093
800.456	78.3431
802.151	78.2783
803.846	78.4872
805.541	79.1879
807.234	78.8688
808.928	78.2923
810.622	79.0892
812.315	79.1826
814.008	78.5934
815.701	78.5048
817.394	77.5954
819.086	77.5043
820.778	77.393
822.468	77.1781
824.159	77.6001
825.85	76.964
827.541	77.0767
829.231	76.613
830.921	77.492
832.609	77.3669
834.298	76.6526
835.987	76.1929
837.676	75.3407
839.364	74.6751
841.051	74.6434
842.738	73.8846
844.426	72.9373
846.113	72.8469
847.798	71.33
849.484	70.6748
851.171	69.659
852.857	68.2266
854.54	67.049
856.226	66.8803
857.911	65.1788
859.593	64.7764
861.278	64.0205
862.961	62.5453
864.645	61.3206
866.327	60.5255
868.01	58.9883
869.692	57.8327
871.373	57.3255
873.055	56.7474
874.735	54.55
876.416	54.0634
878.097	53.1979
879.776	52.4291
881.457	52.543
883.135	50.912
884.815	50.5139
886.495	49.5541
888.172	49.097
889.851	48.5625
891.528	47.9154
893.206	47.7667
894.882	47.752
896.56	47.6333
898.237	46.7034
899.912	47.2774
901.589	47.1229
903.263	47.3072
904.94	47.1297
906.614	46.9311
908.289	46.6875
909.962	46.5795
911.635	47.3828
913.31	47.0388
914.982	47.124
916.656	46.2228
918.328	46.0788
920.001	45.6788
921.672	44.4148
923.345	44.6484
925.015	44.3929
926.685	43.7483
928.357	44.0888
930.026	43.7326
931.698	43.2578
933.366	42.6181
935.035	42.2482
936.705	41.3783
938.373	40.6171
940.041	40.4029
941.71	39.5545
943.377	39.6852
945.044	38.0576
946.712	36.844
948.378	35.6098
950.044	35.9031
951.709	35.8325
953.376	35.5508
955.041	35.2401
956.706	34.885
958.372	33.9978
960.036	34.3202
961.699	33.1911
963.362	33.5366
965.027	33.7716
966.69	33.8814
968.352	34.1906
970.014	33.3026
971.676	32.9123
973.339	32.8898
975	32.6461
976.661	32.1388
978.322	31.8662
979.982	31.9323
981.642	31.2695
983.303	31.2344
984.962	30.6878
986.621	30.3265
988.28	30.1206
989.938	29.5057
991.596	28.9044
993.254	28.5842
994.911	27.4479
996.57	26.6512
998.227	25.9294
999.884	24.8934
1001.54	24.1334
1003.2	23.623
1004.85	23.3355
1006.51	23.8314
1008.16	23.6759
1009.82	23.9193
1011.47	23.856
1013.12	23.4265
1014.78	23.5489
1016.43	23.6852
1018.08	23.975
1019.74	23.8013
1021.39	24.3624
1023.04	25.2098
1024.69	24.9267
1026.34	25.1283
1028	25.1633
1029.65	26.0603
1031.3	26.6219
1032.95	27.8393
1034.6	27.766
1036.25	27.4396
1037.9	27.4655
1039.54	27.3847
1041.19	27.8406
1042.84	28.4938
1044.49	28.8075
1046.14	30.0714
1047.78	29.9085
1049.43	29.3874
1051.08	28.2711
1052.72	27.2691
1054.37	26.6243
1056.02	26.1709
1057.66	25.6311
1059.31	25.211
1060.95	25.7517
1062.6	25.4109
1064.24	24.6793
1065.88	23.3828
1067.53	22.8282
1069.17	21.658
1070.81	20.935
1072.45	19.9006
1074.1	19.3159
1075.74	18.4327
1077.38	17.6888
1079.02	16.9671
1080.66	15.7873
1082.3	14.9587
1083.94	15.0181
1085.58	14.8579
1087.22	14.3914
1088.86	14.8332
1090.5	14.0722
1092.14	13.3596
1093.78	12.8615
1095.42	12.5758
1097.05	12.4965
1098.69	12.5571
1100.33	11.9666
1101.96	11.972
1103.6	11.9526
1105.24	12.4606
1106.87	11.7101
1108.51	12.2509
1110.14	12.7493
1111.78	12.3139
1113.41	12.0988
1115.05	11.6253
1116.68	11.6657
1118.31	12.0175
1119.95	11.6756
1121.58	11.3598
1123.21	11.6923
1124.85	11.3472
1126.48	11.6811
1128.11	10.7982
1129.74	10.4886
1131.37	10.6567
1133	10.8784
1134.63	11.0565
1136.26	10.6168
1137.89	11.5864
1139.52	12.4909
1141.15	13.3232
1142.78	12.5914
1144.41	11.7872
1146.04	11.1024
1147.66	10.9645
1149.29	10.6964
1150.92	10.6966
1152.55	10.7661
1154.17	10.1074
1155.8	10.3688
1157.43	9.77782
1159.05	9.62628
1160.68	9.61476
1162.3	9.30781
1163.93	9.22945
1165.55	8.51838
1167.17	6.98224
1168.8	6.16502
1170.42	5.75219
1172.05	4.38644
1173.67	4.43807
1175.29	4.09859
1176.91	4.36652
1178.54	4.13706
1180.16	4.35351
1181.78	4.33802
1183.4	4.82554
1185.02	4.56009
1186.64	4.86334
1188.26	5.012
1189.88	5.05801
1191.5	5.09385
1193.12	4.62597
1194.74	5.07398
1196.36	5.73279
1197.97	6.51175
1199.59	6.52186
1201.21	6.34681
1202.83	7.35952
1204.44	8.76599
1206.06	9.59429
1207.68	10.8817
1209.29	11.7617
1210.91	13.2776
1212.52	14.8345
1214.14	16.3277
1215.75	17.6049
1217.37	18.8807
1218.98	21.0364
1220.59	22.5957
1222.21	23.9105
1223.82	23.84
1225.43	26.4253
1227.05	27.5506
1228.66	28.8657
1230.27	29.8732
1231.88	31.3845
1233.49	32.1916
1235.1	33.277
1236.72	34.6988
1238.33	34.6479
1239.94	35.6363
1241.55	36.3677
1243.16	35.6762
1244.76	35.3486
1246.37	35.6158
1247.98	36.2726
1249.59	37.0626
1251.2	37.8987
1252.8	38.3794
1254.41	39.0331
1256.02	39.238
1257.62	39.9875
1259.23	40.543
1260.84	41.2137
1262.44	40.48
1264.05	40.2468
1265.66	40.4557
1267.26	41.189
1268.86	40.6922
1270.47	39.8424
1272.07	40.1854
1273.67	40.2958
1275.28	40.7953
1276.88	40.4753
1278.48	40.423
1280.09	39.7272
1281.69	39.278
1283.29	39.8704
1284.89	40.2333
1286.49	40.2687
1288.09	40.8878
1289.69	40.8815
1291.29	41.2848
1292.89	41.3013
1294.49	42.1866
1296.09	41.8481
1297.69	42.461
1299.29	43.1743
1300.89	43.3492
1302.49	43.8512
1304.08	43.8206
1305.68	44.4249
1307.28	44.3976
1308.88	44.7254
1310.47	45.0628
1312.07	45.5444
1313.66	45.8826
1315.26	46.002
1316.85	46.2591
1318.45	46.2451
1320.04	46.6302
1321.64	46.3888
1323.23	45.8461
1324.83	46.621
1326.42	47.5712
1328.01	48.3089
1329.61	47.8104
1331.2	48.0582
1332.79	47.9737
1334.38	48.1877
1335.97	48.6246
1337.56	49.0419
1339.16	48.4836
1340.75	47.323
1342.34	46.8352
1343.93	46.8846
1345.52	47.7296
1347.11	46.3447
1348.7	45.8773
1350.29	45.5231
1351.87	44.4303
1353.46	43.1873
1355.05	41.8671
1356.64	39.8524
1358.22	38.7128
1359.81	36.9285
1361.4	36.5782
1362.98	36.6887
1364.57	35.3001
1366.16	33.6009
1367.74	32.5278
1369.33	31.3878
1370.91	30.9648
1372.5	29.1129
1374.08	29.1762
1375.67	27.7537
1377.25	27.8823
1378.83	26.8952
1380.41	26.5069
1382	25.7588
1383.58	25.714
1385.16	25.4349
1386.74	25.6019
1388.33	25.0943
1389.91	24.8187
1391.49	24.7997
1393.07	23.8294
1394.65	23.5158
1396.23	24.1697
1397.81	23.934
1399.39	23.3026
1400.97	22.8686
1402.55	22.844
1404.13	23.1931
1405.7	23.3425
1407.28	23.8402
1408.86	23.4936
1410.44	24.6088
1412.01	25.4746
1413.59	26.4504
1415.17	27.4037
1416.74	27.7371
1418.32	27.9821
1419.89	29.6129
1421.47	31.1222
1423.04	32.3464
1424.62	33.907
1426.19	34.342
1427.77	36.7188
1429.34	37.6053
1430.91	38.4865
1432.49	40.3843
1434.06	41.6368
1435.63	42.4656
1437.2	43.7758
1438.78	44.8064
1440.35	46.4817
1441.92	47.0791
1443.49	47.3006
1445.06	48.2724
1446.63	48.9813
1448.2	49.1218
1449.77	49.6119
1451.34	48.6759
1452.91	48.7515
1454.48	48.8203
1456.05	48.7354
1457.62	48.0645
1459.18	47.5117
1460.75	46.6995
1462.32	46.3789
1463.89	44.6887
1465.45	44.1146
1467.02	42.9246
1468.59	42.3867
1470.15	41.0656
1471.72	38.8726
1473.28	37.841
1474.85	36.1284
1476.41	34.1685
1477.98	32.3011
1479.54	30.513
1481.1	29.4825
1482.67	28.2121
1484.23	26.4677
1485.79	24.8185
1487.36	23.4968
1488.92	22.8748
1490.48	22.1161
1492.04	21.0081
1493.61	20.535
1495.17	19.7196
1496.73	19.1124
1498.29	19.2686
1499.85	19.1403
1501.41	19.0785
1502.97	18.9361
1504.53	18.9195
1506.09	18.7615
1507.65	18.2787
1509.2	17.994
1510.76	17.6038
1512.32	17.1312
1513.88	17.0399
1515.43	17.3487
1516.99	17.2295
1518.55	17.8937
1520.1	18.9004
1521.66	19.6225
1523.22	20.1026
1524.77	20.1543
1526.33	20.05
1527.88	20.5637
1529.44	20.3759
1530.99	22.2571
1532.54	23.638
1534.1	23.466
1535.65	24.065
1537.21	24.3446
1538.76	24.6678
1540.31	25.2844
1541.86	26.173
1543.42	27.7045
1544.97	28.4082
1546.52	29.1737
1548.07	28.8637
1549.62	29.5508
1551.17	30.7078
1552.72	31.1603
1554.27	31.5585
1555.82	31.5083
1557.37	32.6967
1558.92	33.91
1560.47	33.5806
1562.02	33.7763
1563.56	34.8426
1565.11	35.791
1566.66	36.2113
1568.21	36.4708
1569.75	36.2625
1571.3	36.8804
1572.85	37.211
1574.39	37.8817
1575.94	38.9312
1577.49	39.8425
1579.03	40.3552
1580.57	41.5356
1582.12	42.2636
1583.66	43.1067
1585.21	43.9459
1586.75	44.7269
1588.3	44.7412
1589.84	46.0719
1591.38	47.063
1592.92	47.7131
1594.47	48.6586
1596.01	50.2104
1597.55	50.8646
1599.09	50.6444
1600.63	50.8594
1602.17	50.3267
1603.71	49.3146
1605.25	49.7896
1606.79	50.0543
1608.33	50.3508
1609.87	49.8009
1611.41	49.1275
1612.95	49.0317
1614.49	48.1153
1616.03	47.8589
1617.57	48.065
1619.1	48.2372
1620.64	48.4622
1622.18	48.8398
1623.72	48.5578
1625.25	47.963
1626.79	47.622
1628.32	46.8111
1629.86	46.4675
1631.39	45.9158
1632.93	46.7618
1634.46	47.4455
1636	46.8031
1637.53	47.1887
1639.07	47.8733
1640.6	48.2779
1642.13	48.0247
1643.67	47.6514
1645.2	47.9843
1646.73	49.2541
1648.26	50.1937
1649.8	50.5375
1651.33	51.0383
1652.86	51.6803
1654.39	52.4109
1655.92	53.41
1657.45	53.8124
1658.98	53.0563
1660.51	52.5571
1662.04	52.0655
1663.57	51.2612
1665.1	49.9477
1666.63	49.9481
1668.16	49.3242
1669.68	48.2643
1671.21	48.1021
1672.74	46.8565
1674.27	45.2353
1675.79	43.674
1677.32	41.9502
1678.85	39.983
1680.37	38.1053
1681.9	37.2528
1683.42	35.6747
1684.95	34.789
1686.47	33.2783
1688	31.0069
1689.52	29.1228
1691.05	27.357
1692.57	26.6097
1694.09	24.9727
1695.62	23.4802
1697.14	22.0925
1698.66	20.6928
1700.18	18.7262
1701.71	17.2686
1703.23	16.8878
1704.75	16.1431
1706.27	16.0597
1707.79	15.2712
1709.31	15.2512
1710.83	14.4091
1712.35	14.2412
1713.87	13.8461
1715.39	12.9175
1716.91	12.5557
1718.43	11.9641
1719.95	11.7679
1721.47	12.074
1722.99	11.831
1724.5	11.4589
1726.02	10.9004
1727.54	11.3646
1729.06	11.5331
1730.57	11.3388
1732.09	11.3961
1733.61	10.2645
1735.12	9.64268
1736.64	9.19944
1738.15	9.47098
1739.67	9.40686
1741.18	9.35514
1742.7	9.87662
1744.21	9.92976
1745.72	9.5617
1747.24	9.75384
1748.75	8.70671
1750.26	8.12375
1751.77	7.31193
1753.29	6.98733
1754.8	6.31372
1756.31	5.65238
1757.82	5.60499
1759.33	5.35413
1760.84	5.218
1762.36	4.28073
1763.87	3.78526
1765.38	3.98464
1766.89	3.35655
1768.4	3.26282
1769.91	2.55651
1771.41	2.63751
1772.92	2.84137
1774.43	3.27892
1775.94	3.17171
1777.45	3.09552
1778.95	3.14106
1780.46	2.97495
1781.97	3.05806
1783.48	2.88264
1784.98	3.18433
1786.49	3.51783
1787.99	3.73074
1789.5	3.37071
1791.01	3.51444
1792.51	3.14886
1794.01	2.87079
1795.52	2.49306
1797.02	2.43499
1798.53	2.66932
1800.03	2.99195
1801.53	2.61602
1803.04	2.97481
1804.54	3.24876
1806.04	3.28755
1807.54	3.78065
1809.05	3.8575
1810.55	4.43275
1812.05	4.7179
1813.55	5.0889
1815.05	4.71181
1816.55	4.57864
1818.05	4.75045
1819.55	4.79758
1821.05	4.53714
1822.55	4.66068
1824.05	4.18013
1825.55	3.75352
1827.05	3.34127
1828.55	3.4953
1830.04	3.42454
1831.54	3.592
1833.04	3.6377
1834.54	3.74365
1836.03	4.33357
1837.53	4.17277
1839.03	4.67714
1840.52	4.86062
1842.02	4.52843
1843.51	4.95392
1845.01	4.84342
1846.5	4.68265
1848	4.72851
1849.49	4.77575
1850.99	4.48213
1852.48	4.13748
1853.97	4.40693
1855.47	4.60246
1856.96	3.9776
1858.45	4.3412
1859.94	4.15212
1861.44	4.4209
1862.93	3.71407
1864.42	3.44695
1865.91	3.38014
1867.4	3.15924
1868.89	2.96236
1870.38	3.0444
1871.87	3.4998
1873.36	3.77327
1874.85	3.67221
1876.34	3.45119
1877.83	3.73044
1879.32	4.29014
1880.81	4.35781
1882.3	4.23277
1882.57	3.82008
1884.07	3.23522
1885.56	3.17218
1887.06	2.98343
1888.55	2.62756
1890.04	2.51225
1891.54	2.12063
1893.03	1.60187
1894.52	0.986482
1896.02	0.645605
1897.51	-0.161842
1899	-0.271014
1900.49	-0.285125
1901.98	-0.200468
1903.47	0.239873
1904.96	0.327678
1906.45	0.54418
1907.94	0.476107
1909.43	0.738657
1910.92	1.06332
1912.41	1.2378
1913.9	1.13221
1915.39	1.11116
1916.88	1.3118
1918.37	1.3556
1919.85	1.40172
1921.34	1.62942
1922.83	1.68793
1924.32	1.12114
1925.8	1.15409
1927.29	1.9604
1928.78	1.67398
1930.26	1.70618
1931.75	2.02281
1933.23	2.58874
1934.72	3.02786
1936.2	2.98556
1937.69	3.62925
1939.17	4.02373
1940.66	4.48796
1942.14	4.54596
1943.63	4.81206
1945.11	5.36098
1946.59	5.06417
1948.07	4.97304
1949.56	5.17305
1951.04	5.63507
1952.52	6.03305
1954	5.47841
1955.48	4.79276
1956.96	4.43767
1958.45	4.92894
1959.93	5.36476
1961.41	4.9607
1962.89	4.34616
1964.37	4.06939
1965.85	3.73839
1967.32	3.45087
1968.8	3.28756
1970.28	3.16904
1971.76	3.12551
1973.24	3.66734
1974.72	3.74806
1976.19	4.07613
1977.67	4.08774
1979.15	3.79459
1980.63	3.72911
1982.1	3.85151
1983.58	4.04416
1985.05	4.10534
1986.53	3.36649
1988	3.10595
1989.48	2.72122
1990.95	2.95308
1992.43	2.67183
1993.9	2.68914
1995.38	2.49089
1996.85	2.7851
1998.32	2.86747
1999.8	2.64647
2001.27	2.71803
2002.74	2.25937
2004.22	2.38619
2005.69	2.58655
2007.16	3.15554
2008.63	2.9838
2010.1	3.21514
2011.57	3.3509
2013.04	3.22661
2014.51	3.0893
2015.98	2.90728
2017.45	3.38278
2018.92	3.6848
2020.39	3.2686
2021.86	3.67819
2023.33	3.69406
2024.8	3.60924
2026.27	3.84655
2027.74	3.572
2029.2	4.09436
2030.67	4.57951
2032.14	4.95521
2033.61	4.82759
2035.07	4.74883
2036.54	5.04745
2038.01	5.49356
2039.47	5.51648
2040.94	5.38679
2042.4	5.82169
2043.87	6.22199
2045.33	6.4715
2046.8	6.74013
2048.26	6.95016
2049.72	7.3479
2051.19	7.39684
2052.65	8.35055
2054.12	8.71123
2055.58	8.99094
2057.04	9.30458
2058.5	9.45253
2059.97	9.61069
2061.43	10.1808
2062.89	11.0399
2064.35	11.2017
2065.81	11.0736
2067.27	11.3819
2068.73	11.1177
2070.19	11.4058
2071.65	11.0736
2073.11	10.7216
2074.57	11.4631
2076.03	11.8487
2077.49	12.3186
2078.95	12.6396
2080.41	12.4704
2081.87	12.2811
2083.32	12.1018
2084.78	11.8287
2086.24	11.9662
2087.7	12.0191
2089.15	12.4347
2090.61	12.8466
2092.07	12.6088
2093.52	12.473
2094.98	12.7188
2096.43	12.6597
2097.89	13.0534
2099.34	13.5621
2100.8	13.8482
2102.25	14.8841
2103.71	15.3037
2105.16	15.0174
2106.61	15.8745
2108.07	16.0821
2109.52	16.9709
2110.97	16.9829
2112.43	17.0898
2113.88	17.3933
2115.33	18.2467
2116.78	18.0953
2118.23	18.3797
2119.68	19.1621
2121.13	19.9488
2122.59	20.9752
2124.04	21.6129
2125.49	23.1785
2126.94	23.8345
2128.39	24.1896
2129.83	25.0303
2131.28	25.2949
2132.73	26.1929
2134.18	27.0108
2135.63	27.7095
2137.08	28.2563
2138.53	28.945
2139.97	29.8119
2141.42	30.5321
2142.87	31.5455
2144.31	32.5285
2145.76	33.3494
2147.21	34.0851
2148.65	34.7897
2150.1	35.4506
2151.54	36.1864
2152.99	36.3888
2154.43	37.1504
2155.88	38.2327
2157.32	38.8
2158.77	39.4964
2160.21	40.3431
2161.65	41.2836
2163.1	42.1614
2164.54	42.0917
2165.98	42.0999
2167.43	42.6684
2168.87	43.0123
2170.31	43.9863
2171.75	44.6263
2173.19	45.2403
2174.64	45.6469
2176.07	45.1781
2177.52	44.7196
2178.96	45.4658
2180.4	45.0126
2181.84	45.0566
2183.28	44.34
2184.72	43.5443
2186.15	42.4317
2187.59	42.0399
2189.03	41.5482
2190.47	41.9172
2191.91	41.7111
2193.35	41.8788
2194.78	42.1057
2196.22	41.5905
2197.66	41.226
2199.09	39.6654
2200.53	38.504
2201.97	38.0086
2203.4	37.0007
2204.84	35.9462
2206.27	35.0045
2207.71	34.3083
2209.14	33.2577
2210.58	31.955
2212.01	31.1267
2213.45	29.8904
2214.88	28.8327
2216.31	28.246
2217.75	27.3798
2219.18	26.4856
2220.61	25.9757
2222.05	25.3074
2223.48	24.2703
2224.91	23.0694
2226.34	22.2445
2227.78	21.4182
2229.21	20.7284
2230.64	20.1331
2232.07	19.7904
2233.5	18.885
2234.93	18.2089
2236.36	16.9131
2237.79	16.0302
2239.22	15.9032
2240.65	15.6027
2242.08	15.2782
2243.5	14.8186
2244.93	14.3738
2246.36	13.683
2247.79	13.0236
2249.22	12.9473
2250.64	12.9682
2252.07	12.1149
2253.5	11.6914
2254.92	11.3158
2256.35	10.7927
2257.78	10.4539
2259.2	10.8816
2260.63	10.7232
2262.05	11.1815
2263.48	11.1433
2264.9	11.5346
2266.33	11.4104
2267.75	10.9085
2269.18	10.2774
2270.6	9.8444
2272.02	9.96577
2273.45	9.39639
2274.87	9.14747
2276.29	8.80991
2277.71	8.71273
2279.14	8.54924
2280.56	7.92228
2281.98	7.35592
2283.4	6.93088
2284.82	6.07259
2286.24	6.55381
2287.66	6.91098
2289.08	6.43014
2290.5	6.16247
2291.92	5.69126
2293.34	4.91206
2294.76	4.41928
2296.18	4.58329
2297.6	4.80519
2299.02	5.12578
2300.44	5.1053
2301.86	5.29553
2303.27	5.28243
2304.69	5.21699
2306.11	5.48721
2307.53	5.58876
2308.94	6.13946
2310.36	6.98923
2311.78	7.16074
2313.19	7.23132
2314.61	7.61342
2316.02	7.69237
2317.44	8.02559
2318.85	8.08224
2320.27	8.264
2321.68	7.78875
2323.1	7.57643
2324.51	7.56981
2325.92	7.29432
2327.34	7.14706
2328.75	7.29294
2330.16	7.59657
2331.58	7.81767
2332.99	8.51531
2334.4	8.32974
2335.81	8.06792
2337.23	8.09803
2338.64	7.39395
2340.05	6.89654
2341.46	7.02711
2342.87	6.5974
2344.28	5.53289
2345.69	5.08045
2347.1	4.2737
2348.51	3.83561
2349.92	3.26332
2351.33	2.58614
2352.74	2.02269
2354.15	1.86137
2355.55	1.44443
2356.96	1.39791
2358.37	0.843244
2359.78	0.590193
2361.19	0.00725458
2362.59	-0.0649276
2364	-0.294937
2365.41	-0.209453
2366.81	-0.108716
2368.22	-0.120206
2369.62	0.114078
2371.03	-0.343383
2372.44	0.15009
2373.84	0.0357637
2375.24	0.764972
2376.65	0.832027
2378.05	0.985012
2379.46	1.15783
2380.86	0.888617
2382.26	0.426204
2383.67	0.466875
2385.07	0.153409
2386.47	-0.274727
2387.88	-0.172962
2389.28	-0.699546
2390.68	-0.732086
2392.08	-0.576896
2393.48	-0.492288
2394.89	-0.709725
2396.29	-0.572714
2397.69	0.195483
2399.09	0.526636
2400.49	0.530971
2401.89	0.212197
2403.29	0.10124
2404.69	0.350032
2406.09	0.260098
2407.48	0.603397
2408.88	0.453109
2410.28	0.968732
2411.68	1.21492
2413.08	1.46626
2414.48	1.67029
2415.87	2.85138
2417.27	3.5779
2418.67	4.08958
2420.06	4.56761
2421.46	5.02303
2422.86	5.4976
2424.25	6.13681
2425.65	6.20603
2427.04	6.40728
2428.44	6.60737
2429.83	6.88503
2431.23	6.54852
2432.62	6.64412
2434.02	6.62197
2435.41	6.95108
2436.81	7.65647
2438.2	8.14234
2439.59	8.41462
2440.99	8.27464
2442.38	8.26935
2443.77	8.43363
2445.16	8.8721
2446.56	8.5748
2447.95	8.43698
2449.34	8.20704
2450.73	7.86456
2452.12	7.7931
2453.51	7.38812
2454.9	6.90332
2456.29	7.11438
2457.68	7.28244
2459.07	6.65247
2460.46	6.1083
2461.85	5.99497
2463.24	5.25165
2464.63	5.1203
2466.02	5.13533
2467.4	4.85153
2468.79	4.11785
2470.18	3.57434
2471.57	3.30059
2472.95	3.14346
2474.34	3.56229
2475.73	3.50073
2477.12	3.5181
2478.5	3.92894
2479.89	3.9069
2481.27	3.83189
2482.66	3.98597
2484.04	3.90519
2485.43	4.00928
2486.81	3.53742
2488.2	3.30477
2489.58	2.86736
2490.97	2.39542
2492.35	2.56692
2493.73	2.52356
2495.12	2.14623
2496.5	1.74543
2497.88	1.58753
2499.27	1.77584
2500.65	1.58247
2502.03	1.69329
2503.41	1.82892
2504.79	1.75463
2506.17	1.66109
2507.56	1.78755
2508.94	1.91202
2510.32	1.49792
2511.7	1.25125
2513.08	1.60864
2514.46	1.40083
2515.84	1.06456
2517.22	0.789006
2518.59	0.850069
2519.97	1.32431
2521.35	1.25168
2522.73	0.934834
2524.11	1.13617
2525.49	1.17279
2526.86	0.938159
2528.24	1.03655
2529.62	1.18602
2530.99	2.19283
2532.37	2.67481
2533.75	2.98192
2535.12	3.36869
2536.5	3.48011
2537.88	3.62449
2539.25	4.20065
2540.63	4.11426
2542	4.66744
2543.38	5.24967
2544.75	5.20467
2546.12	5.74129
2547.5	6.20264
2548.87	6.77808
2550.24	6.78611
2551.62	6.56354
2552.99	6.92779
2554.36	6.90225
2555.74	7.00375
2557.11	7.19812
2558.48	6.92145
2559.85	7.14228
2561.22	7.39462
2562.59	7.15003
2563.96	6.82585
2565.34	6.50466
2566.71	6.35037
2568.08	6.19457
2569.45	6.36307
2570.82	5.63178
2572.18	5.31348
2573.55	5.45737
2574.92	5.16164
2576.29	5.37552
2577.66	4.56937
2579.03	3.8694
2580.4	4.02555
2581.77	3.43855
2583.13	3.10876
2584.5	3.0834
2585.87	2.86366
2587.23	2.94781
2588.6	2.83738
2589.97	2.35894
2591.33	2.22205
2592.7	1.90054
2594.06	1.84479
2595.43	1.89246
2596.79	1.79758
2598.16	1.7922
2599.52	1.8712
2600.89	1.08815
2602.25	0.532102
2603.62	0.53266
2604.98	-0.0613549
2606.34	-0.0611479
2607.71	0.464666
2609.07	0.559168
2610.43	1.31113
2611.79	1.69759
2613.16	1.82859
2614.52	2.0998
2615.88	1.95769
2617.24	2.37277
2618.6	1.6738
2619.96	2.03315
2621.32	2.28719
2622.68	2.17476
2624.04	2.37609
2625.4	2.41385
2626.76	2.11534
2628.12	2.39114
2629.48	2.76525
2630.84	2.69348
2632.2	3.06304
2633.56	3.31966
2634.92	3.81614
2636.28	4.23647
2637.63	4.75934
2638.99	4.85921
2640.35	6.02736
2641.71	5.88987
2643.06	5.49894
2644.42	5.38175
2645.77	4.66138
2647.13	4.69674
2648.49	4.88258
2649.84	4.73942
2651.2	4.57589
2652.55	4.68147
2653.91	4.49454
2655.26	4.08779
2656.62	4.04369
2657.97	4.20744
2659.33	4.12988
2660.68	3.98403
2662.03	3.9788
2663.39	3.98099
2664.74	3.78222
2666.09	4.13358
2667.44	3.58541
2668.8	3.05574
2670.15	3.4339
2671.5	3.41899
2672.85	3.00043
2674.2	3.35304
2675.55	3.45818
2676.91	3.12175
2678.26	3.23114
2679.61	3.40555
2680.96	3.00289
2682.31	3.06473
2683.66	3.09606
2685	3.09457
2686.35	3.30443
2687.7	3.40134
2689.05	2.94429
2690.4	3.01219
2691.75	3.13606
2693.1	3.84216
2694.44	4.25046
2695.79	4.47801
2697.14	4.89721
2698.49	5.24989
2699.83	6.01448
2701.18	6.2476
2702.52	6.34677
2703.87	6.20959
2705.22	6.60541
2706.56	6.48709
2707.91	5.86446
2709.25	5.14985
2710.6	5.31622
2711.94	4.88578
2713.29	4.45638
2714.63	4.95055
2715.97	5.07003
2717.32	5.07214
2718.66	5.06056
2720.01	5.3883
2721.35	5.17291
2722.69	5.01064
2724.03	5.61828
2725.38	5.50954
2726.72	5.65239
2728.06	5.4277
2729.4	5.77464
2730.74	6.12924
2732.08	5.85415
2733.42	5.65549
2734.76	5.24331
2736.1	5.15003
2737.44	4.92792
2738.78	4.39046
2740.12	4.26611
2741.46	4.37635
2742.8	4.45073
2744.14	4.45081
2745.48	5.02589
2746.82	4.67201
2748.16	4.2455
2749.49	4.50028
2750.83	4.27388
2752.17	4.57001
2753.51	4.99262
2754.84	4.56333
2756.18	4.71339
2757.52	5.33806
2758.85	5.97756
2760.19	6.37648
2761.53	6.03467
2762.86	5.99932
2764.2	6.34889
2765.53	6.33843
2766.87	6.16105
2768.2	6.13538
2769.54	6.1769
2770.87	6.3578
2772.2	6.18024
2773.54	5.94021
2774.87	5.95894
2776.2	6.25384
2777.54	6.06035
2778.87	5.49403
2780.2	5.6658
2781.53	5.85038
2782.87	5.37663
2784.2	4.85404
2785.53	4.48041
2786.86	3.97335
2788.19	3.63404
2789.52	3.51595
2790.85	3.72073
2792.18	3.58748
2793.51	3.47581
2794.84	3.01305
2796.17	3.22453
2797.5	2.95584
2798.83	2.38306
2800.16	2.31705
2801.49	2.24198
2802.82	1.93731
2804.15	1.59856
2805.47	1.67758
2806.8	1.71239
2808.13	1.63293
2809.46	1.71576
2810.78	1.69227
2812.11	2.03973
2813.44	1.7003
2814.76	2.21534
2816.09	2.53305
2817.42	2.20987
2818.74	3.08862
2820.07	3.5063
2821.39	3.63755
2822.72	4.28603
2824.04	4.78599
2825.37	5.36213
2826.69	5.86894
2828.02	6.22647
2829.34	7.34308
2830.66	8.09285
2831.99	9.07327
2833.31	10.1874
2834.63	11.5302
2835.96	12.4312
2837.28	13.6328
2838.6	14.3904
2839.92	16.0636
2841.24	16.9711
2842.57	18.009
2843.89	19.1112
2845.21	20.019
2846.53	21.0072
2847.85	21.8891
2849.17	23.2458
2850.49	24.6802
2851.81	26.6474
2853.13	28.451
2854.45	29.6123
2855.77	31.2116
2857.09	32.5176
2858.41	33.6933
2859.72	34.6509
2861.04	36.2413
2862.36	37.7248
2863.68	39.1631
2865	40.4565
2866.31	41.8036
2867.63	42.6437
2868.95	43.7297
2870.26	44.7351
2871.58	45.9059
2872.9	46.6509
2874.21	47.3362
2875.53	48.1395
2876.84	49.0707
2878.16	49.7308
2879.47	50.2331
2880.79	51.119
2882.1	51.8182
2883.42	52.7476
2884.73	53.2936
2886.05	53.9682
2887.36	54.8937
2888.67	56.1643
2889.99	57.1211
2891.3	58.1734
2892.61	58.9236
2893.92	60.1094
2895.24	61.9272
2896.55	62.6256
2897.86	64.1374
2899.17	65.586
2900.48	67.1924
2901.79	68.9953
2903.11	70.8055
2904.42	72.2257
2905.73	74.7564
2907.04	76.9637
2908.35	79.4667
2909.66	82.2657
2910.97	85.1878
2912.27	87.5821
2913.58	90.4154
2914.89	93.4474
2916.2	96.0643
2917.51	98.6016
2918.82	100.928
2920.13	102.567
2921.43	105.138
2922.74	106.489
2924.05	108.282
2925.35	109.815
2926.66	111.475
2927.97	112.244
2929.27	113.162
2930.58	114.011
2931.89	114.303
2933.19	115.082
2934.5	115.617
2935.8	115.238
2937.11	114.981
2938.41	114.645
2939.72	114.127
2941.02	113.775
2942.32	112.415
2943.63	110.762
2944.93	109.918
2946.24	108.634
2947.54	106.928
2948.84	105.174
2950.14	103.262
2951.45	101.634
2952.75	99.2382
2954.05	97.0765
2955.35	95.0059
2956.65	92.7452
2957.95	90.5556
2959.26	88.571
2960.56	85.7651
2961.86	82.5295
2963.16	80.0726
2964.46	78.0233
2965.76	75.6556
2967.06	73.7462
2968.36	71.8717
2969.66	69.7139
2970.96	68.4791
2972.25	66.4282
2973.55	63.8611
2974.85	61.8919
2976.15	59.5617
2977.45	56.9884
2978.74	55.0767
2980.04	52.8741
2981.34	50.4695
2982.64	47.9317
2983.93	45.7923
2985.23	43.1907
2986.52	40.9503
2987.82	38.6268
2989.12	36.4184
2990.41	34.0607
2991.71	31.9986
2993	29.9602
2994.3	28.7552
2995.59	27.0824
2996.89	25.2683
2998.18	23.8684
2999.48	22.047
3000.77	20.3441
3002.06	19.4052
3003.36	17.8155
3004.65	16.2154
3005.94	15.14
3007.23	13.6621
3008.53	13.3544
3009.82	12.7842
3011.11	11.6078
3012.4	10.6666
3013.69	10.305
3014.99	9.51249
3016.28	8.94713
3017.57	8.44913
3018.86	8.23431
3020.15	7.47129
3021.44	6.82905
3022.73	6.53578
3024.02	5.69184
3025.31	4.80741
3026.6	4.48781
3027.89	4.88379
3029.18	4.788
3030.46	4.18154
3031.75	4.71701
3033.04	5.10855
3034.33	4.83026
3035.62	4.82409
3036.9	4.03271
3038.19	4.11317
3039.48	4.48309
3040.76	4.90778
3042.05	4.79979
3043.34	4.88054
3044.62	5.09282
3045.91	5.3046
3047.19	5.82483
3048.48	6.27059
3049.77	6.56758
3051.05	6.89819
3052.34	6.92883
3053.62	6.57333
3054.9	6.62714
3056.19	6.67442
3057.47	6.72333
3058.76	6.95693
3060.04	6.97162
3061.32	7.29197
3062.61	7.58708
3063.89	7.87702
3065.17	7.80501
3066.45	7.54923
3067.74	7.0358
3069.02	6.5858
3070.3	6.87549
3071.58	6.56552
3072.86	6.50324
3074.14	6.31814
3075.42	5.80832
3076.7	5.62691
3077.99	5.45573
3079.26	4.7169
3080.54	4.29089
3081.82	3.68289
3083.1	3.10808
3084.38	2.46408
3085.66	2.4913
3086.94	1.75958
3088.22	1.4235
3089.5	1.18417
3090.78	1.16411
3092.05	0.895312
3093.33	0.497675
3094.61	0.768927
3095.89	0.959294
3097.16	0.961304
3098.44	0.317872
3099.72	0.217401
3100.99	0.460733
3102.27	1.03747
3103.54	1.29679
3104.82	1.23383
3106.1	1.60824
3107.37	2.37745
3108.65	2.87206
3109.92	3.05932
3111.2	3.23801
3112.47	3.26046
3113.74	3.58355
3115.02	3.61745
3116.29	3.51532
3117.56	4.02868
3118.84	4.4694
3120.11	5.01826
3121.38	5.71568
3122.66	6.36757
3123.93	6.88097
3125.2	7.21883
3126.47	7.59441
3127.74	7.76749
3129.01	7.68598
3130.29	7.71067
3131.56	8.0038
3132.83	8.42262
3134.1	9.5069
3135.37	9.55998
3136.64	10.0522
3137.91	10.4069
3139.18	10.1559
3140.45	10.6282
3141.72	10.854
3142.99	11.0442
3144.26	11.3452
3145.52	11.7031
3146.79	12.2014
3148.06	12.6455
3149.33	12.6187
