#Acq. time (s)=	45
#Accumulations=	2
#Range (cm-¹)=	200...3150
#Windows=	2
#Auto scanning=	Off
#Autofocus=	Off
#Macrospot=	Off
#AutoExposure=	Off
#Spike filter=	Multiple accum.
#Delay time (s)=	0
#Binning=	1
#Readout mode=	Signal
#DeNoise=	Off
#ICS correction=	On
#Dark correction=	Off
#Inst. Process=	Off
#Detector Gain=	Best Dynamic Range
#Detector ADC=	20 kHz       
#Detector temperature (°C)=	-69.85
#Instrument=	LabRAM HR Evol
#Detector=	Synapse
#Objective=	x100
#Grating=	600 gr/mm
#ND Filter=	100%
#Laser (nm)=	532 
#Hole=	100.021
#Range=	Auto
#Laser Pol.=	No
#Raman. Pol.=	No
#Laser Pol. (°)=	-0.0007625
#Raman Pol. (°)=	89.9995
#Collection=	Microscope
#StageXY=	Marzhauser
#StageZ=	Marzhauser
#X (µm)=	250.1
#Y (µm)=	1675.8
#Z (µm)=	426.7
#Full time(mm:ss)=	3:14
#Project=	
#Sample=	
#Site=	
#Title=	Thy_40_11_31_2x_45s_532 nm_x100_100%_600 gr_mm
#Remark=	
#Date=	05.07.2022 12:14
#Acquired=	05.07.2022 12:14:07
#Base:Fit=	10.08.2022 10:01:35
#Base:Sub=	10.08.2022 10:01:52
#Filter:Polynom=	16.08.2022 10:21:53
#AxisType[0]=Intens
#AxisUnit[0]=Cnt
#AxisType[1]=Spectr
#AxisUnit[1]=1/cm
200.43	7.85089
202.244	9.41666
204.059	13.2884
205.873	14.903
207.688	15.9155
209.501	16.6747
211.314	16.9854
213.127	17.0007
214.941	16.8628
216.753	15.9908
218.564	15.6909
220.375	15.7309
222.186	15.6143
223.999	16.0515
225.809	16.1556
227.618	16.4452
229.428	15.8921
231.236	15.397
233.045	15.0057
234.855	15.3263
236.663	15.2655
238.471	15.3804
240.278	15.5035
242.085	15.3845
243.891	14.8379
245.698	14.8323
247.503	14.2448
249.309	13.4433
251.116	12.2882
252.921	10.4205
254.725	9.49372
256.529	9.09919
258.333	9.54996
260.136	9.52077
261.939	9.7767
263.742	9.6312
265.544	9.61389
267.346	9.60123
269.148	8.74206
270.949	7.96083
272.75	8.2281
274.55	7.42208
276.351	7.86033
278.15	8.07129
279.95	7.57107
281.749	8.3564
283.548	9.58841
285.346	9.5655
287.144	9.65605
288.942	9.17771
290.739	9.22582
292.536	8.38043
294.333	8.09735
296.129	9.18334
297.925	9.99125
299.721	10.2071
301.514	10.6596
303.309	11.5481
305.104	11.7761
306.898	12.2912
308.692	13.7326
310.486	14.5125
312.279	15.2061
314.072	15.8097
315.862	16.3815
317.654	16.4231
319.446	16.5455
321.238	16.578
323.029	16.9424
324.819	17.4405
326.608	17.4474
328.398	17.9627
330.188	18.0394
331.977	17.3382
333.766	16.4702
335.553	16.6802
337.341	16.2311
339.129	15.1492
340.917	13.4583
342.704	12.791
344.489	12.8339
346.275	14.0102
348.062	14.3619
349.845	13.1914
351.631	13.1999
353.416	12.1691
355.201	12.3347
356.984	12.349
358.768	12.7431
360.552	12.1258
362.333	13.083
364.116	12.5205
365.899	12.8575
367.68	12.7491
369.462	12.1431
371.243	12.4474
373.023	12.5925
374.804	12.1847
376.585	12.4038
378.363	11.3764
380.143	11.7082
381.923	11.5931
383.7	13.843
385.479	13.6226
387.256	13.5825
389.034	13.1084
390.812	12.9946
392.588	12.9133
394.365	13.7096
396.14	13.9506
397.916	14.3074
399.691	13.519
401.467	12.8537
403.24	12.1499
405.015	11.7017
406.788	10.8803
408.563	10.3565
410.335	9.28574
412.109	9.39159
413.88	8.56464
415.654	9.04674
417.424	8.80045
419.197	7.319
420.967	7.41993
422.739	7.47438
424.508	7.34288
426.279	6.61902
428.048	5.53653
429.819	5.16909
431.587	4.88165
433.356	4.34932
435.124	3.8693
436.891	3.84792
438.66	3.745
440.426	3.86614
442.194	4.5182
443.96	4.98051
445.725	5.48835
447.492	5.98744
449.257	5.77687
451.021	6.70118
452.787	6.58095
454.551	7.32548
456.314	8.53137
458.079	9.03719
459.842	8.70749
461.604	9.12681
463.368	9.5303
465.13	10.2215
466.891	11.1843
468.654	12.3219
470.415	12.3113
472.175	13.4225
473.935	13.1429
475.696	13.895
477.456	14.2555
479.215	14.9951
480.973	16.1878
482.733	17.0314
484.491	16.4647
486.249	16.8553
488.006	16.2124
489.765	16.7133
491.522	16.3609
493.278	17.2265
495.034	17.9553
496.789	18.4251
498.544	18.8318
500.301	19.2194
502.056	19.0379
503.81	19.8329
505.564	19.533
507.317	19.3523
509.071	20.5327
510.825	19.4245
512.578	18.9525
514.33	18.8034
516.082	17.9756
517.833	17.8246
519.585	17.1922
521.335	17.4393
523.086	18.2281
524.836	19.3103
526.586	18.4826
528.335	18.7908
530.085	19.9235
531.835	19.0412
533.584	19.7457
535.332	20.4117
537.08	19.7512
538.827	19.5409
540.574	19.6462
542.321	18.4108
544.068	17.4059
545.814	16.5947
547.56	15.8695
549.305	15.6022
551.05	15.2823
552.795	15.1675
554.54	14.7816
556.282	13.0361
558.025	12.1883
559.769	11.4392
561.512	10.8568
563.255	10.2191
564.997	9.21721
566.739	8.79203
568.481	8.46196
570.223	8.08466
571.964	7.55945
573.705	6.15125
575.443	5.10037
577.183	3.90878
578.923	2.83744
580.663	3.1042
582.402	3.02044
584.141	1.93594
585.879	1.49836
587.615	1.01274
589.353	0.978526
591.09	1.48288
592.828	1.84184
594.564	1.67666
596.299	1.81225
598.035	0.942231
599.771	1.9742
601.506	2.42321
603.242	2.4391
604.974	2.87537
606.709	2.93557
608.443	3.0728
610.177	3.58561
611.908	4.64273
613.642	4.81626
615.374	6.06489
617.105	6.74841
618.837	5.3158
620.569	5.81211
622.3	6.07398
624.03	5.88837
625.761	5.93237
627.491	5.96617
629.219	5.08228
630.949	5.93724
632.677	6.80399
634.406	6.42431
636.135	6.78851
637.861	7.19948
639.59	8.18704
641.318	8.27872
643.043	8.49903
644.77	9.65463
646.495	9.02027
648.222	9.44772
649.948	9.73344
651.672	9.58826
653.398	9.62662
655.121	10.5969
656.846	11.2353
658.569	11.1992
660.293	10.8659
662.015	10.9853
663.738	11.4516
665.46	13.4569
667.183	14.6283
668.903	15.1152
670.626	16.071
672.346	17.5497
674.067	17.7165
675.787	18.7118
677.508	19.7777
679.226	19.9219
680.947	20.2057
682.665	21.3689
684.385	21.5312
686.102	23.65
687.821	24.171
689.538	24.3779
691.254	25.6886
692.972	25.9174
694.688	26.7946
696.406	27.766
698.121	29.3231
699.835	29.9712
701.552	29.4458
703.266	29.2148
704.98	29.7433
706.695	31.4499
708.409	32.3672
710.121	33.2104
711.836	34.0976
713.548	33.829
715.26	34.5576
716.973	35.6392
718.685	36.9028
720.396	38.0628
722.108	40.1031
723.818	41.272
725.528	42.1771
727.238	42.3533
728.949	43.6212
730.658	43.9277
732.367	44.5945
734.075	45.7134
735.785	46.1125
737.493	46.7753
739.2	48.0558
740.907	49.874
742.614	50.3532
744.322	51.9789
746.028	52.5014
747.734	54.0893
749.439	55.7837
751.144	56.6749
752.849	56.6966
754.555	57.5281
756.26	58.819
757.963	59.1788
759.667	59.8393
761.37	61.7044
763.073	62.0784
764.775	62.7402
766.477	64.1568
768.179	65.314
769.883	65.4249
771.584	66.6649
773.285	66.5651
774.986	66.6439
776.686	67.8131
778.386	67.4609
780.085	68.4873
781.785	68.8417
783.484	69.6381
785.182	70.3704
786.881	69.8303
788.579	71.8164
790.276	73.0237
791.974	73.6268
793.671	75.0772
795.367	76.3754
797.064	77.6513
798.76	77.9262
800.456	79.9803
802.151	81.4846
803.846	82.7842
805.541	82.7552
807.234	82.5996
808.928	82.6373
810.622	82.337
812.315	83.2153
814.008	83.7063
815.701	83.3408
817.394	83.6261
819.086	84.2371
820.778	84.4405
822.468	85.0052
824.159	85.2943
825.85	84.5458
827.541	83.9502
829.231	84.2315
830.921	83.3023
832.609	83.552
834.298	82.1799
835.987	80.8101
837.676	80.1068
839.364	79.5867
841.051	78.7925
842.738	78.4812
844.426	77.3091
846.113	76.5051
847.798	73.7751
849.484	72.1087
851.171	70.4018
852.857	68.5047
854.54	67.1729
856.226	65.4841
857.911	63.4083
859.593	62.0368
861.278	61.6345
862.961	59.8311
864.645	58.4879
866.327	57.8021
868.01	56.5431
869.692	56.1837
871.373	55.6951
873.055	56.3599
874.735	55.4398
876.416	55.365
878.097	55.3759
879.776	54.1426
881.457	53.8059
883.135	53.2662
884.815	52.8188
886.495	51.7767
888.172	50.9561
889.851	50.0575
891.528	50.0972
893.206	49.4764
894.882	48.3973
896.56	48.2
898.237	47.7961
899.912	48.1031
901.589	48.6674
903.263	49.8317
904.94	48.3018
906.614	46.6451
908.289	46.453
909.962	45.8762
911.635	46.0333
913.31	46.1217
914.982	44.9228
916.656	44.5433
918.328	43.9646
920.001	43.5622
921.672	43.0805
923.345	42.6497
925.015	42.371
926.685	41.234
928.357	40.5364
930.026	39.1755
931.698	36.8046
933.366	36.2172
935.035	36.3287
936.705	35.4777
938.373	34.5676
940.041	33.2365
941.71	32.9134
943.377	33.7883
945.044	33.2707
946.712	31.8682
948.378	32.3463
950.044	33.4462
951.709	33.772
953.376	35.2951
955.041	35.9064
956.706	35.6741
958.372	35.311
960.036	34.583
961.699	34.7833
963.362	35.6935
965.027	36.9688
966.69	37.4626
968.352	37.8972
970.014	38.2022
971.676	38.1622
973.339	38.6016
975	39.6359
976.661	40.0774
978.322	41.1012
979.982	42.1043
981.642	42.6182
983.303	43.0999
984.962	43.0048
986.621	43.219
988.28	42.0362
989.938	42.7882
991.596	44.3405
993.254	44.4182
994.911	43.958
996.57	43.822
998.227	43.5191
999.884	44.8194
1001.54	43.8875
1003.2	42.7253
1004.85	42.4761
1006.51	42.6763
1008.16	42.6484
1009.82	42.3289
1011.47	42.2642
1013.12	40.9968
1014.78	41.0874
1016.43	41.4788
1018.08	40.9749
1019.74	41.0687
1021.39	41.963
1023.04	42.4117
1024.69	42.6248
1026.34	41.7597
1028	40.7693
1029.65	41.2169
1031.3	42.2245
1032.95	41.7466
1034.6	41.3947
1036.25	40.5719
1037.9	39.1343
1039.54	38.2561
1041.19	37.9688
1042.84	37.4352
1044.49	38.199
1046.14	38.1991
1047.78	37.2909
1049.43	35.6391
1051.08	35.2737
1052.72	34.2783
1054.37	33.4764
1056.02	33.5801
1057.66	33.058
1059.31	31.7284
1060.95	30.7259
1062.6	29.8129
1064.24	28.8342
1065.88	29.1094
1067.53	28.5364
1069.17	28.8008
1070.81	27.953
1072.45	28.1339
1074.1	27.7954
1075.74	26.3007
1077.38	25.3508
1079.02	25.7144
1080.66	25.2913
1082.3	24.9402
1083.94	24.331
1085.58	24.6888
1087.22	24.931
1088.86	25.8444
1090.5	25.5833
1092.14	25.1625
1093.78	25.1741
1095.42	24.2218
1097.05	25.342
1098.69	25.7685
1100.33	25.448
1101.96	26.7561
1103.6	26.212
1105.24	24.9698
1106.87	24.7804
1108.51	23.7278
1110.14	23.7876
1111.78	24.057
1113.41	23.1727
1115.05	22.1853
1116.68	21.8155
1118.31	20.8043
1119.95	19.7969
1121.58	19.2157
1123.21	17.4132
1124.85	16.7312
1126.48	15.4035
1128.11	14.7165
1129.74	13.6421
1131.37	12.5394
1133	13.2285
1134.63	12.4843
1136.26	11.7273
1137.89	11.2296
1139.52	10.5675
1141.15	10.7165
1142.78	10.3956
1144.41	10.066
1146.04	8.78071
1147.66	7.61609
1149.29	6.18804
1150.92	6.09061
1152.55	5.39947
1154.17	5.42184
1155.8	5.28138
1157.43	5.0638
1159.05	5.35773
1160.68	4.79579
1162.3	3.52474
1163.93	3.9306
1165.55	3.84487
1167.17	3.38745
1168.8	2.47034
1170.42	3.17741
1172.05	2.2824
1173.67	2.83253
1175.29	2.85741
1176.91	2.93309
1178.54	4.1143
1180.16	3.20307
1181.78	3.18968
1183.4	3.94312
1185.02	3.12803
1186.64	2.34507
1188.26	3.1464
1189.88	3.0789
1191.5	3.72956
1193.12	5.18504
1194.74	5.66326
1196.36	6.80388
1197.97	7.65453
1199.59	8.41297
1201.21	9.46814
1202.83	10.8982
1204.44	11.4668
1206.06	14.5019
1207.68	15.7304
1209.29	17.9211
1210.91	20.2514
1212.52	23.0049
1214.14	25.3736
1215.75	27.121
1217.37	28.955
1218.98	31.7635
1220.59	34.7336
1222.21	37.5005
1223.82	38.7921
1225.43	40.4489
1227.05	42.0019
1228.66	44.9894
1230.27	47.4549
1231.88	51.1948
1233.49	53.5302
1235.1	55.0967
1236.72	58.0086
1238.33	60.0648
1239.94	61.1657
1241.55	62.6654
1243.16	64.9475
1244.76	67.4498
1246.37	67.1399
1247.98	68.3232
1249.59	70.6423
1251.2	72.0817
1252.8	72.6968
1254.41	73.5933
1256.02	73.9898
1257.62	75.0601
1259.23	76.5697
1260.84	77.2801
1262.44	78.3199
1264.05	78.4661
1265.66	78.5241
1267.26	80.2505
1268.86	82.7157
1270.47	83.2831
1272.07	83.3899
1273.67	84.5846
1275.28	85.1602
1276.88	85.6225
1278.48	85.6627
1280.09	86.1868
1281.69	86.2453
1283.29	86.5985
1284.89	86.6709
1286.49	88.3845
1288.09	88.465
1289.69	89.375
1291.29	89.649
1292.89	90.7921
1294.49	90.8378
1296.09	90.6611
1297.69	90.8739
1299.29	92.2215
1300.89	92.6975
1302.49	92.6648
1304.08	92.0524
1305.68	92.4819
1307.28	93.2317
1308.88	93.6705
1310.47	93.6959
1312.07	94.1273
1313.66	93.2091
1315.26	92.7828
1316.85	94.0773
1318.45	94.0259
1320.04	94.0925
1321.64	94.1123
1323.23	93.6532
1324.83	92.2731
1326.42	90.96
1328.01	91.0007
1329.61	91.4868
1331.2	88.7616
1332.79	88.4932
1334.38	88.4332
1335.97	88.2834
1337.56	87.4681
1339.16	86.023
1340.75	83.4509
1342.34	82.0241
1343.93	80.4776
1345.52	79.0273
1347.11	78.0059
1348.7	75.3962
1350.29	72.1254
1351.87	71.0463
1353.46	70.3492
1355.05	68.4528
1356.64	65.6964
1358.22	63.3377
1359.81	61.415
1361.4	58.9973
1362.98	58.0525
1364.57	56.3503
1366.16	54.6902
1367.74	53.113
1369.33	51.4429
1370.91	50.2962
1372.5	48.9676
1374.08	46.8728
1375.67	45.2691
1377.25	44.7635
1378.83	44.3276
1380.41	42.8367
1382	41.3852
1383.58	39.7314
1385.16	39.3468
1386.74	38.8495
1388.33	38.1122
1389.91	37.6919
1391.49	37.2017
1393.07	37.0416
1394.65	36.946
1396.23	36.9531
1397.81	36.8623
1399.39	36.2262
1400.97	35.2225
1402.55	34.1966
1404.13	34.1323
1405.7	34.414
1407.28	34.5087
1408.86	35.8827
1410.44	35.787
1412.01	38.0524
1413.59	39.1256
1415.17	39.7422
1416.74	40.05
1418.32	40.973
1419.89	42.9715
1421.47	45.7641
1423.04	48.0426
1424.62	51.0917
1426.19	54.725
1427.77	57.2392
1429.34	60.0218
1430.91	63.6231
1432.49	65.8137
1434.06	68.2552
1435.63	71.2376
1437.2	74.0531
1438.78	76.7486
1440.35	78.7308
1441.92	81.2716
1443.49	82.9348
1445.06	84.1491
1446.63	85.4283
1448.2	84.9444
1449.77	85.7905
1451.34	86.2375
1452.91	87.0496
1454.48	87.3027
1456.05	86.4591
1457.62	85.8225
1459.18	84.5649
1460.75	83.2779
1462.32	81.1031
1463.89	79.5833
1465.45	77.8158
1467.02	75.3582
1468.59	72.6693
1470.15	69.8526
1471.72	67.1615
1473.28	64.4195
1474.85	61.8732
1476.41	58.938
1477.98	55.1397
1479.54	52.6574
1481.1	50.4401
1482.67	48.3573
1484.23	44.9315
1485.79	42.3922
1487.36	40.628
1488.92	37.8064
1490.48	34.9054
1492.04	32.9091
1493.61	30.7529
1495.17	29.1308
1496.73	27.4907
1498.29	26.4695
1499.85	26.1664
1501.41	25.9206
1502.97	25.1373
1504.53	24.4869
1506.09	23.5032
1507.65	23.8158
1509.2	24.2384
1510.76	24.3435
1512.32	24.3778
1513.88	24.2981
1515.43	23.8835
1516.99	23.8647
1518.55	24.0823
1520.1	24.5298
1521.66	25.0871
1523.22	25.5719
1524.77	26.5173
1526.33	26.166
1527.88	27.8994
1529.44	29.3341
1530.99	30.226
1532.54	30.7774
1534.1	31.1066
1535.65	31.9255
1537.21	33.5005
1538.76	34.4633
1540.31	35.6914
1541.86	38.1779
1543.42	40.3971
1544.97	42.4842
1546.52	45.667
1548.07	48.1245
1549.62	50.482
1551.17	53.5651
1552.72	55.8863
1554.27	57.6928
1555.82	59.8166
1557.37	62.3486
1558.92	63.7992
1560.47	64.3577
1562.02	65.9598
1563.56	68.3246
1565.11	69.6396
1566.66	70.0448
1568.21	71.3338
1569.75	73.3963
1571.3	73.5991
1572.85	74.717
1574.39	75.7806
1575.94	77.0318
1577.49	77.7799
1579.03	78.8082
1580.57	79.9324
1582.12	81.5751
1583.66	82.8887
1585.21	84.3623
1586.75	84.5571
1588.3	85.1336
1589.84	85.4099
1591.38	85.7017
1592.92	85.2522
1594.47	85.1497
1596.01	84.0078
1597.55	83.453
1599.09	83.2795
1600.63	82.7139
1602.17	81.5171
1603.71	79.8719
1605.25	80.3272
1606.79	79.721
1608.33	78.5585
1609.87	77.1176
1611.41	77.2825
1612.95	76.9656
1614.49	77.2597
1616.03	77.5935
1617.57	77.7252
1619.1	78.4875
1620.64	80.1892
1622.18	81.3032
1623.72	82.6112
1625.25	82.9758
1626.79	85.354
1628.32	87.9619
1629.86	88.8785
1631.39	91.0327
1632.93	92.9623
1634.46	94.818
1636	96.3646
1637.53	98.0716
1639.07	100.553
1640.6	102.299
1642.13	103.287
1643.67	104.767
1645.2	106.754
1646.73	108.047
1648.26	109.172
1649.8	110.16
1651.33	110.845
1652.86	112.162
1654.39	113.566
1655.92	114.163
1657.45	115.09
1658.98	114.861
1660.51	114.944
1662.04	114.354
1663.57	113.432
1665.1	112.463
1666.63	110.457
1668.16	108.418
1669.68	106.009
1671.21	103.689
1672.74	100.684
1674.27	98.7323
1675.79	95.3587
1677.32	91.7084
1678.85	87.2059
1680.37	83.158
1681.9	78.7652
1683.42	75.0484
1684.95	70.4949
1686.47	66.3426
1688	62.7418
1689.52	57.7601
1691.05	53.9523
1692.57	50.76
1694.09	47.0437
1695.62	45.0002
1697.14	41.9284
1698.66	38.4082
1700.18	35.6514
1701.71	33.8032
1703.23	32.1427
1704.75	29.4738
1706.27	27.0759
1707.79	25.4132
1709.31	23.5662
1710.83	21.8234
1712.35	20.6471
1713.87	19.2661
1715.39	17.6829
1716.91	15.8861
1718.43	14.8718
1719.95	14.6896
1721.47	13.8436
1722.99	12.8094
1724.5	12.6666
1726.02	11.7313
1727.54	12.5785
1729.06	13.2382
1730.57	12.6183
1732.09	11.9215
1733.61	12.6593
1735.12	12.3058
1736.64	12.8493
1738.15	13.2068
1739.67	13.6179
1741.18	13.5168
1742.7	12.8326
1744.21	12.4508
1745.72	12.1197
1747.24	11.3315
1748.75	10.8528
1750.26	10.2042
1751.77	9.10817
1753.29	8.31393
1754.8	7.02561
1756.31	6.33303
1757.82	5.73754
1759.33	5.90642
1760.84	3.97917
1762.36	3.37261
1763.87	2.76934
1765.38	2.07134
1766.89	2.07481
1768.4	1.82593
1769.91	1.52346
1771.41	0.732331
1772.92	0.0962264
1774.43	0.310161
1775.94	0.465728
1777.45	0.874384
1778.95	0.35589
1780.46	0.689655
1781.97	1.17487
1783.48	1.10812
1784.98	1.20088
1786.49	0.97929
1787.99	0.870591
1789.5	0.828926
1791.01	0.993157
1792.51	1.1975
1794.01	1.84716
1795.52	1.67513
1797.02	1.39445
1798.53	1.99817
1800.03	2.85414
1801.53	2.4836
1803.04	2.94957
1804.54	2.87909
1806.04	2.8413
1807.54	3.10635
1809.05	3.05107
1810.55	3.42068
1812.05	4.0461
1813.55	4.01494
1815.05	3.98786
1816.55	4.13357
1818.05	3.96469
1819.55	4.52658
1821.05	4.68724
1822.55	4.86328
1824.05	4.87086
1825.55	4.32804
1827.05	4.30763
1828.55	3.77789
1830.04	3.7571
1831.54	3.85135
1833.04	3.76566
1834.54	3.72781
1836.03	3.09444
1837.53	3.24285
1839.03	3.69195
1840.52	3.66986
1842.02	4.17373
1843.51	4.072
1845.01	4.06434
1846.5	4.33309
1848	5.22773
1849.49	5.41833
1850.99	5.31339
1852.48	5.19748
1853.97	4.86574
1855.47	5.32912
1856.96	5.86309
1858.45	5.30637
1859.94	5.45312
1861.44	5.1433
1862.93	5.81468
1864.42	5.76081
1865.91	5.50185
1867.4	5.10451
1868.89	5.01819
1870.38	5.09746
1871.87	4.98605
1873.36	4.83668
1874.85	4.61377
1876.34	4.25933
1877.83	4.05832
1879.32	3.75219
1880.81	3.65192
1882.3	3.95076
1882.57	3.50717
1884.07	3.02944
1885.56	3.02348
1887.06	3.37224
1888.55	3.98171
1890.04	3.83531
1891.54	3.79386
1893.03	3.75791
1894.52	3.29187
1896.02	2.90622
1897.51	2.55315
1899	2.02458
1900.49	2.37776
1901.98	1.76865
1903.47	1.9396
1904.96	0.923177
1906.45	0.264704
1907.94	0.989172
1909.43	0.880801
1910.92	1.45134
1912.41	1.81853
1913.9	1.84696
1915.39	2.33333
1916.88	2.38294
1918.37	3.60593
1919.85	3.72427
1921.34	4.22054
1922.83	4.31734
1924.32	4.8907
1925.8	5.42892
1927.29	5.60314
1928.78	6.37438
1930.26	6.71415
1931.75	6.25713
1933.23	6.32835
1934.72	5.99359
1936.2	6.51201
1937.69	5.90959
1939.17	5.51345
1940.66	5.43559
1942.14	5.64151
1943.63	5.34746
1945.11	5.02481
1946.59	5.27969
1948.07	5.31384
1949.56	4.81207
1951.04	4.6085
1952.52	4.62866
1954	5.29578
1955.48	4.42201
1956.96	3.91931
1958.45	3.65146
1959.93	3.79818
1961.41	4.04826
1962.89	3.35671
1964.37	2.12465
1965.85	2.02903
1967.32	1.816
1968.8	1.77588
1970.28	1.93585
1971.76	1.67843
1973.24	1.34278
1974.72	1.54978
1976.19	1.42147
1977.67	1.33891
1979.15	1.34359
1980.63	1.94284
1982.1	2.44343
1983.58	1.91061
1985.05	2.01338
1986.53	2.21298
1988	2.9505
1989.48	3.14406
1990.95	3.98896
1992.43	4.53367
1993.9	4.13059
1995.38	4.80507
1996.85	4.97436
1998.32	5.32317
1999.8	5.24037
2001.27	4.92596
2002.74	5.62878
2004.22	5.29837
2005.69	5.11213
2007.16	5.47565
2008.63	5.27918
2010.1	5.95281
2011.57	5.97901
2013.04	6.40914
2014.51	6.9904
2015.98	7.3412
2017.45	7.11826
2018.92	7.37095
2020.39	7.6383
2021.86	7.55661
2023.33	7.7086
2024.8	8.10038
2026.27	7.68189
2027.74	7.83436
2029.2	7.95192
2030.67	8.81199
2032.14	8.79977
2033.61	9.56609
2035.07	10.6485
2036.54	10.3163
2038.01	10.6637
2039.47	11.8744
2040.94	12.3188
2042.4	13.3253
2043.87	13.5257
2045.33	13.5983
2046.8	13.7168
2048.26	13.855
2049.72	13.6176
2051.19	13.4512
2052.65	14.004
2054.12	13.9399
2055.58	14.0423
2057.04	14.4887
2058.5	15.8156
2059.97	16.9254
2061.43	17.4946
2062.89	17.4441
2064.35	18.0342
2065.81	18.2636
2067.27	18.414
2068.73	19.1895
2070.19	19.5414
2071.65	20.052
2073.11	20.1899
2074.57	20.5899
2076.03	21.3159
2077.49	21.1546
2078.95	22.1324
2080.41	22.3893
2081.87	22.5323
2083.32	23.7643
2084.78	24.0697
2086.24	24.9837
2087.7	25.0794
2089.15	26.1286
2090.61	26.2959
2092.07	26.286
2093.52	27.0929
2094.98	27.9816
2096.43	28.6537
2097.89	29.8299
2099.34	30.781
2100.8	32.1609
2102.25	32.9739
2103.71	34.4478
2105.16	35.8002
2106.61	36.8587
2108.07	37.8576
2109.52	38.6745
2110.97	40.0697
2112.43	42.1201
2113.88	43.7202
2115.33	45.6321
2116.78	47.2673
2118.23	48.7912
2119.68	50.4523
2121.13	52.2852
2122.59	54.5822
2124.04	57.3865
2125.49	59.9322
2126.94	61.9229
2128.39	64.309
2129.83	66.4205
2131.28	68.4743
2132.73	70.5067
2134.18	72.6256
2135.63	74.6084
2137.08	76.9663
2138.53	79.231
2139.97	81.3678
2141.42	83.166
2142.87	84.9971
2144.31	87.2707
2145.76	89.8447
2147.21	92.2675
2148.65	94.6274
2150.1	97.0981
2151.54	99.2913
2152.99	100.852
2154.43	102.792
2155.88	104.668
2157.32	106.584
2158.77	107.971
2160.21	109.757
2161.65	110.999
2163.1	111.566
2164.54	112.781
2165.98	114.529
2167.43	115.252
2168.87	115.908
2170.31	117.143
2171.75	117.688
2173.19	117.864
2174.64	119.012
2176.07	119.774
2177.52	119.103
2178.96	118.526
2180.4	118.254
2181.84	117.747
2183.28	116.999
2184.72	116.43
2186.15	115.547
2187.59	114.269
2189.03	112.959
2190.47	111.313
2191.91	110.104
2193.35	108.258
2194.78	106.661
2196.22	104.415
2197.66	101.6
2199.09	99.0854
2200.53	96.5757
2201.97	94.0363
2203.4	91.8016
2204.84	89.2441
2206.27	86.2127
2207.71	83.215
2209.14	80.535
2210.58	77.9048
2212.01	75.5166
2213.45	72.9002
2214.88	71.4003
2216.31	69.545
2217.75	67.7476
2219.18	65.5437
2220.61	63.5772
2222.05	61.5708
2223.48	59.1103
2224.91	58.1309
2226.34	56.3579
2227.78	54.423
2229.21	52.8117
2230.64	50.6879
2232.07	49.5023
2233.5	47.5105
2234.93	46.5275
2236.36	45.5839
2237.79	44.7721
2239.22	43.297
2240.65	42.2268
2242.08	41.3841
2243.5	40.3108
2244.93	39.1637
2246.36	38.256
2247.79	36.7998
2249.22	35.7116
2250.64	34.8811
2252.07	33.6239
2253.5	33.3233
2254.92	32.5919
2256.35	32.0734
2257.78	31.0363
2259.2	30.3027
2260.63	29.675
2262.05	28.8058
2263.48	27.4278
2264.9	25.9369
2266.33	24.9713
2267.75	24.2641
2269.18	23.4723
2270.6	23.0945
2272.02	22.4247
2273.45	21.6307
2274.87	20.9138
2276.29	19.9353
2277.71	19.4044
2279.14	19.2996
2280.56	18.3961
2281.98	17.9371
2283.4	17.2729
2284.82	16.9188
2286.24	16.9187
2287.66	16.3474
2289.08	15.9336
2290.5	14.8951
2291.92	14.171
2293.34	13.5185
2294.76	12.8725
2296.18	13.2997
2297.6	12.417
2299.02	12.2191
2300.44	12.5965
2301.86	12.6017
2303.27	13.3087
2304.69	13.4816
2306.11	13.1843
2307.53	13.0415
2308.94	13.1186
2310.36	13.0622
2311.78	13.3072
2313.19	13.5154
2314.61	13.6662
2316.02	13.1945
2317.44	13.1561
2318.85	13.1947
2320.27	12.6642
2321.68	12.8721
2323.1	12.6727
2324.51	12.488
2325.92	11.8576
2327.34	11.579
2328.75	11.2326
2330.16	11.2049
2331.58	10.7923
2332.99	10.4129
2334.4	10.2769
2335.81	9.7681
2337.23	9.48668
2338.64	9.25951
2340.05	9.29919
2341.46	8.9501
2342.87	8.6964
2344.28	8.70191
2345.69	8.04708
2347.1	6.89961
2348.51	5.93003
2349.92	5.0286
2351.33	3.80152
2352.74	3.61861
2354.15	2.799
2355.55	2.24352
2356.96	1.61733
2358.37	0.621361
2359.78	0.0706094
2361.19	-0.834848
2362.59	-0.344978
2364	-0.123727
2365.41	0.306664
2366.81	0.730576
2368.22	0.465543
2369.62	0.451089
2371.03	0.647947
2372.44	0.335343
2373.84	0.72635
2375.24	0.371605
2376.65	-0.00774141
2378.05	0.494496
2379.46	0.809972
2380.86	1.06676
2382.26	1.11431
2383.67	0.893917
2385.07	1.10096
2386.47	1.4963
2387.88	2.32085
2389.28	2.54565
2390.68	3.16276
2392.08	3.97161
2393.48	4.17205
2394.89	4.34056
2396.29	4.90887
2397.69	5.62773
2399.09	5.77063
2400.49	6.1964
2401.89	6.57527
2403.29	7.00534
2404.69	7.36607
2406.09	7.66999
2407.48	8.37738
2408.88	8.63169
2410.28	9.1162
2411.68	8.7002
2413.08	9.22141
2414.48	9.22121
2415.87	8.48256
2417.27	8.55435
2418.67	8.21913
2420.06	8.55768
2421.46	9.15582
2422.86	9.2134
2424.25	8.74811
2425.65	9.33618
2427.04	8.99084
2428.44	9.03674
2429.83	8.68132
2431.23	8.29368
2432.62	8.79074
2434.02	8.41851
2435.41	8.18185
2436.81	7.7108
2438.2	7.57304
2439.59	7.21455
2440.99	6.79199
2442.38	6.75032
2443.77	7.00306
2445.16	6.49254
2446.56	6.36271
2447.95	6.39711
2449.34	6.60341
2450.73	6.56912
2452.12	6.45204
2453.51	6.09685
2454.9	6.59169
2456.29	6.83938
2457.68	6.49565
2459.07	6.30417
2460.46	5.69647
2461.85	5.65018
2463.24	5.60713
2464.63	5.34058
2466.02	5.57442
2467.4	6.0457
2468.79	5.78524
2470.18	6.18012
2471.57	5.55155
2472.95	5.46037
2474.34	5.02381
2475.73	4.75903
2477.12	4.4121
2478.5	4.45885
2479.89	4.64889
2481.27	4.44869
2482.66	4.65007
2484.04	3.80412
2485.43	3.33944
2486.81	2.95277
2488.2	2.33264
2489.58	3.00595
2490.97	2.70376
2492.35	2.16485
2493.73	2.077
2495.12	1.94862
2496.5	1.14633
2497.88	0.784884
2499.27	0.583912
2500.65	0.426863
2502.03	0.40891
2503.41	-0.307527
2504.79	-1.08191
2506.17	-1.18367
2507.56	-0.983284
2508.94	-0.53292
2510.32	-0.0508855
2511.7	0.297757
2513.08	0.387853
2514.46	0.482895
2515.84	0.69437
2517.22	0.973445
2518.59	0.987038
2519.97	0.831942
2521.35	1.36744
2522.73	1.91242
2524.11	2.77864
2525.49	2.78055
2526.86	2.6224
2528.24	2.6694
2529.62	3.30392
2530.99	4.00641
2532.37	4.1621
2533.75	4.22339
2535.12	4.61159
2536.5	4.66804
2537.88	4.86123
2539.25	4.96486
2540.63	4.69252
2542	5.03236
2543.38	4.87968
2544.75	5.34789
2546.12	5.76582
2547.5	5.62672
2548.87	5.59604
2550.24	5.79478
2551.62	5.75834
2552.99	5.77265
2554.36	6.01801
2555.74	6.24166
2557.11	6.32078
2558.48	6.64994
2559.85	6.21813
2561.22	6.09865
2562.59	6.00483
2563.96	5.77372
2565.34	6.0511
2566.71	5.36292
2568.08	5.31828
2569.45	4.62527
2570.82	4.62112
2572.18	4.24898
2573.55	4.81192
2574.92	5.57987
2576.29	6.25052
2577.66	6.4392
2579.03	6.43654
2580.4	6.62508
2581.77	6.75159
2583.13	6.5225
2584.5	6.52192
2585.87	6.22532
2587.23	5.83415
2588.6	6.31884
2589.97	6.44043
2591.33	6.15721
2592.7	5.7391
2594.06	5.54015
2595.43	5.453
2596.79	5.36586
2598.16	5.12458
2599.52	4.2705
2600.89	3.94404
2602.25	4.17353
2603.62	4.43431
2604.98	4.47113
2606.34	4.37803
2607.71	3.99997
2609.07	3.77715
2610.43	3.57284
2611.79	3.43936
2613.16	4.32283
2614.52	4.53782
2615.88	4.24054
2617.24	4.44791
2618.6	4.25041
2619.96	3.77258
2621.32	3.55658
2622.68	3.55031
2624.04	3.24031
2625.4	2.91733
2626.76	3.03292
2628.12	2.91125
2629.48	2.98518
2630.84	2.87559
2632.2	2.81559
2633.56	3.31617
2634.92	3.2149
2636.28	3.72953
2637.63	4.33811
2638.99	4.57131
2640.35	4.83218
2641.71	6.11281
2643.06	6.16647
2644.42	6.53118
2645.77	6.43562
2647.13	7.35787
2648.49	7.13973
2649.84	6.35422
2651.2	6.34697
2652.55	6.41742
2653.91	6.40477
2655.26	7.08348
2656.62	7.32621
2657.97	7.42336
2659.33	7.54902
2660.68	7.91347
2662.03	7.94165
2663.39	7.71591
2664.74	7.16519
2666.09	6.57452
2667.44	6.60487
2668.8	7.2718
2670.15	6.95043
2671.5	5.98501
2672.85	5.479
2674.2	4.97622
2675.55	4.88
2676.91	4.75256
2678.26	4.54984
2679.61	4.3041
2680.96	4.15888
2682.31	3.20038
2683.66	2.34809
2685	1.95151
2686.35	1.38586
2687.7	1.0637
2689.05	1.18625
2690.4	1.29944
2691.75	0.991232
2693.1	1.13632
2694.44	1.7748
2695.79	2.10761
2697.14	2.5395
2698.49	2.8952
2699.83	3.62272
2701.18	3.96583
2702.52	4.30954
2703.87	4.58017
2705.22	4.90221
2706.56	5.13132
2707.91	6.15167
2709.25	6.88495
2710.6	7.23995
2711.94	8.07509
2713.29	8.56083
2714.63	8.91802
2715.97	8.71926
2717.32	9.33382
2718.66	10.0767
2720.01	10.6182
2721.35	11.1295
2722.69	11.2001
2724.03	11.4907
2725.38	11.4718
2726.72	11.4566
2728.06	11.4608
2729.4	10.9622
2730.74	10.9734
2732.08	10.4043
2733.42	10.3139
2734.76	10.623
2736.1	10.4429
2737.44	9.62235
2738.78	9.59848
2740.12	10.1514
2741.46	10.7619
2742.8	10.5451
2744.14	10.202
2745.48	9.93797
2746.82	9.32688
2748.16	9.09336
2749.49	8.92164
2750.83	8.68925
2752.17	8.33764
2753.51	8.06695
2754.84	8.29035
2756.18	8.40203
2757.52	8.2956
2758.85	7.89416
2760.19	7.96784
2761.53	7.49764
2762.86	7.03223
2764.2	6.96961
2765.53	6.44088
2766.87	6.53979
2768.2	6.21398
2769.54	5.71067
2770.87	5.10852
2772.2	4.91015
2773.54	4.72349
2774.87	4.80112
2776.2	4.37812
2777.54	4.28112
2778.87	3.66992
2780.2	3.23043
2781.53	2.44004
2782.87	1.92781
2784.2	1.38949
2785.53	1.21055
2786.86	0.831101
2788.19	0.399619
2789.52	0.163656
2790.85	0.0409417
2792.18	-0.216229
2793.51	-0.146994
2794.84	-0.0100189
2796.17	-0.257158
2797.5	-0.240595
2798.83	-0.660649
2800.16	-0.640188
2801.49	-0.768435
2802.82	-0.789115
2804.15	-1.11943
2805.47	-1.4268
2806.8	-1.1614
2808.13	-1.34443
2809.46	-1.68666
2810.78	-1.54485
2812.11	-1.63577
2813.44	-1.65727
2814.76	-1.35208
2816.09	-1.30597
2817.42	-1.45439
2818.74	-1.02977
2820.07	-0.0525045
2821.39	1.69525
2822.72	2.69994
2824.04	4.17905
2825.37	5.35457
2826.69	7.41484
2828.02	8.96647
2829.34	11.2587
2830.66	13.5796
2831.99	15.9406
2833.31	17.994
2834.63	20.1378
2835.96	21.7822
2837.28	24.8928
2838.6	27.5382
2839.92	30.2326
2841.24	32.9588
2842.57	36.3072
2843.89	39.8193
2845.21	43.4652
2846.53	47.5253
2847.85	51.2826
2849.17	56.1376
2850.49	61.8089
2851.81	67.3759
2853.13	72.3417
2854.45	77.5621
2855.77	83.6137
2857.09	89.0171
2858.41	94.9366
2859.72	99.5496
2861.04	104.183
2862.36	108.325
2863.68	112.72
2865	117.174
2866.31	121.426
2867.63	124.99
2868.95	128.751
2870.26	132.607
2871.58	136.123
2872.9	139.508
2874.21	143.089
2875.53	146.175
2876.84	148.988
2878.16	151.56
2879.47	154.262
2880.79	156.756
2882.1	159.113
2883.42	162.137
2884.73	165.02
2886.05	168.629
2887.36	171.47
2888.67	173.906
2889.99	177.24
2891.3	179.818
2892.61	182.775
2893.92	185.092
2895.24	188.106
2896.55	191.287
2897.86	194.391
2899.17	198.623
2900.48	202.605
2901.79	206.991
2903.11	212.212
2904.42	217.238
2905.73	223.067
2907.04	229.123
2908.35	236.032
2909.66	242.196
2910.97	249.549
2912.27	256.935
2913.58	264.616
2914.89	272.128
2916.2	279.046
2917.51	286.007
2918.82	292.651
2920.13	298.936
2921.43	304.921
2922.74	309.792
2924.05	314.57
2925.35	318.304
2926.66	322.105
2927.97	325.127
2929.27	327.249
2930.58	328.742
2931.89	329.794
2933.19	331.117
2934.5	331.298
2935.8	331.025
2937.11	329.02
2938.41	327.133
2939.72	324.994
2941.02	321.925
2942.32	318.092
2943.63	313.615
2944.93	309.533
2946.24	304.756
2947.54	299.535
2948.84	294.68
2950.14	289.009
2951.45	283.467
2952.75	276.564
2954.05	270.174
2955.35	263.739
2956.65	256.65
2957.95	249.831
2959.26	243.697
2960.56	237.039
2961.86	230.437
2963.16	224.185
2964.46	218.849
2965.76	212.325
2967.06	206.914
2968.36	201.112
2969.66	195.432
2970.96	190.176
2972.25	184.282
2973.55	178.931
2974.85	173.91
2976.15	169.09
2977.45	163.147
2978.74	157.633
2980.04	152.167
2981.34	147.319
2982.64	142.436
2983.93	136.992
2985.23	131.308
2986.52	125.382
2987.82	120.269
2989.12	114.788
2990.41	109.534
2991.71	103.726
2993	98.2958
2994.3	93.156
2995.59	88.5407
2996.89	84.2833
2998.18	79.2493
2999.48	74.079
3000.77	69.6089
3002.06	65.1746
3003.36	61.3618
3004.65	57.0596
3005.94	53.5077
3007.23	49.4229
3008.53	46.1661
3009.82	43.5341
3011.11	40.4058
3012.4	37.5333
3013.69	34.8732
3014.99	32.0881
3016.28	29.9801
3017.57	27.6421
3018.86	26.0561
3020.15	24.5717
3021.44	22.7465
3022.73	21.962
3024.02	20.9861
3025.31	19.9247
3026.6	19.7043
3027.89	19.5278
3029.18	19.7226
3030.46	19.631
3031.75	20.0568
3033.04	20.4699
3034.33	20.1405
3035.62	20.5179
3036.9	20.2253
3038.19	20.7348
3039.48	21.0069
3040.76	21.2196
3042.05	21.8205
3043.34	22.9985
3044.62	23.6757
3045.91	24.2563
3047.19	24.1916
3048.48	24.2813
3049.77	24.3424
3051.05	24.7772
3052.34	25.3354
3053.62	24.9065
3054.9	24.8903
3056.19	24.6152
3057.47	24.8215
3058.76	24.7912
3060.04	24.3354
3061.32	24.1955
3062.61	23.3912
3063.89	23.1949
3065.17	22.5629
3066.45	21.4931
3067.74	20.1944
3069.02	19.0403
3070.3	18.5863
3071.58	17.495
3072.86	16.7072
3074.14	15.6762
3075.42	14.4202
3076.7	13.4556
3077.99	12.2905
3079.26	11.4626
3080.54	10.2005
3081.82	9.02305
3083.1	8.22968
3084.38	7.03235
3085.66	6.09154
3086.94	5.4597
3088.22	4.43131
3089.5	3.50915
3090.78	2.55074
3092.05	1.82404
3093.33	1.63793
3094.61	1.29512
3095.89	0.96498
3097.16	0.0735218
3098.44	-0.628078
3099.72	0.0102887
3100.99	0.202027
3102.27	0.817578
3103.54	0.943337
3104.82	1.59276
3106.1	1.45492
3107.37	1.6313
3108.65	1.81117
3109.92	2.29617
3111.2	2.44292
3112.47	2.95184
3113.74	3.56173
3115.02	4.04644
3116.29	4.08094
3117.56	4.48625
3118.84	5.32624
3120.11	6.05044
3121.38	6.71372
3122.66	7.33962
3123.93	7.71996
3125.2	8.39893
3126.47	8.51135
3127.74	9.23667
3129.01	9.60043
3130.29	9.56156
3131.56	10.3364
3132.83	10.9776
3134.1	11.6191
3135.37	12.3049
3136.64	12.6433
3137.91	13.0013
3139.18	13.5111
3140.45	13.8397
3141.72	13.9488
3142.99	14.2781
3144.26	14.6964
3145.52	15.0341
3146.79	15.6817
3148.06	16.7209
3149.33	17.5546
