#Acq. time (s)=	45
#Accumulations=	2
#Range (cm-¹)=	200...3150
#Windows=	2
#Auto scanning=	Off
#Autofocus=	Off
#Macrospot=	Off
#AutoExposure=	Off
#Spike filter=	Multiple accum.
#Delay time (s)=	0
#Binning=	1
#Readout mode=	Signal
#DeNoise=	Off
#ICS correction=	On
#Dark correction=	Off
#Inst. Process=	Off
#Detector Gain=	Best Dynamic Range
#Detector ADC=	20 kHz       
#Detector temperature (°C)=	-69.85
#Instrument=	LabRAM HR Evol
#Detector=	Synapse
#Objective=	x100
#Grating=	600 gr/mm
#ND Filter=	100%
#Laser (nm)=	532 
#Hole=	100.021
#Range=	Auto
#Laser Pol.=	No
#Raman. Pol.=	No
#Laser Pol. (°)=	-0.0007625
#Raman Pol. (°)=	89.9995
#Collection=	Microscope
#StageXY=	Marzhauser
#StageZ=	Marzhauser
#X (µm)=	-5921
#Y (µm)=	2869.7
#Z (µm)=	-223.35
#Full time(mm:ss)=	3:19
#Project=	
#Sample=	
#Site=	
#Title=	Thy_20_09_36_2x_45s_532 nm_x100_100%_600 gr_mm
#Remark=	
#Date=	29.06.2022 13:11
#Acquired=	29.06.2022 13:11:08
#Base:Fit=	10.08.2022 09:52:02
#Base:Fit=	10.08.2022 09:52:12
#Base:Sub=	10.08.2022 09:54:21
#Filter:Polynom=	16.08.2022 10:24:04
#AxisType[0]=Intens
#AxisUnit[0]=Cnt
#AxisType[1]=Spectr
#AxisUnit[1]=1/cm
200.523	32.4858
202.339	33.2254
204.154	33.2523
205.967	32.8029
207.781	31.5591
209.596	30.0364
211.409	28.4191
213.222	26.9473
215.034	25.7862
216.848	25.1525
218.659	24.4633
220.47	23.5314
222.281	21.9277
224.091	21.972
225.903	21.1686
227.713	18.9713
229.522	18.5494
231.331	18.1494
233.14	17.1488
234.948	16.3239
236.756	15.672
238.566	14.8928
240.373	13.5161
242.18	12.7411
243.986	11.5759
245.792	10.31
247.598	9.89095
249.403	8.96716
251.208	8.20614
253.013	7.01822
254.818	5.76835
256.624	6.09508
258.427	5.89484
260.231	4.81923
262.034	4.00261
263.836	2.90234
265.638	3.25381
267.44	2.42464
269.242	1.81775
271.043	2.086
272.844	2.6499
274.645	2.30617
276.445	2.17292
278.245	2.11229
280.044	1.89816
281.843	2.52355
283.642	2.55249
285.44	3.15479
287.238	2.88645
289.036	3.16536
290.833	3.7869
292.63	3.74933
294.425	3.99802
296.221	4.27327
298.017	4.75991
299.813	5.92471
301.608	7.17918
303.403	8.89195
305.198	10.1353
306.992	11.3841
308.786	12.2644
310.579	12.496
312.371	13.6041
314.163	14.5217
315.956	15.0123
317.748	15.0166
319.54	16.1485
321.331	16.1998
323.122	16.0429
324.911	16.6415
326.701	16.3395
328.491	15.9153
330.281	15.5341
332.071	15.467
333.857	16.1759
335.646	16.6912
337.434	16.4705
339.222	15.9423
341.008	15.2351
342.795	15.8344
344.582	16.4486
346.369	17.1684
348.153	16.3626
349.939	15.4734
351.724	15.7217
353.51	14.18
355.292	14.5618
357.077	14.3795
358.861	14.5682
360.643	14.4436
362.426	14.7039
364.21	13.6533
365.99	14.0598
367.773	14.7037
369.555	14.0801
371.335	14.6242
373.116	14.2378
374.897	13.4974
376.676	13.2906
378.456	14.1949
380.236	14.1757
382.014	14.1508
383.793	13.6779
385.57	13.4042
387.349	13.9724
389.127	15.748
390.903	15.555
392.681	14.968
394.456	13.7794
396.233	13.404
398.007	13.4944
399.784	12.7355
401.56	11.8664
403.333	10.7427
405.108	10.6096
406.881	8.75123
408.656	8.07904
410.428	7.80554
412.202	7.32553
413.973	7.25069
415.746	7.22121
417.517	7.43589
419.29	7.56018
421.06	8.16264
422.831	8.43211
424.601	7.42889
426.37	6.40531
428.141	6.93482
429.909	7.18115
431.679	7.23988
433.447	6.82841
435.216	6.19041
436.983	6.23833
438.75	6.87736
440.519	7.92561
442.285	8.00308
444.052	9.13481
445.818	8.56499
447.583	8.03535
449.349	7.17371
451.114	8.19939
452.878	8.40747
454.643	9.09819
456.407	9.68086
458.169	10.1988
459.934	10.4827
461.696	9.90849
463.458	10.5814
465.222	12.2713
466.983	13.3961
468.744	13.414
470.507	13.3169
472.267	13.2348
474.027	13.6652
475.787	14.3191
477.548	15.1293
479.307	14.0584
481.065	14.6512
482.823	15.0531
484.583	16.1173
486.341	17.3809
488.098	17.2697
489.855	17.6998
491.612	19.1553
493.37	20.4655
495.126	22.3118
496.881	23.5462
498.636	24.6101
500.391	25.9562
502.148	26.816
503.902	27.81
505.656	27.9254
507.409	27.8093
509.162	28.1904
510.915	28.3541
512.668	28.5535
514.42	29.5848
516.174	30.0659
517.925	31.2384
519.676	30.5467
521.427	31.8354
523.178	32.7782
524.928	33.246
526.678	33.0108
528.427	32.4573
530.176	31.8198
531.925	31.3502
533.673	31.8019
535.422	31.8588
537.169	32.3311
538.917	32.1381
540.664	31.4473
542.411	30.8686
544.157	31.1643
545.903	29.8353
547.649	28.0706
549.395	27.829
551.14	27.398
552.884	25.7026
554.629	24.5055
556.373	22.7749
558.117	21.7273
559.86	20.9927
561.603	20.2752
563.346	19.4122
565.089	18.7562
566.831	16.8701
568.573	16.7697
570.314	15.6604
572.053	14.4819
573.794	12.9409
575.534	11.4412
577.274	10.9984
579.014	10.3871
580.754	10.2521
582.493	9.38743
584.23	7.37459
585.968	7.01264
587.706	6.69231
589.444	6.10994
591.181	4.81497
592.919	3.47406
594.653	2.26343
596.39	2.11863
598.126	2.22535
599.862	1.68998
601.595	2.4435
603.33	2.02528
605.065	3.25419
606.8	2.76717
608.532	3.3592
610.266	3.2642
611.999	3.26469
613.732	3.67318
615.463	4.27432
617.196	5.51927
618.928	6.556
620.66	7.59093
622.389	6.75964
624.12	5.96743
625.851	5.67078
627.58	6.41002
629.31	7.42706
631.04	8.41209
632.767	8.62369
634.497	8.60455
636.223	9.23435
637.952	10.1813
639.68	11.3963
641.406	12.9666
643.134	14.6306
644.861	15.7897
646.586	15.9828
648.312	17.3486
650.037	17.6263
651.762	17.9261
653.486	17.8207
655.211	17.7724
656.936	17.6976
658.659	17.9159
660.383	18.2639
662.105	19.7084
663.829	20.6452
665.55	21.4374
667.273	22.6453
668.994	22.8163
670.716	23.1187
672.436	23.5366
674.158	23.9358
675.877	24.0405
677.598	23.8998
679.317	23.991
681.035	24.3691
682.755	24.7312
684.473	26.5014
686.192	28.0589
687.909	29.0728
689.628	28.815
691.344	29.2813
693.06	29.2081
694.778	29.6021
696.493	30.5424
698.211	32.2626
699.925	32.5802
701.64	33.5368
703.356	34.6379
705.07	34.0166
706.783	33.9357
708.498	33.269
710.211	34.1442
711.924	36.238
713.638	37.3961
715.35	39.0407
717.061	40.7768
718.774	41.6494
720.485	42.8816
722.196	45.0797
723.906	46.5439
725.618	46.8322
727.328	47.3483
729.037	48.142
730.746	49.4441
732.456	50.8239
734.165	51.9964
735.873	51.5814
737.58	52.1004
739.289	52.6264
740.997	52.7891
742.703	54.2114
744.41	55.2868
746.116	55.8639
747.823	57.2731
749.529	58.7809
751.234	60.7686
752.938	61.7865
754.643	62.6747
756.347	64.1412
758.051	66.4544
759.756	67.3922
761.459	67.7689
763.162	68.8986
764.865	69.1887
766.567	71.0891
768.269	72.4299
769.97	73.9981
771.671	74.4651
773.372	74.0571
775.073	74.3111
776.773	75.2956
778.473	75.4452
780.174	75.0075
781.874	75.7612
783.573	74.8705
785.271	73.8784
786.97	73.8214
788.668	73.8182
790.365	73.5674
792.063	74.432
793.76	74.8714
795.456	75.861
797.153	76.9083
798.847	77.3452
800.543	77.9725
802.238	78.2228
803.933	79.0582
805.628	79.7148
807.322	79.8171
809.017	79.5502
810.71	80.2696
812.404	81.1993
814.097	81.7955
815.79	83.1073
817.483	81.8209
819.173	81.1227
820.865	81.4101
822.556	81.9149
824.248	81.0418
825.939	81.4722
827.629	83.2225
829.318	82.9775
831.008	82.3303
832.697	82.3149
834.387	81.9564
836.076	81.8144
837.765	80.8268
839.451	79.4268
841.139	79.1485
842.827	77.6167
844.514	75.7128
846.2	76.0743
847.886	75.1126
849.573	74.3165
851.259	72.9986
852.943	70.6265
854.629	68.4868
856.314	67.9834
857.997	66.326
859.682	64.5766
861.366	62.9487
863.05	61.4299
864.732	60.0775
866.415	60.1882
868.098	58.4504
869.779	58.0735
871.461	58.1533
873.141	56.9195
874.823	56.1409
876.505	55.5066
878.184	55.9003
879.865	56.3872
881.545	56.7016
883.223	56.242
884.903	56.1327
886.581	55.6158
888.26	55.793
889.937	54.3523
891.616	54.3007
893.294	53.8045
894.97	53.9247
896.648	53.8193
898.323	53.7082
900	53.6029
901.675	52.7424
903.351	53.03
905.026	52.4652
906.701	51.9651
908.375	50.1326
910.05	49.4488
911.723	48.525
913.398	45.7861
915.07	45.0107
916.742	44.5827
918.415	43.4045
920.087	43.5379
921.76	42.5476
923.43	41.9409
925.103	42.4446
926.773	42.098
928.443	43.1179
930.114	43.5551
931.783	42.1438
933.454	42.3357
935.123	41.0446
936.791	40.5095
938.461	40.456
940.128	40.4449
941.796	39.4057
943.464	39.1956
945.131	38.5668
946.797	37.8896
948.465	37.6847
950.131	38.0434
951.797	38.309
953.462	39.07
955.128	39.6929
956.793	37.9911
958.457	38.0794
960.121	38.1964
961.786	38.0696
963.45	37.8119
965.113	38.3007
966.775	39.2948
968.44	40.7403
970.102	41.4031
971.763	43.5888
973.425	44.54
975.086	45.8545
976.748	47.1216
978.409	48.2017
980.069	48.756
981.729	49.3906
983.388	50.0533
985.048	50.6117
986.708	50.4837
988.367	50.305
990.025	49.9558
991.683	49.1485
993.341	49.3844
994.998	49.9292
996.655	49.5509
998.312	50.48
999.969	51.4086
1001.62	51.1078
1003.28	51.2893
1004.94	51.6627
1006.59	51.1032
1008.25	51.2798
1009.9	51.4786
1011.56	50.9738
1013.21	49.4425
1014.86	48.9743
1016.52	48.0507
1018.17	46.5723
1019.82	46.2556
1021.48	45.3098
1023.13	43.2483
1024.78	42.6295
1026.43	41.564
1028.08	39.5417
1029.73	39.3486
1031.38	39.3777
1033.03	38.1032
1034.68	37.1521
1036.33	34.5816
1037.98	31.6716
1039.63	29.1528
1041.28	29.0772
1042.93	28.9519
1044.57	28.5583
1046.22	28.6795
1047.87	29.1871
1049.52	28.7109
1051.16	28.3409
1052.81	27.3248
1054.45	26.0242
1056.1	24.388
1057.75	24.2865
1059.39	25.0379
1061.04	23.9697
1062.68	24.2206
1064.32	24.2248
1065.97	23.9684
1067.61	24.2099
1069.25	23.8066
1070.9	23.6477
1072.54	23.4188
1074.18	24.0778
1075.82	24.3854
1077.47	25.4165
1079.11	25.3505
1080.75	25.3126
1082.39	25.9006
1084.03	25.3861
1085.67	25.5769
1087.31	27.0084
1088.95	27.1307
1090.59	27.7266
1092.22	27.3319
1093.86	27.6784
1095.5	27.3398
1097.14	27.5362
1098.78	27.9326
1100.41	28.7375
1102.05	29.5512
1103.69	29.1176
1105.32	28.2274
1106.96	29.181
1108.59	28.3765
1110.23	28.0503
1111.86	27.7706
1113.5	26.461
1115.13	24.4265
1116.77	23.569
1118.4	21.643
1120.03	20.158
1121.67	19.5725
1123.3	19.0916
1124.93	18.6113
1126.56	17.6791
1128.19	16.0081
1129.83	15.2701
1131.46	14.1119
1133.09	13.7284
1134.72	12.0015
1136.35	11.2384
1137.98	11.8669
1139.61	12.2831
1141.24	11.5566
1142.86	10.0271
1144.49	9.37338
1146.12	8.98557
1147.75	8.31467
1149.38	7.88779
1151	6.86193
1152.63	6.21115
1154.26	4.82941
1155.88	3.77095
1157.51	1.87145
1159.14	1.76061
1160.76	0.524547
1162.39	-0.31594
1164.01	0.303503
1165.63	-0.13636
1167.26	0.903346
1168.88	1.23961
1170.51	1.25866
1172.13	2.21214
1173.75	2.81104
1175.38	4.89729
1177	6.11852
1178.62	8.77807
1180.24	11.429
1181.86	11.783
1183.48	12.7049
1185.1	13.3154
1186.72	13.651
1188.34	15.2406
1189.96	16.2898
1191.58	17.5157
1193.2	18.8383
1194.82	20.173
1196.44	22.7761
1198.06	24.733
1199.68	26.5889
1201.29	29.2516
1202.91	32.3027
1204.53	34.6954
1206.14	37.4051
1207.76	39.4252
1209.38	41.201
1210.99	43.0211
1212.61	45.6501
1214.22	47.3031
1215.84	48.7315
1217.45	52.0789
1219.07	54.1623
1220.68	56.233
1222.29	57.4956
1223.91	60.7393
1225.52	63.5039
1227.13	66.3802
1228.74	68.4055
1230.36	70.1706
1231.97	71.1885
1233.58	71.239
1235.19	72.4212
1236.8	73.9511
1238.41	75.5681
1240.02	77.558
1241.63	78.5806
1243.24	79.801
1244.85	82.4524
1246.46	83.8527
1248.07	85.8258
1249.67	87.2611
1251.28	89.4428
1252.89	90.961
1254.5	92.167
1256.1	94.0569
1257.71	94.8806
1259.32	95.9982
1260.92	95.8195
1262.53	95.0764
1264.13	95.7832
1265.74	96.4515
1267.34	97.5751
1268.95	99.1151
1270.55	99.8982
1272.15	100.723
1273.76	101.822
1275.36	103.232
1276.97	104.47
1278.57	103.898
1280.17	105.365
1281.77	106.789
1283.37	107.816
1284.97	109.154
1286.58	110.018
1288.18	110.142
1289.78	110.299
1291.38	110.858
1292.98	112.276
1294.58	113.555
1296.18	115.866
1297.78	117.106
1299.37	117.056
1300.97	117.443
1302.57	117.705
1304.17	119.481
1305.77	119.442
1307.36	119.836
1308.96	119.645
1310.55	119.996
1312.15	120.221
1313.75	120.14
1315.34	121.428
1316.94	122.031
1318.53	122.826
1320.13	122.717
1321.72	123.394
1323.32	123.753
1324.91	124.681
1326.5	124.896
1328.1	124.813
1329.69	124.932
1331.28	124.663
1332.87	122.738
1334.47	123.057
1336.06	121.973
1337.65	121.221
1339.24	120.651
1340.83	119.942
1342.42	119.537
1344.01	119.714
1345.6	118.943
1347.19	118.326
1348.78	116.774
1350.37	115.316
1351.96	114.14
1353.54	112.262
1355.13	111.085
1356.72	108.872
1358.31	106.29
1359.89	105.699
1361.48	103.75
1363.07	102.099
1364.65	100.043
1366.24	97.5553
1367.82	95.5833
1369.41	93.3082
1370.99	91.2213
1372.58	89.547
1374.16	86.7071
1375.75	83.8844
1377.33	80.2967
1378.91	77.7652
1380.5	76.036
1382.08	74.2013
1383.66	72.9973
1385.25	71.4177
1386.83	70.0623
1388.41	68.9557
1389.99	68.068
1391.57	66.2234
1393.15	64.5887
1394.73	63.9831
1396.31	62.2041
1397.89	61.0994
1399.47	60.5109
1401.05	60.037
1402.63	59.0122
1404.21	59.3032
1405.78	59.5833
1407.36	59.2746
1408.94	59.8239
1410.52	60.2335
1412.1	61.3167
1413.67	64.0207
1415.25	66.4586
1416.82	69.524
1418.4	72.3903
1419.98	76.231
1421.55	79.3209
1423.13	82.8733
1424.7	86.5721
1426.28	90.7744
1427.85	93.9335
1429.42	97.7446
1431	101.684
1432.57	105.313
1434.14	109.687
1435.71	111.899
1437.29	114.165
1438.86	118.227
1440.43	120.546
1442	122.689
1443.57	124.928
1445.14	126.574
1446.71	127.427
1448.28	128.047
1449.85	128.628
1451.42	128.695
1452.99	127.471
1454.56	127.104
1456.13	125.723
1457.7	123.937
1459.26	121.657
1460.83	119.659
1462.4	116.773
1463.97	113.981
1465.54	109.972
1467.1	105.752
1468.67	101.039
1470.23	96.092
1471.8	90.8765
1473.36	86.5659
1474.93	82.1549
1476.49	77.6117
1478.06	72.8374
1479.62	67.7748
1481.19	63.6506
1482.75	60.1155
1484.31	56.8497
1485.88	52.2889
1487.44	49.1703
1489	47.1377
1490.56	45.0288
1492.13	43.2493
1493.69	42.0177
1495.25	40.3148
1496.81	38.2313
1498.37	37.6488
1499.93	36.3467
1501.49	35.0061
1503.05	33.9727
1504.61	32.8589
1506.17	31.9376
1507.73	31.4158
1509.28	31.8781
1510.84	31.4318
1512.4	31.0447
1513.96	30.4537
1515.52	31.9217
1517.07	32.6089
1518.63	32.8461
1520.19	33.6727
1521.74	34.9653
1523.3	35.3617
1524.85	35.7728
1526.41	37.3559
1527.96	37.3678
1529.52	38.4957
1531.07	38.9576
1532.63	40.0257
1534.18	40.7659
1535.73	42.1704
1537.29	43.5019
1538.84	44.8448
1540.39	46.6845
1541.94	48.876
1543.5	50.5014
1545.05	53.1019
1546.6	55.8803
1548.15	59.3851
1549.7	62.2413
1551.25	66.3021
1552.8	69.2733
1554.35	72.9268
1555.9	77.2747
1557.45	80.864
1559	84.1
1560.55	87.4528
1562.1	90.2813
1563.65	91.2889
1565.19	94.9172
1566.74	97.802
1568.29	100.442
1569.83	102.93
1571.38	105.851
1572.93	108.226
1574.47	110.94
1576.02	113.563
1577.56	115.176
1579.11	116.306
1580.66	118.564
1582.2	119.915
1583.74	121.877
1585.29	123.572
1586.83	124.766
1588.38	124.772
1589.92	125.314
1591.46	125.02
1593.01	124.496
1594.55	123.73
1596.09	123.647
1597.63	123.522
1599.17	122.377
1600.71	120.831
1602.25	119.446
1603.79	118.013
1605.34	115.921
1606.88	114.383
1608.41	111.985
1609.95	111.149
1611.49	110.528
1613.03	109.774
1614.57	108.577
1616.11	108.094
1617.65	108.394
1619.18	107.981
1620.72	108.253
1622.26	108.677
1623.79	109.004
1625.33	110.006
1626.87	109.916
1628.4	111.227
1629.94	111.496
1631.48	111.995
1633.01	113.041
1634.55	113.597
1636.08	115.558
1637.61	117.135
1639.15	119.385
1640.68	122.329
1642.21	125.973
1643.75	127.929
1645.28	130.15
1646.81	131.984
1648.34	134.333
1649.88	135.045
1651.41	136.706
1652.94	138.027
1654.47	139.013
1656	139.933
1657.53	141.688
1659.06	142.04
1660.59	142.366
1662.12	141.933
1663.65	140.202
1665.18	138.918
1666.71	137.929
1668.24	136.439
1669.76	135.288
1671.29	132.974
1672.82	130.107
1674.35	126.867
1675.87	122.88
1677.4	118.735
1678.93	115.443
1680.45	110.68
1681.98	106.659
1683.5	102.761
1685.03	98.7311
1686.55	95.3228
1688.08	90.2945
1689.6	85.0574
1691.13	80.1257
1692.65	75.3228
1694.17	71.1597
1695.7	66.7555
1697.22	62.6089
1698.74	58.0913
1700.27	53.7033
1701.79	50.6469
1703.31	47.4232
1704.83	44.0969
1706.35	41.076
1707.87	38.0557
1709.39	37.0237
1710.91	34.972
1712.43	33.3614
1713.95	30.8399
1715.47	29.1667
1716.99	27.8013
1718.51	25.1283
1720.03	23.8268
1721.55	23.2216
1723.07	22.6383
1724.58	21.9132
1726.1	21.24
1727.62	21.024
1729.13	20.6979
1730.65	19.2628
1732.17	18.8572
1733.68	19.0518
1735.2	18.2782
1736.72	17.6034
1738.23	17.2419
1739.74	16.1157
1741.26	16.3646
1742.77	15.9119
1744.29	15.6314
1745.8	14.5915
1747.32	13.0787
1748.83	12.4122
1750.34	11.7853
1751.85	11.2573
1753.37	10.3287
1754.88	10.3293
1756.39	9.53193
1757.9	9.4824
1759.41	8.90805
1760.92	7.70042
1762.44	6.75912
1763.95	5.51263
1765.46	4.75602
1766.96	4.09518
1768.47	3.83668
1769.98	3.58019
1771.49	2.96126
1773	2.41049
1774.51	1.25465
1776.02	1.22592
1777.53	1.60767
1779.03	0.950626
1780.54	0.646584
1782.05	0.987324
1783.55	1.15145
1785.06	2.01208
1786.57	1.59881
1788.07	1.24527
1789.58	1.35837
1791.08	2.04729
1792.59	2.94972
1794.09	2.35326
1795.6	3.16265
1797.1	3.40784
1798.61	3.4438
1800.11	3.34174
1801.61	3.48119
1803.12	3.41463
1804.62	4.00385
1806.12	4.00096
1807.62	4.61872
1809.12	4.90235
1810.63	4.31959
1812.13	4.3833
1813.63	4.16152
1815.13	3.88303
1816.63	4.1758
1818.13	4.08421
1819.63	4.74188
1821.13	4.22611
1822.63	4.07635
1824.13	4.25719
1825.63	4.59753
1827.13	4.93089
1828.62	4.53317
1830.12	4.8956
1831.62	4.89743
1833.12	4.76223
1834.61	4.76409
1836.11	4.50195
1837.61	4.68469
1839.1	4.32874
1840.6	4.22413
1842.09	3.78753
1843.59	3.58151
1845.09	3.21341
1846.58	3.10419
1848.08	2.74161
1849.57	3.04987
1851.06	3.1034
1852.56	2.9626
1854.05	2.96345
1855.54	2.96566
1857.04	2.91286
1858.53	2.176
1860.02	1.45341
1861.51	0.765171
1863.01	1.4219
1864.5	1.91262
1865.99	1.73445
1867.48	1.0935
1868.97	0.774439
1870.46	0.916606
1871.95	1.52286
1873.44	1.44889
1874.93	1.06453
1876.42	1.24997
1877.91	0.881379
1879.4	0.903071
1880.89	0.430683
1882.37	0.0509034
1882.46	-0.0657718
1883.95	-0.514806
1885.45	0.0900406
1886.94	-0.139619
1888.43	0.548546
1889.93	1.1921
1891.42	0.564154
1892.91	0.0215029
1894.41	-0.587003
1895.9	-0.623718
1897.39	-0.742086
1898.88	-0.407822
1900.37	0.0514481
1901.86	0.127356
1903.36	0.37172
1904.85	0.340568
1906.34	0.266588
1907.83	1.06246
1909.32	0.802441
1910.81	1.709
1912.29	1.77939
1913.78	1.85128
1915.27	1.90324
1916.76	2.66149
1918.25	2.75109
1919.74	3.18843
1921.23	3.81494
1922.71	4.13281
1924.2	3.52213
1925.69	4.03833
1927.17	3.93066
1928.66	4.12076
1930.15	4.13948
1931.63	3.58617
1933.12	3.57837
1934.6	3.74293
1936.09	4.64488
1937.57	4.46818
1939.06	3.99763
1940.54	3.91039
1942.02	3.8095
1943.51	3.57182
1944.99	3.57634
1946.47	2.49265
1947.96	2.39206
1949.44	2.7668
1950.92	2.7893
1952.4	2.65768
1953.88	2.36363
1955.37	2.77157
1956.85	2.94664
1958.33	2.88232
1959.81	3.36218
1961.29	3.308
1962.77	3.45076
1964.25	2.93568
1965.73	2.42663
1967.21	2.65738
1968.69	2.79782
1970.16	2.84714
1971.64	3.05434
1973.12	3.33961
1974.6	3.30287
1976.08	3.36132
1977.55	4.13631
1979.03	5.04496
1980.51	5.57314
1981.98	6.1625
1983.46	6.13421
1984.94	6.09847
1986.41	5.59535
1987.89	5.54802
1989.36	5.81831
1990.84	6.17515
1992.31	6.01524
1993.79	5.93482
1995.26	6.06057
1996.73	4.81492
1998.21	4.64821
1999.68	5.04189
2001.15	4.49027
2002.63	4.6793
2004.1	4.20065
2005.57	4.10441
2007.04	4.25739
2008.51	4.66712
2009.99	4.93169
2011.46	5.12748
2012.93	4.71458
2014.4	4.45185
2015.87	4.69969
2017.34	4.96651
2018.81	5.8236
2020.28	5.72553
2021.75	6.82572
2023.21	6.9844
2024.68	7.73758
2026.15	8.1896
2027.62	9.01817
2029.09	9.28276
2030.56	9.07856
2032.02	9.65448
2033.49	10.3097
2034.96	10.7189
2036.42	10.5895
2037.89	10.8893
2039.36	11.3218
2040.82	11.5566
2042.29	11.4417
2043.75	11.8548
2045.22	12.1748
2046.68	12.5001
2048.14	13.299
2049.61	14.0829
2051.07	14.2573
2052.54	13.6546
2054	13.7189
2055.46	13.6491
2056.93	13.3172
2058.39	12.8721
2059.85	13.4388
2061.31	13.4076
2062.77	13.3474
2064.23	13.0433
2065.7	12.6801
2067.16	12.8649
2068.62	12.6301
2070.08	12.0073
2071.54	12.2542
2073	12.2713
2074.46	12.0927
2075.92	12.074
2077.38	11.898
2078.83	12.6011
2080.29	12.484
2081.75	12.4456
2083.21	12.3616
2084.67	13.0708
2086.12	13.127
2087.58	13.2873
2089.04	13.4136
2090.49	14.0671
2091.95	14.1415
2093.41	14.1114
2094.86	15.2891
2096.32	14.8553
2097.77	15.2275
2099.23	14.8401
2100.68	14.74
2102.14	15.3847
2103.59	15.8918
2105.05	17.1271
2106.5	17.9508
2107.95	18.5131
2109.41	19.1328
2110.86	20.326
2112.31	21.515
2113.76	22.6065
2115.21	23.6714
2116.67	25.2615
2118.12	26.5208
2119.57	28.6817
2121.02	30.5628
2122.47	32.0012
2123.92	34.0997
2125.37	36.1406
2126.82	37.5464
2128.27	39.0042
2129.72	40.5745
2131.17	42.6774
2132.62	44.1715
2134.07	45.6154
2135.51	47.4985
2136.96	48.6581
2138.41	50.5742
2139.86	52.4788
2141.31	53.8114
2142.75	56.0619
2144.2	57.7687
2145.65	60.1622
2147.09	61.9406
2148.54	63.8665
2149.98	65.2775
2151.43	67.413
2152.87	68.4211
2154.32	70.5752
2155.76	72.3392
2157.21	74.2016
2158.65	75.3679
2160.1	76.385
2161.54	77.8719
2162.98	78.9958
2164.43	79.0819
2165.87	80.0199
2167.31	81.0633
2168.75	81.8665
2170.2	82.6878
2171.64	83.7868
2173.08	84.1188
2174.52	85.147
2175.96	84.8945
2177.4	85.2422
2178.84	84.7391
2180.28	84.6512
2181.72	85.1176
2183.16	84.6436
2184.6	84.3952
2186.04	83.5604
2187.48	83.0782
2188.92	81.932
2190.36	80.9107
2191.79	80.1344
2193.23	78.3443
2194.67	76.7368
2196.11	75.6602
2197.54	73.1911
2198.98	71.2339
2200.42	70.0318
2201.85	68.1313
2203.29	66.0805
2204.72	63.7547
2206.16	61.8142
2207.59	59.4365
2209.03	57.4853
2210.46	55.7308
2211.9	54.1931
2213.33	52.4831
2214.77	49.8492
2216.2	47.19
2217.63	45.2728
2219.07	43.2658
2220.5	41.3578
2221.93	39.3079
2223.36	38.1492
2224.8	36.061
2226.23	35.1756
2227.66	33.3992
2229.09	32.1068
2230.52	30.9271
2231.95	30.2118
2233.39	29.4388
2234.81	28.0118
2236.25	27.1202
2237.67	27.0095
2239.1	26.174
2240.53	25.1339
2241.96	23.4545
2243.39	23.1129
2244.82	22.1936
2246.25	22.8644
2247.68	22.3007
2249.1	21.649
2250.53	20.732
2251.96	20.6248
2253.38	19.8684
2254.81	19.0716
2256.24	18.7368
2257.66	17.8888
2259.09	17.8377
2260.51	17.3989
2261.94	17.4651
2263.36	17.4376
2264.79	18.094
2266.21	18.1126
2267.64	18.2958
2269.06	17.894
2270.49	17.7741
2271.91	17.9204
2273.33	17.6377
2274.76	16.8465
2276.18	16.8638
2277.6	16.6095
2279.02	16.0247
2280.44	15.983
2281.87	15.2154
2283.29	14.8265
2284.71	14.3392
2286.13	13.5508
2287.55	13.8249
2288.97	14.0516
2290.39	13.9536
2291.81	13.0568
2293.23	12.7843
2294.65	12.2808
2296.07	12.282
2297.49	12.397
2298.91	12.2286
2300.33	12.3673
2301.74	12.7078
2303.16	12.9333
2304.58	11.9958
2306	11.4094
2307.41	11.245
2308.83	11.137
2310.25	10.3032
2311.66	10.4569
2313.08	10.3494
2314.5	10.125
2315.91	9.62344
2317.33	9.41798
2318.74	8.68915
2320.16	8.0466
2321.57	8.02528
2322.98	8.78337
2324.4	9.09803
2325.81	9.84892
2327.23	9.73542
2328.64	9.49548
2330.05	10.1278
2331.46	10.0696
2332.88	10.5251
2334.29	10.8408
2335.7	11.3136
2337.11	10.4487
2338.52	10.0105
2339.94	9.61336
2341.35	9.43713
2342.76	9.09156
2344.17	8.23513
2345.58	7.40851
2346.99	6.86942
2348.4	6.68297
2349.81	5.85721
2351.22	5.54086
2352.62	5.15332
2354.03	5.10082
2355.44	5.19342
2356.85	4.35854
2358.26	3.7932
2359.67	2.98544
2361.07	2.61934
2362.48	1.67105
2363.89	1.85715
2365.29	1.69391
2366.7	2.02323
2368.11	1.75108
2369.51	2.08586
2370.92	2.37817
2372.32	1.99048
2373.73	1.66693
2375.13	0.995492
2376.54	1.14472
2377.94	1.25125
2379.35	1.13394
2380.75	0.962278
2382.15	1.10553
2383.56	0.887046
2384.96	0.923345
2386.36	1.15995
2387.76	2.28118
2389.17	2.75075
2390.57	3.06165
2391.97	3.39921
2393.37	3.53005
2394.77	3.26113
2396.17	2.90075
2397.58	2.80178
2398.98	2.85083
2400.38	3.22212
2401.78	2.99914
2403.18	3.15867
2404.58	2.86696
2405.97	2.97426
2407.37	2.22414
2408.77	1.73064
2410.17	2.37415
2411.57	2.0762
2412.97	2.41391
2414.37	2.32691
2415.76	2.40791
2417.16	2.87034
2418.56	3.56547
2419.95	3.2017
2421.35	3.09442
2422.75	3.34001
2424.14	2.90134
2425.54	2.988
2426.93	2.96994
2428.33	3.4339
2429.72	3.08657
2431.12	3.15879
2432.51	2.84049
2433.91	3.22117
2435.3	3.32693
2436.7	3.58487
2438.09	3.6378
2439.48	4.25837
2440.88	4.12577
2442.27	4.31585
2443.66	4.76778
2445.05	4.90316
2446.44	4.99565
2447.84	5.18034
2449.23	5.11197
2450.62	5.05869
2452.01	5.75398
2453.4	5.3093
2454.79	5.2637
2456.18	5.34229
2457.57	5.95409
2458.96	5.20888
2460.35	4.60303
2461.74	4.09943
2463.13	3.97864
2464.52	3.56792
2465.91	4.01121
2467.29	3.73379
2468.68	3.62165
2470.07	3.44812
2471.46	3.35089
2472.85	3.4224
2474.23	3.85262
2475.62	3.80036
2477.01	3.31008
2478.39	3.47561
2479.78	3.97042
2481.16	3.74996
2482.55	3.87599
2483.93	3.25635
2485.32	3.73589
2486.7	4.02469
2488.09	3.33654
2489.47	2.82054
2490.86	2.23545
2492.24	2.21491
2493.62	1.5007
2495.01	1.82381
2496.39	1.45936
2497.77	0.758207
2499.15	0.131351
2500.54	0.310081
2501.92	-0.00806644
2503.3	-0.0209877
2504.68	0.264298
2506.06	0.577657
2507.45	0.659496
2508.83	1.22595
2510.21	1.55875
2511.59	1.77043
2512.97	2.31094
2514.35	2.11675
2515.73	2.19571
2517.11	2.56067
2518.48	2.54277
2519.86	2.78555
2521.24	3.61671
2522.62	3.301
2524	3.56216
2525.38	4.18223
2526.75	3.84425
2528.13	3.67073
2529.51	4.10978
2530.89	3.96404
2532.26	3.71934
2533.64	3.58599
2535.02	4.3619
2536.39	4.30071
2537.77	4.93815
2539.14	4.94645
2540.52	5.28736
2541.89	4.8948
2543.27	4.68032
2544.64	4.39786
2546.01	4.12803
2547.39	4.09277
2548.76	4.23693
2550.14	3.86564
2551.51	4.18431
2552.88	4.7647
2554.25	4.91256
2555.63	4.3688
2557	3.9709
2558.37	4.05533
2559.74	3.96408
2561.11	3.9713
2562.49	3.86061
2563.86	4.33248
2565.23	4.36903
2566.6	4.72137
2567.97	5.25853
2569.34	5.28884
2570.71	4.94148
2572.08	5.19715
2573.45	5.39654
2574.82	5.30602
2576.18	5.51522
2577.55	6.10169
2578.92	6.31184
2580.29	6.09879
2581.66	6.88046
2583.02	6.14158
2584.39	6.15386
2585.76	6.34279
2587.13	6.45955
2588.49	6.78376
2589.86	6.82657
2591.22	6.79104
2592.59	6.29372
2593.96	6.01897
2595.32	5.32701
2596.69	5.27424
2598.05	4.47714
2599.42	3.65149
2600.78	3.38627
2602.14	3.88101
2603.51	3.64307
2604.87	2.86039
2606.23	2.68326
2607.6	2.16885
2608.96	1.28331
2610.32	0.383903
2611.69	0.82734
2613.05	1.0904
2614.41	0.617507
2615.77	0.189469
2617.13	0.517347
2618.49	0.286945
2619.86	0.375853
2621.22	-0.344783
2622.58	-0.466111
2623.94	-1.07104
2625.3	-1.00079
2626.66	-1.64285
2628.02	-1.31638
2629.37	-1.37067
2630.73	-0.99861
2632.09	-0.587876
2633.45	0.214646
2634.81	0.225458
2636.17	0.133162
2637.53	-0.034624
2638.88	0.0290856
2640.24	0.580232
2641.6	1.30466
2642.96	1.4344
2644.31	2.03281
2645.67	2.76512
2647.02	3.25456
2648.38	3.3114
2649.74	3.96578
2651.09	4.09248
2652.45	4.75194
2653.8	5.12398
2655.16	5.88296
2656.51	6.03861
2657.86	6.13179
2659.22	6.79797
2660.57	6.33874
2661.93	6.76473
2663.28	6.67656
2664.63	6.91315
2665.98	6.88726
2667.34	7.00914
2668.69	7.1294
2670.04	7.85179
2671.39	7.211
2672.75	7.66846
2674.09	7.93262
2675.45	7.45271
2676.8	7.52542
2678.15	8.15268
2679.5	8.08777
2680.85	7.92765
2682.2	7.65294
2683.55	7.36875
2684.9	8.01356
2686.25	7.78102
2687.6	7.60518
2688.94	7.34602
2690.29	7.82387
2691.64	7.72777
2692.99	8.86131
2694.34	9.03394
2695.68	9.63659
2697.03	9.61679
2698.38	9.74643
2699.73	10.3743
2701.07	10.9519
2702.42	10.7849
2703.76	11.5916
2705.11	12.1694
2706.45	12.8342
2707.8	13.5048
2709.15	13.9044
2710.49	13.6875
2711.83	14.4588
2713.18	14.9396
2714.52	14.1187
2715.87	13.9157
2717.21	14.4658
2718.55	15.3657
2719.9	16.278
2721.24	16.8054
2722.58	17.4026
2723.93	16.8624
2725.27	17.5491
2726.61	18.0217
2727.95	17.5707
2729.29	17.6294
2730.63	17.2204
2731.98	17.6352
2733.32	17.5383
2734.66	17.5785
2736	17.4594
2737.34	17.4511
2738.68	17.4829
2740.02	17.5078
2741.36	17.6831
2742.7	17.9885
2744.03	17.6798
2745.37	17.5176
2746.71	16.8542
2748.05	17.2645
2749.39	16.674
2750.72	15.928
2752.06	15.8018
2753.4	15.2218
2754.74	13.8077
2756.07	13.5465
2757.41	12.9727
2758.75	12.8804
2760.08	12.1537
2761.42	10.7381
2762.76	9.86453
2764.09	9.29166
2765.42	9.0264
2766.76	8.9465
2768.09	8.27384
2769.43	7.19484
2770.76	6.39229
2772.1	5.6096
2773.43	4.98764
2774.76	4.38244
2776.1	3.73856
2777.43	3.20738
2778.76	3.08144
2780.1	2.41604
2781.43	2.68543
2782.76	2.8477
2784.09	3.09909
2785.42	3.29041
2786.75	3.28385
2788.09	2.57326
2789.42	1.8544
2790.75	1.89146
2792.08	2.46116
2793.41	2.48536
2794.74	2.14732
2796.07	2.44036
2797.4	2.43278
2798.73	2.42232
2800.06	2.67902
2801.39	2.54524
2802.71	2.66882
2804.04	2.96156
2805.37	3.36471
2806.7	3.00706
2808.03	3.62186
2809.35	3.65627
2810.68	3.44499
2812.01	3.50222
2813.33	3.34678
2814.66	3.34635
2815.99	3.16002
2817.31	3.82728
2818.64	5.28633
2819.96	6.69088
2821.29	7.40725
2822.61	9.98285
2823.94	12.2699
2825.26	15.0982
2826.59	17.9227
2827.91	21.0593
2829.23	24.437
2830.56	28.0573
2831.88	31.6722
2833.21	35.1131
2834.53	38.78
2835.85	42.0354
2837.17	46.1781
2838.5	50.2976
2839.82	55.5522
2841.14	60.7528
2842.46	66.5249
2843.78	72.2181
2845.1	78.5033
2846.42	85.0348
2847.74	92.3521
2849.06	99.7211
2850.38	107.956
2851.71	116.479
2853.03	125.499
2854.34	133.565
2855.66	141.497
2856.98	150.194
2858.3	158.356
2859.62	166.478
2860.94	173.111
2862.26	180.453
2863.57	186.964
2864.89	194.088
2866.21	200.905
2867.53	206.594
2868.84	212.827
2870.16	218.411
2871.48	223.348
2872.79	228.085
2874.11	232.786
2875.42	237.024
2876.74	241.113
2878.05	244.841
2879.37	248.875
2880.68	252.602
2882	256.694
2883.31	261.174
2884.63	264.648
2885.94	267.694
2887.26	271.716
2888.57	275.776
2889.88	279.156
2891.19	282.659
2892.51	285.85
2893.82	288.883
2895.13	292.186
2896.44	296.011
2897.76	299.803
2899.07	304.452
2900.38	309.362
2901.69	314.998
2903	321.72
2904.31	329.394
2905.62	337.72
2906.93	345.511
2908.24	355.058
2909.55	364.611
2910.86	374.946
2912.17	385.251
2913.48	396.252
2914.79	407.38
2916.1	416.425
2917.41	426.184
2918.71	434.015
2920.02	441.33
2921.33	448.595
2922.64	455.644
2923.94	461.556
2925.25	466.141
2926.56	469.561
2927.86	473.454
2929.17	475.936
2930.48	477.218
2931.78	477.714
2933.09	477.543
2934.39	477.309
2935.7	475.737
2937	472.822
2938.31	469.847
2939.61	465.778
2940.92	461.319
2942.22	456.445
2943.53	449.947
2944.83	442.74
2946.13	435.555
2947.43	427.628
2948.74	418.819
2950.04	409.489
2951.34	400.898
2952.64	391.889
2953.95	381.677
2955.25	372.689
2956.55	363.706
2957.85	354.258
2959.15	345.551
2960.45	336.433
2961.75	327.891
2963.05	319.031
2964.35	310.453
2965.65	302.195
2966.95	294.736
2968.25	286.68
2969.55	279.76
2970.85	272.014
2972.15	265.344
2973.45	259.118
2974.75	252.298
2976.05	245.125
2977.34	237.88
2978.64	230.668
2979.94	222.196
2981.24	213.19
2982.53	205.992
2983.83	198.143
2985.13	190.461
2986.42	182.81
2987.72	174.94
2989.01	166.771
2990.31	158.604
2991.61	151.163
2992.9	143.466
2994.19	135.664
2995.49	128.56
2996.78	121.92
2998.08	115.644
2999.37	109.177
3000.67	102.439
3001.96	95.3456
3003.25	89.3164
3004.55	83.4989
3005.84	78.1793
3007.13	72.4355
3008.42	66.7477
3009.72	61.5256
3011.01	57.0761
3012.3	52.321
3013.59	48.3239
3014.88	45.2682
3016.17	42.6164
3017.46	39.6482
3018.76	37.3363
3020.05	35.2611
3021.34	32.6807
3022.63	30.1618
3023.92	28.0901
3025.21	26.0419
3026.49	24.4278
3027.78	23.0939
3029.07	22.9055
3030.36	23.3507
3031.65	23.4305
3032.94	23.6398
3034.23	24.4756
3035.51	24.9391
3036.8	25.9246
3038.09	27.2208
3039.38	27.535
3040.66	28.6436
3041.95	30.0312
3043.23	31.2284
3044.52	32.0017
3045.81	33.7307
3047.09	35.3459
3048.38	36.1519
3049.66	36.9667
3050.95	38.7103
3052.23	39.2047
3053.52	39.364
3054.8	40.2608
3056.09	40.6628
3057.37	40.7762
3058.65	40.4866
3059.94	40.4408
3061.22	40.1134
3062.5	39.6449
3063.79	38.5015
3065.07	37.2323
3066.35	36.4249
3067.63	35.4072
3068.92	33.8649
3070.2	32.4872
3071.48	30.479
3072.76	28.9114
3074.04	26.8979
3075.32	24.9667
3076.6	22.9465
3077.88	20.9937
3079.16	18.71
3080.44	16.4483
3081.72	13.9772
3083	12.1858
3084.28	9.86206
3085.56	8.18517
3086.84	6.37782
3088.12	5.14735
3089.4	3.54045
3090.67	2.78164
3091.95	3.01269
3093.23	2.96576
3094.51	2.28422
3095.78	1.9475
3097.06	1.81982
3098.34	1.61318
3099.61	1.68848
3100.89	1.8636
3102.17	2.13959
3103.44	2.32957
3104.72	3.40472
3105.99	3.77585
3107.27	3.72157
3108.54	4.41762
3109.82	5.0009
3111.09	5.66235
3112.37	6.33594
3113.64	7.12152
3114.92	7.22191
3116.19	7.09922
3117.46	7.53336
3118.74	8.41396
3120.01	8.76135
3121.28	9.21364
3122.55	9.4669
3123.83	10.3172
3125.1	10.7929
3126.37	10.8422
3127.64	11.4135
3128.91	11.8001
3130.19	12.4466
3131.46	11.9055
3132.73	12.1618
3134	12.5992
3135.27	12.6805
3136.54	13.1235
3137.81	13.3559
3139.08	13.9048
3140.35	14.6469
3141.62	15.4534
3142.89	16.3786
3144.16	17.6008
3145.42	18.7283
3146.69	19.8809
3147.96	22.0304
3149.23	22.9546
