#Acq. time (s)=	45
#Accumulations=	2
#Range (cm-¹)=	200...3150
#Windows=	2
#Auto scanning=	Off
#Autofocus=	Off
#Macrospot=	Off
#AutoExposure=	Off
#Spike filter=	Multiple accum.
#Delay time (s)=	0
#Binning=	1
#Readout mode=	Signal
#DeNoise=	Off
#ICS correction=	On
#Dark correction=	Off
#Inst. Process=	Off
#Detector Gain=	Best Dynamic Range
#Detector ADC=	20 kHz       
#Detector temperature (°C)=	-69.85
#Instrument=	LabRAM HR Evol
#Detector=	Synapse
#Objective=	x100
#Grating=	600 gr/mm
#ND Filter=	100%
#Laser (nm)=	532 
#Hole=	100.021
#Range=	Auto
#Laser Pol.=	No
#Raman. Pol.=	No
#Laser Pol. (°)=	-0.0007625
#Raman Pol. (°)=	89.9995
#Collection=	Microscope
#StageXY=	Marzhauser
#StageZ=	Marzhauser
#X (µm)=	265.6
#Y (µm)=	1684.6
#Z (µm)=	426.9
#Full time(mm:ss)=	3:18
#Project=	
#Sample=	
#Site=	
#Title=	Thy_40_11_46_2x_45s_532 nm_x100_100%_600 gr_mm
#Remark=	
#Date=	05.07.2022 13:16
#Acquired=	05.07.2022 13:16:46
#Base:Fit=	10.08.2022 10:01:35
#Base:Sub=	10.08.2022 10:01:52
#Filter:Polynom=	16.08.2022 10:21:53
#AxisType[0]=Intens
#AxisUnit[0]=Cnt
#AxisType[1]=Spectr
#AxisUnit[1]=1/cm
200.43	21.1751
202.244	19.3103
204.059	16.9553
205.873	15.3508
207.688	13.7332
209.501	12.8786
211.314	12.581
213.127	11.4737
214.941	10.9981
216.753	10.762
218.564	9.66185
220.375	8.62954
222.186	8.04531
223.999	7.74011
225.809	7.92889
227.618	7.72263
229.428	6.38562
231.236	5.40317
233.045	5.05069
234.855	4.29487
236.663	3.93839
238.471	3.99535
240.278	3.66694
242.085	3.20274
243.891	3.27118
245.698	2.53018
247.503	2.77705
249.309	2.60341
251.116	3.42148
252.921	3.17113
254.725	3.53313
256.529	3.03447
258.333	3.23876
260.136	3.29124
261.939	2.93958
263.742	2.74573
265.544	1.28223
267.346	0.391413
269.148	1.30204
270.949	2.04887
272.75	3.06872
274.55	3.90122
276.351	4.55047
278.15	4.49142
279.95	5.74525
281.749	6.13634
283.548	6.33976
285.346	6.81361
287.144	7.50252
288.942	7.92185
290.739	7.90497
292.536	9.40202
294.333	10.5423
296.129	11.7218
297.925	12.4958
299.721	13.8263
301.514	13.1752
303.309	13.7354
305.104	14.8514
306.898	14.9709
308.692	15.086
310.486	15.6679
312.279	16.4853
314.072	16.8146
315.862	16.8629
317.654	17.4191
319.446	17.8762
321.238	18.9233
323.029	19.8532
324.819	19.7227
326.608	20.6827
328.398	20.9888
330.188	20.6881
331.977	20.5282
333.766	20.0413
335.553	19.1559
337.341	18.8642
339.129	18.1043
340.917	18.4575
342.704	17.4307
344.489	16.6896
346.275	16.0157
348.062	15.6302
349.845	15.0449
351.631	14.8486
353.416	14.8962
355.201	14.2367
356.984	14.5659
358.768	14.0777
360.552	12.2235
362.333	12.2148
364.116	11.463
365.899	10.6504
367.68	10.2164
369.462	10.1205
371.243	9.93558
373.023	8.99718
374.804	8.89506
376.585	8.94346
378.363	8.47837
380.143	8.03989
381.923	7.77567
383.7	7.75159
385.479	7.77617
387.256	7.35774
389.034	7.96909
390.812	7.19416
392.588	8.03351
394.365	7.94181
396.14	7.87545
397.916	8.04268
399.691	8.42266
401.467	9.6223
403.24	10.3689
405.015	11.4173
406.788	12.6746
408.563	12.073
410.335	12.3513
412.109	12.9943
413.88	12.4
415.654	13.3557
417.424	13.1178
419.197	13.0932
420.967	12.7911
422.739	12.1691
424.508	13.0333
426.279	13.8071
428.048	15.136
429.819	15.4638
431.587	15.235
433.356	15.078
435.124	15.9188
436.891	15.9853
438.66	16.1582
440.426	16.2371
442.194	15.0619
443.96	14.2672
445.725	14.2369
447.492	13.6791
449.257	14.1173
451.021	14.8176
452.787	14.3824
454.551	14.8174
456.314	15.9212
458.079	16.0692
459.842	16.64
461.604	17.4061
463.368	18.6984
465.13	18.8527
466.891	19.198
468.654	19.1218
470.415	19.4643
472.175	20.1103
473.935	20.2785
475.696	20.7543
477.456	20.9726
479.215	20.753
480.973	22.0282
482.733	22.435
484.491	22.7343
486.249	23.3988
488.006	24.2923
489.765	25.0445
491.522	25.6805
493.278	25.5107
495.034	25.8872
496.789	26.0501
498.544	26.8781
500.301	26.5524
502.056	27.0955
503.81	27.6651
505.564	28.1098
507.317	27.6932
509.071	27.789
510.825	28.6352
512.578	29.2852
514.33	29.0651
516.082	28.3932
517.833	27.6706
519.585	27.2215
521.335	26.9773
523.086	27.4851
524.836	26.6268
526.586	25.8642
528.335	24.5378
530.085	23.6111
531.835	22.7027
533.584	22.8986
535.332	22.3651
537.08	21.9015
538.827	20.7297
540.574	20.759
542.321	20.6143
544.068	20.6389
545.814	20.3847
547.56	20.1363
549.305	20.4203
551.05	19.7303
552.795	18.3254
554.54	18.1525
556.282	17.3645
558.025	17.5116
559.769	17.8969
561.512	17.0087
563.255	16.4917
564.997	15.4474
566.739	15.4834
568.481	16.1372
570.223	14.9573
571.964	14.7407
573.705	14.158
575.443	13.4835
577.183	12.5001
578.923	12.1117
580.663	10.3254
582.402	11.3841
584.141	10.4612
585.879	9.24918
587.615	9.31837
589.353	9.6313
591.09	8.9496
592.828	8.43374
594.564	7.22274
596.299	6.63697
598.035	5.57863
599.771	4.38769
601.506	4.67275
603.242	5.32566
604.974	5.4656
606.709	5.33865
608.443	5.89167
610.177	5.84355
611.908	5.77562
613.642	5.84753
615.374	6.21654
617.105	7.18723
618.837	6.31614
620.569	7.25762
622.3	7.4634
624.03	7.26378
625.761	7.72217
627.491	9.08945
629.219	9.78566
630.949	10.5621
632.677	11.1268
634.406	12.5042
636.135	13.3457
637.861	13.2266
639.59	13.7068
641.318	15.0875
643.043	16.0826
644.77	16.6763
646.495	16.9931
648.222	15.8361
649.948	15.8464
651.672	16.4329
653.398	16.9985
655.121	16.7817
656.846	15.532
658.569	16.1499
660.293	15.9305
662.015	15.4428
663.738	16.2171
665.46	16.7438
667.183	16.7493
668.903	17.8662
670.626	16.9329
672.346	16.3153
674.067	16.8662
675.787	16.7787
677.508	16.3819
679.226	16.1719
680.947	17.4686
682.665	18.4616
684.385	19.8105
686.102	21.8537
687.821	23.4044
689.538	24.6567
691.254	24.6105
692.972	25.7155
694.688	26.8617
696.406	27.2189
698.121	28.4344
699.835	29.0322
701.552	29.929
703.266	30.9462
704.98	30.2728
706.695	32.316
708.409	33.8347
710.121	35.3551
711.836	37.5537
713.548	38.8404
715.26	40.1431
716.973	41.4951
718.685	42.5715
720.396	44.7001
722.108	45.7837
723.818	47.5908
725.528	48.3581
727.238	50.0582
728.949	50.9314
730.658	50.8381
732.367	51.73
734.075	51.899
735.785	53.6509
737.493	54.8033
739.2	55.1547
740.907	55.6386
742.614	55.7315
744.322	56.8893
746.028	58.5078
747.734	59.8611
749.439	61.1268
751.144	61.4912
752.849	62.0794
754.555	62.5464
756.26	63.1368
757.963	63.1892
759.667	63.8426
761.37	64.8454
763.073	64.9541
764.775	66.5517
766.477	68.1338
768.179	67.7509
769.883	68.0564
771.584	69.0455
773.285	69.3564
774.986	70.5913
776.686	70.3598
778.386	71.4166
780.085	72.2595
781.785	73.1746
783.484	74.6303
785.182	76.3421
786.881	77.6716
788.579	77.8892
790.276	78.7362
791.974	80.6106
793.671	82.1648
795.367	83.5665
797.064	84.7305
798.76	85.5189
800.456	86.8293
802.151	86.9022
803.846	88.7839
805.541	89.6676
807.234	89.927
808.928	90.4644
810.622	89.8582
812.315	90.4774
814.008	90.4979
815.701	90.2025
817.394	90.3925
819.086	90.0593
820.778	90.5127
822.468	90.28
824.159	89.8748
825.85	89.7427
827.541	88.8199
829.231	88.7229
830.921	89.23
832.609	88.474
834.298	87.5056
835.987	86.4886
837.676	85.1553
839.364	84.5583
841.051	84.1066
842.738	82.6517
844.426	81.1989
846.113	80.4295
847.798	78.9262
849.484	78.7015
851.171	77.6226
852.857	75.7875
854.54	75.5835
856.226	74.6985
857.911	73.3908
859.593	72.9426
861.278	71.4294
862.961	71.4104
864.645	70.5388
866.327	70.1366
868.01	69.3081
869.692	69.0203
871.373	67.2695
873.055	65.9933
874.735	65.9789
876.416	65.657
878.097	65.4867
879.776	65.1477
881.457	64.0868
883.135	63.2254
884.815	62.8876
886.495	61.714
888.172	61.5447
889.851	60.1088
891.528	60.4443
893.206	59.557
894.882	59.5618
896.56	59.4896
898.237	58.8907
899.912	57.8044
901.589	57.6963
903.263	57.5926
904.94	57.6281
906.614	56.7016
908.289	55.5044
909.962	54.741
911.635	54.8258
913.31	55.195
914.982	55.2572
916.656	54.3935
918.328	53.4294
920.001	52.3629
921.672	53.0171
923.345	53.3043
925.015	52.9412
926.685	51.2616
928.357	50.4474
930.026	49.6505
931.698	48.2957
933.366	47.5807
935.035	47.2772
936.705	47.1175
938.373	46.7117
940.041	45.5876
941.71	45.1145
943.377	44.9117
945.044	43.6701
946.712	43.1431
948.378	43.7094
950.044	43.5058
951.709	43.21
953.376	43.0765
955.041	42.8541
956.706	43.5988
958.372	43.2172
960.036	42.9364
961.699	41.6054
963.362	40.6619
965.027	40.8065
966.69	40.9115
968.352	40.8444
970.014	41.1985
971.676	41.5397
973.339	41.6709
975	42.971
976.661	43.027
978.322	44.2838
979.982	44.7607
981.642	45.4396
983.303	46.2516
984.962	47.1626
986.621	46.8048
988.28	46.6958
989.938	46.6974
991.596	46.7242
993.254	46.6248
994.911	47.8533
996.57	46.8883
998.227	46.873
999.884	46.8702
1001.54	47.9857
1003.2	48.7789
1004.85	49.1977
1006.51	49.217
1008.16	48.9097
1009.82	48.8943
1011.47	48.6466
1013.12	48.5415
1014.78	47.9848
1016.43	48.7268
1018.08	48.7307
1019.74	48.2604
1021.39	48.1959
1023.04	48.5476
1024.69	48.5982
1026.34	48.1317
1028	48.1024
1029.65	48.6838
1031.3	49.1625
1032.95	47.8861
1034.6	47.4545
1036.25	47.2017
1037.9	46.7988
1039.54	45.6422
1041.19	44.6129
1042.84	44.412
1044.49	43.7558
1046.14	43.3749
1047.78	43.6284
1049.43	42.5917
1051.08	42.0176
1052.72	41.8866
1054.37	40.6728
1056.02	40.7927
1057.66	41.3406
1059.31	40.3528
1060.95	39.7303
1062.6	38.7743
1064.24	36.8636
1065.88	35.7894
1067.53	34.6339
1069.17	32.7291
1070.81	32.2829
1072.45	31.6255
1074.1	30.5026
1075.74	30.7238
1077.38	30.6616
1079.02	30.4005
1080.66	31.1504
1082.3	31.0839
1083.94	29.8328
1085.58	28.8993
1087.22	27.9491
1088.86	28.3164
1090.5	28.2066
1092.14	27.6661
1093.78	26.7982
1095.42	26.679
1097.05	25.8102
1098.69	25.4083
1100.33	25.4305
1101.96	25.6525
1103.6	26.6426
1105.24	26.5153
1106.87	25.089
1108.51	25.0054
1110.14	24.4887
1111.78	24.191
1113.41	24.1886
1115.05	23.8123
1116.68	23.0549
1118.31	23.0892
1119.95	22.2545
1121.58	20.9859
1123.21	20.0837
1124.85	19.249
1126.48	18.7099
1128.11	17.7202
1129.74	17.6927
1131.37	17.5058
1133	17.1849
1134.63	17.0686
1136.26	17.1783
1137.89	16.3389
1139.52	15.3583
1141.15	14.2037
1142.78	12.4844
1144.41	11.7481
1146.04	11.5016
1147.66	11.1187
1149.29	10.0562
1150.92	9.77079
1152.55	9.86868
1154.17	9.51129
1155.8	9.30887
1157.43	9.22604
1159.05	8.48786
1160.68	9.11974
1162.3	8.92014
1163.93	8.82034
1165.55	7.74688
1167.17	9.13219
1168.8	9.68216
1170.42	10.8995
1172.05	11.7122
1173.67	11.5472
1175.29	12.0752
1176.91	12.0609
1178.54	12.7764
1180.16	13.8016
1181.78	15.0914
1183.4	15.5781
1185.02	16.2863
1186.64	16.3104
1188.26	16.5344
1189.88	17.5468
1191.5	16.884
1193.12	18.164
1194.74	18.9144
1196.36	19.6661
1197.97	20.1094
1199.59	21.5821
1201.21	22.9144
1202.83	23.6592
1204.44	25.2841
1206.06	27.2883
1207.68	28.8691
1209.29	30.197
1210.91	31.8563
1212.52	32.7011
1214.14	33.8192
1215.75	34.6324
1217.37	35.3982
1218.98	36.1285
1220.59	37.942
1222.21	38.6339
1223.82	39.8355
1225.43	42.1098
1227.05	43.8828
1228.66	46.148
1230.27	48.0744
1231.88	51.2581
1233.49	52.92
1235.1	53.97
1236.72	55.0099
1238.33	56.4452
1239.94	58.7247
1241.55	61.2401
1243.16	62.6508
1244.76	64.2502
1246.37	64.6909
1247.98	67.1594
1249.59	68.1499
1251.2	70.2074
1252.8	71.2416
1254.41	72.0154
1256.02	74.048
1257.62	75.6578
1259.23	76.651
1260.84	77.5401
1262.44	78.1892
1264.05	78.5269
1265.66	79.5648
1267.26	80.1381
1268.86	79.8138
1270.47	79.2509
1272.07	78.8703
1273.67	80.3117
1275.28	80.7217
1276.88	81.4773
1278.48	80.7778
1280.09	82.0834
1281.69	82.7714
1283.29	82.436
1284.89	82.7995
1286.49	83.2805
1288.09	83.6054
1289.69	83.624
1291.29	83.0839
1292.89	83.01
1294.49	83.8986
1296.09	84.4916
1297.69	85.1351
1299.29	85.6763
1300.89	85.2354
1302.49	84.7139
1304.08	85.5322
1305.68	85.9716
1307.28	86.1724
1308.88	87.4893
1310.47	86.2064
1312.07	86.7041
1313.66	85.9891
1315.26	85.5169
1316.85	85.5687
1318.45	86.5325
1320.04	86.6379
1321.64	86.5646
1323.23	86.4022
1324.83	86.4069
1326.42	85.4043
1328.01	85.0002
1329.61	84.2404
1331.2	83.6548
1332.79	82.6143
1334.38	81.895
1335.97	80.8947
1337.56	79.1019
1339.16	77.7543
1340.75	76.9908
1342.34	75.3794
1343.93	73.4306
1345.52	71.5126
1347.11	69.0949
1348.7	66.7512
1350.29	65.2278
1351.87	64.5119
1353.46	64.0542
1355.05	61.7745
1356.64	60.133
1358.22	58.2304
1359.81	57.441
1361.4	55.9039
1362.98	53.9345
1364.57	52.3792
1366.16	50.7307
1367.74	49.5018
1369.33	48.4096
1370.91	47.1276
1372.5	46.8899
1374.08	46.1406
1375.67	45.6365
1377.25	44.4192
1378.83	44.1178
1380.41	43.7791
1382	43.7829
1383.58	44.3852
1385.16	44.0589
1386.74	44.4428
1388.33	45.0403
1389.91	44.3556
1391.49	44.6165
1393.07	44.0995
1394.65	43.775
1396.23	43.4532
1397.81	44.9589
1399.39	44.886
1400.97	46.1325
1402.55	46.0574
1404.13	45.5345
1405.7	45.0482
1407.28	44.9995
1408.86	45.133
1410.44	46.1
1412.01	47.2864
1413.59	48.7766
1415.17	49.7244
1416.74	50.9078
1418.32	52.4664
1419.89	53.6899
1421.47	54.2341
1423.04	55.867
1424.62	56.7996
1426.19	59.7439
1427.77	62.3088
1429.34	65.0944
1430.91	67.3759
1432.49	69.2899
1434.06	70.9586
1435.63	72.8669
1437.2	74.9636
1438.78	77.2659
1440.35	78.9546
1441.92	79.9815
1443.49	81.2258
1445.06	81.383
1446.63	82.2755
1448.2	82.6175
1449.77	82.8878
1451.34	82.9975
1452.91	82.8592
1454.48	82.0701
1456.05	81.1234
1457.62	80.256
1459.18	78.2741
1460.75	76.5131
1462.32	74.6165
1463.89	71.733
1465.45	69.3538
1467.02	66.3893
1468.59	63.1971
1470.15	59.8052
1471.72	56.7306
1473.28	54.4719
1474.85	51.4622
1476.41	49.047
1477.98	44.8425
1479.54	41.7318
1481.1	37.5844
1482.67	34.505
1484.23	31.5097
1485.79	29.9
1487.36	29.0208
1488.92	27.9424
1490.48	24.8357
1492.04	23.244
1493.61	20.7229
1495.17	20.2275
1496.73	19.6745
1498.29	18.7949
1499.85	17.5341
1501.41	17.9489
1502.97	17.2065
1504.53	17.6766
1506.09	17.414
1507.65	17.2986
1509.2	17.3667
1510.76	17.2549
1512.32	17.733
1513.88	17.2769
1515.43	17.866
1516.99	17.5658
1518.55	18.1422
1520.1	18.026
1521.66	19.0488
1523.22	18.928
1524.77	19.7972
1526.33	19.8062
1527.88	20.3417
1529.44	20.5723
1530.99	21.6004
1532.54	20.8529
1534.1	22.367
1535.65	23.6431
1537.21	24.6436
1538.76	26.2988
1540.31	27.7624
1541.86	29.369
1543.42	31.0743
1544.97	32.6805
1546.52	34.7293
1548.07	36.5231
1549.62	38.2675
1551.17	41.0885
1552.72	42.6395
1554.27	45.0317
1555.82	47.6635
1557.37	50.2387
1558.92	52.5948
1560.47	55.409
1562.02	58.0544
1563.56	60.819
1565.11	62.3571
1566.66	62.6854
1568.21	63.1357
1569.75	64.7093
1571.3	65.8142
1572.85	67.3515
1574.39	67.7957
1575.94	69.3209
1577.49	70.5599
1579.03	72.3277
1580.57	72.0902
1582.12	73.0087
1583.66	74.0234
1585.21	74.5533
1586.75	73.9739
1588.3	73.9908
1589.84	74.5571
1591.38	74.7129
1592.92	74.9092
1594.47	75.2688
1596.01	75.7391
1597.55	75.1051
1599.09	75.0759
1600.63	74.1824
1602.17	72.8956
1603.71	72.3091
1605.25	72.2136
1606.79	71.6538
1608.33	71.672
1609.87	70.774
1611.41	71.9715
1612.95	71.5727
1614.49	71.6109
1616.03	71.9248
1617.57	72.3441
1619.1	71.9106
1620.64	72.8293
1622.18	73.815
1623.72	74.8272
1625.25	75.6565
1626.79	76.5796
1628.32	78.5725
1629.86	79.7217
1631.39	81.9129
1632.93	83.3672
1634.46	84.4724
1636	86.4038
1637.53	87.8112
1639.07	88.489
1640.6	89.8514
1642.13	91.5245
1643.67	92.6625
1645.2	93.8541
1646.73	95.3087
1648.26	96.4884
1649.8	97.5325
1651.33	99.2967
1652.86	100.236
1654.39	100.887
1655.92	101.295
1657.45	101.174
1658.98	101.981
1660.51	101.706
1662.04	101.078
1663.57	100.054
1665.1	99.3225
1666.63	98.7487
1668.16	97.737
1669.68	95.5599
1671.21	93.4223
1672.74	90.6812
1674.27	88.3357
1675.79	85.5559
1677.32	82.6265
1678.85	78.1902
1680.37	75.4689
1681.9	71.8229
1683.42	68.4963
1684.95	64.729
1686.47	60.149
1688	57.4252
1689.52	53.0452
1691.05	49.5401
1692.57	45.8104
1694.09	43.2044
1695.62	39.6859
1697.14	37.0548
1698.66	33.3627
1700.18	30.3862
1701.71	27.4496
1703.23	25.5005
1704.75	23.7537
1706.27	21.4125
1707.79	19.5799
1709.31	17.1155
1710.83	15.3187
1712.35	13.6913
1713.87	12.1014
1715.39	12.2754
1716.91	12.1937
1718.43	11.3633
1719.95	9.86072
1721.47	9.04502
1722.99	8.67613
1724.5	8.54422
1726.02	8.7167
1727.54	8.91867
1729.06	9.18182
1730.57	9.43684
1732.09	9.44585
1733.61	9.84966
1735.12	9.52521
1736.64	9.59826
1738.15	10.0072
1739.67	10.2043
1741.18	9.91999
1742.7	10.7898
1744.21	10.564
1745.72	10.3922
1747.24	10.1313
1748.75	10.0507
1750.26	9.98309
1751.77	9.79454
1753.29	8.98633
1754.8	8.35285
1756.31	8.51945
1757.82	8.15495
1759.33	7.64056
1760.84	6.65531
1762.36	6.34149
1763.87	6.48224
1765.38	5.40148
1766.89	5.4327
1768.4	5.03121
1769.91	5.0878
1771.41	4.13979
1772.92	3.59943
1774.43	3.37199
1775.94	3.275
1777.45	2.87199
1778.95	2.91877
1780.46	2.22943
1781.97	1.52085
1783.48	0.963024
1784.98	0.525163
1786.49	0.437375
1787.99	0.83114
1789.5	0.954593
1791.01	1.75577
1792.51	0.89272
1794.01	0.611928
1795.52	0.931612
1797.02	1.10876
1798.53	0.986279
1800.03	0.635013
1801.53	0.292055
1803.04	0.631235
1804.54	1.08934
1806.04	1.19093
1807.54	1.73069
1809.05	2.31396
1810.55	2.39812
1812.05	2.7923
1813.55	2.64771
1815.05	2.33761
1816.55	1.96511
1818.05	2.5177
1819.55	2.04443
1821.05	2.13813
1822.55	1.96227
1824.05	2.29843
1825.55	2.18089
1827.05	2.59578
1828.55	2.04698
1830.04	2.01089
1831.54	2.24702
1833.04	1.91847
1834.54	1.66842
1836.03	1.97595
1837.53	2.24091
1839.03	1.67172
1840.52	1.77076
1842.02	1.64879
1843.51	1.6937
1845.01	2.05355
1846.5	1.66461
1848	1.35346
1849.49	1.7515
1850.99	2.1327
1852.48	1.53554
1853.97	1.2968
1855.47	0.953091
1856.96	1.05947
1858.45	1.21204
1859.94	1.78371
1861.44	1.84684
1862.93	2.00805
1864.42	1.4741
1865.91	1.91253
1867.4	1.37125
1868.89	2.00942
1870.38	2.37575
1871.87	1.8101
1873.36	2.41938
1874.85	3.00165
1876.34	3.87176
1877.83	4.56171
1879.32	4.74491
1880.81	4.93963
1882.3	5.32971
1882.57	5.13314
1884.07	5.26695
1885.56	5.0715
1887.06	5.21999
1888.55	4.82789
1890.04	5.06719
1891.54	5.06615
1893.03	4.92894
1894.52	4.85196
1896.02	4.46278
1897.51	4.92231
1899	4.68237
1900.49	4.63732
1901.98	3.57424
1903.47	3.3987
1904.96	3.42834
1906.45	3.81839
1907.94	4.15871
1909.43	3.53741
1910.92	2.61096
1912.41	2.62362
1913.9	2.86206
1915.39	2.87492
1916.88	2.80148
1918.37	2.76443
1919.85	2.63587
1921.34	2.1188
1922.83	2.5036
1924.32	2.04311
1925.8	1.34355
1927.29	1.38422
1928.78	1.48778
1930.26	2.61545
1931.75	2.81969
1933.23	2.86704
1934.72	1.88101
1936.2	1.45675
1937.69	0.849454
1939.17	1.70656
1940.66	1.98597
1942.14	2.75981
1943.63	2.03029
1945.11	2.32823
1946.59	3.15835
1948.07	2.77764
1949.56	2.21037
1951.04	1.89613
1952.52	1.66714
1954	2.29588
1955.48	2.66697
1956.96	2.00865
1958.45	1.65262
1959.93	1.24084
1961.41	0.532402
1962.89	0.621413
1964.37	0.507019
1965.85	0.363432
1967.32	0.464802
1968.8	0.648235
1970.28	1.2591
1971.76	2.47291
1973.24	2.10834
1974.72	2.00721
1976.19	1.81908
1977.67	2.62425
1979.15	2.59978
1980.63	2.96579
1982.1	2.39439
1983.58	1.79245
1985.05	2.09184
1986.53	2.69735
1988	2.74588
1989.48	3.79751
1990.95	4.39861
1992.43	5.13745
1993.9	5.16074
1995.38	5.09275
1996.85	5.76643
1998.32	6.36881
1999.8	6.44742
2001.27	6.9962
2002.74	7.26445
2004.22	7.91672
2005.69	7.6259
2007.16	7.03384
2008.63	7.26207
2010.1	7.16051
2011.57	7.27636
2013.04	8.07975
2014.51	7.56902
2015.98	7.19872
2017.45	6.79093
2018.92	7.69724
2020.39	6.98759
2021.86	6.48746
2023.33	6.00306
2024.8	6.06716
2026.27	5.97391
2027.74	5.91976
2029.2	5.39733
2030.67	5.21086
2032.14	4.83968
2033.61	5.98629
2035.07	6.4391
2036.54	7.56003
2038.01	7.40249
2039.47	8.42265
2040.94	8.51254
2042.4	9.71014
2043.87	9.42918
2045.33	9.87924
2046.8	10.1249
2048.26	10.5124
2049.72	11.2672
2051.19	11.166
2052.65	10.9903
2054.12	11.6916
2055.58	11.8677
2057.04	12.092
2058.5	12.8107
2059.97	13.487
2061.43	14.1157
2062.89	14.4034
2064.35	14.3547
2065.81	14.4291
2067.27	14.4035
2068.73	15.1277
2070.19	15.8906
2071.65	17.0257
2073.11	17.139
2074.57	17.9968
2076.03	18.9557
2077.49	19.7777
2078.95	20.3179
2080.41	20.3082
2081.87	21.3957
2083.32	21.3118
2084.78	22.1534
2086.24	23.037
2087.7	22.5146
2089.15	23.5949
2090.61	23.9865
2092.07	24.2218
2093.52	24.1222
2094.98	24.9413
2096.43	25.4845
2097.89	26.4107
2099.34	27.5186
2100.8	28.7882
2102.25	30.39
2103.71	31.4923
2105.16	33.1206
2106.61	34.7814
2108.07	35.2085
2109.52	36.1323
2110.97	37.156
2112.43	38.5602
2113.88	39.4814
2115.33	40.9662
2116.78	42.0812
2118.23	44.4626
2119.68	46.1854
2121.13	47.1223
2122.59	48.9977
2124.04	50.5303
2125.49	52.5864
2126.94	54.9201
2128.39	57.1648
2129.83	59.2652
2131.28	61.5508
2132.73	63.3743
2134.18	65.3308
2135.63	68.2138
2137.08	70.2322
2138.53	72.5714
2139.97	75.5139
2141.42	77.8381
2142.87	79.9798
2144.31	82.2113
2145.76	83.6095
2147.21	85.7147
2148.65	87.8698
2150.1	89.5885
2151.54	91.1037
2152.99	92.141
2154.43	94.1952
2155.88	95.366
2157.32	97.0169
2158.77	98.3891
2160.21	98.7383
2161.65	100.275
2163.1	100.422
2164.54	100.87
2165.98	101.773
2167.43	102.52
2168.87	103.404
2170.31	103.619
2171.75	104.01
2173.19	103.904
2174.64	104.005
2176.07	103.676
2177.52	103.226
2178.96	102.239
2180.4	101.45
2181.84	100.764
2183.28	100.305
2184.72	99.1292
2186.15	98.2654
2187.59	97.6682
2189.03	97.7393
2190.47	96.6967
2191.91	94.8722
2193.35	93.4821
2194.78	92.7959
2196.22	91.3172
2197.66	89.821
2199.09	88.8647
2200.53	86.8646
2201.97	84.9344
2203.4	82.9339
2204.84	80.9926
2206.27	79.5629
2207.71	78.1297
2209.14	75.3904
2210.58	74.4459
2212.01	72.2814
2213.45	69.9205
2214.88	68.6148
2216.31	66.9394
2217.75	65.1172
2219.18	63.7631
2220.61	62.1274
2222.05	60.0077
2223.48	57.694
2224.91	56.3336
2226.34	54.8285
2227.78	53.247
2229.21	51.9638
2230.64	49.8195
2232.07	48.0619
2233.5	47.1372
2234.93	45.7798
2236.36	44.7242
2237.79	43.7818
2239.22	42.5655
2240.65	41.1163
2242.08	39.2444
2243.5	37.3834
2244.93	36.1781
2246.36	35.095
2247.79	33.8095
2249.22	32.6419
2250.64	31.9442
2252.07	31.0705
2253.5	30.9426
2254.92	30.6795
2256.35	29.5551
2257.78	29.21
2259.2	28.4516
2260.63	28.1404
2262.05	26.8078
2263.48	25.3269
2264.9	24.6811
2266.33	24.2048
2267.75	23.231
2269.18	22.0467
2270.6	21.0174
2272.02	20.4884
2273.45	19.8261
2274.87	19.6853
2276.29	19.5383
2277.71	18.7345
2279.14	18.2209
2280.56	17.8355
2281.98	17.6034
2283.4	16.6092
2284.82	15.9132
2286.24	15.3881
2287.66	14.7204
2289.08	13.3819
2290.5	12.6435
2291.92	11.5004
2293.34	10.662
2294.76	9.87758
2296.18	9.87681
2297.6	9.4712
2299.02	10.1305
2300.44	10.2463
2301.86	9.91798
2303.27	10.4599
2304.69	10.3294
2306.11	10.2047
2307.53	10.2371
2308.94	10.0375
2310.36	10.0179
2311.78	10.2787
2313.19	9.85732
2314.61	10.0677
2316.02	10.5205
2317.44	9.89949
2318.85	10.5552
2320.27	10.5133
2321.68	10.764
2323.1	10.8364
2324.51	10.1604
2325.92	9.678
2327.34	9.37443
2328.75	9.30789
2330.16	8.9432
2331.58	9.22513
2332.99	8.47162
2334.4	7.68502
2335.81	7.21326
2337.23	7.19815
2338.64	6.51718
2340.05	6.48649
2341.46	6.5779
2342.87	6.34238
2344.28	6.16961
2345.69	6.09645
2347.1	5.42406
2348.51	4.39528
2349.92	4.33806
2351.33	3.93061
2352.74	3.30932
2354.15	2.54752
2355.55	2.29868
2356.96	2.56235
2358.37	2.30129
2359.78	1.7922
2361.19	1.33107
2362.59	1.48362
2364	1.68825
2365.41	2.02286
2366.81	2.72207
2368.22	2.7971
2369.62	3.00461
2371.03	2.3053
2372.44	2.06422
2373.84	2.33017
2375.24	2.59105
2376.65	2.55413
2378.05	2.63302
2379.46	2.75508
2380.86	2.66282
2382.26	2.3616
2383.67	1.69077
2385.07	1.55336
2386.47	1.07235
2387.88	0.723372
2389.28	1.14732
2390.68	0.7626
2392.08	1.54383
2393.48	1.95855
2394.89	2.07268
2396.29	2.81327
2397.69	3.55366
2399.09	3.74116
2400.49	3.96037
2401.89	3.86587
2403.29	3.50913
2404.69	3.65731
2406.09	4.28259
2407.48	4.44311
2408.88	5.07089
2410.28	5.16914
2411.68	5.50871
2413.08	6.0389
2414.48	6.43995
2415.87	6.50988
2417.27	6.284
2418.67	6.84631
2420.06	7.49281
2421.46	7.78699
2422.86	8.00937
2424.25	7.69388
2425.65	8.07146
2427.04	8.12596
2428.44	8.3987
2429.83	8.68739
2431.23	8.47537
2432.62	9.0176
2434.02	8.70151
2435.41	8.42904
2436.81	7.66502
2438.2	7.12716
2439.59	7.08034
2440.99	7.19129
2442.38	7.55106
2443.77	7.56691
2445.16	7.2089
2446.56	6.90712
2447.95	6.85734
2449.34	6.62181
2450.73	6.12395
2452.12	5.80496
2453.51	5.61171
2454.9	5.12959
2456.29	5.20261
2457.68	5.08856
2459.07	5.06512
2460.46	5.335
2461.85	5.56787
2463.24	5.05278
2464.63	4.69788
2466.02	4.59362
2467.4	4.52853
2468.79	4.20622
2470.18	3.87247
2471.57	4.05333
2472.95	5.33098
2474.34	5.39008
2475.73	5.29583
2477.12	5.31508
2478.5	5.32887
2479.89	4.60101
2481.27	5.05226
2482.66	4.81379
2484.04	4.44936
2485.43	4.86072
2486.81	4.60712
2488.2	5.44243
2489.58	5.37908
2490.97	5.51955
2492.35	5.36479
2493.73	5.18634
2495.12	5.64754
2496.5	5.52109
2497.88	5.5052
2499.27	5.33686
2500.65	5.15427
2502.03	5.18537
2503.41	5.05709
2504.79	4.72747
2506.17	4.55587
2507.56	4.92553
2508.94	4.66382
2510.32	4.58124
2511.7	4.20355
2513.08	3.89464
2514.46	3.06529
2515.84	3.03427
2517.22	2.69091
2518.59	2.02546
2519.97	1.54404
2521.35	1.3915
2522.73	1.16704
2524.11	1.34396
2525.49	2.10278
2526.86	1.73662
2528.24	2.44408
2529.62	2.84546
2530.99	2.88919
2532.37	2.21999
2533.75	2.36775
2535.12	2.45895
2536.5	2.3414
2537.88	2.23814
2539.25	1.5105
2540.63	1.95093
2542	2.19309
2543.38	1.68879
2544.75	1.99281
2546.12	1.81862
2547.5	1.07753
2548.87	1.64476
2550.24	1.95037
2551.62	2.45035
2552.99	2.53864
2554.36	3.25768
2555.74	3.39338
2557.11	3.59133
2558.48	3.72433
2559.85	4.29573
2561.22	4.2831
2562.59	4.6137
2563.96	5.24693
2565.34	5.24161
2566.71	5.88464
2568.08	6.31152
2569.45	6.12602
2570.82	6.32285
2572.18	6.00636
2573.55	5.87051
2574.92	5.80245
2576.29	5.73147
2577.66	5.05447
2579.03	5.31759
2580.4	4.78402
2581.77	5.10436
2583.13	4.62483
2584.5	5.23646
2585.87	5.18171
2587.23	5.10467
2588.6	5.38513
2589.97	5.66172
2591.33	5.673
2592.7	6.0787
2594.06	6.08457
2595.43	5.72473
2596.79	6.19732
2598.16	5.61305
2599.52	4.81855
2600.89	4.06692
2602.25	4.42501
2603.62	3.78154
2604.98	3.47607
2606.34	3.69037
2607.71	4.01521
2609.07	4.71184
2610.43	4.57855
2611.79	4.04038
2613.16	3.6381
2614.52	3.27318
2615.88	3.51531
2617.24	3.33971
2618.6	3.01765
2619.96	3.16412
2621.32	3.58588
2622.68	3.74909
2624.04	3.83457
2625.4	4.00833
2626.76	4.73911
2628.12	4.93928
2629.48	4.00674
2630.84	4.42019
2632.2	4.33022
2633.56	3.94705
2634.92	3.86509
2636.28	3.53837
2637.63	3.11056
2638.99	2.62139
2640.35	2.62634
2641.71	2.93506
2643.06	2.75562
2644.42	2.76588
2645.77	2.59198
2647.13	2.58829
2648.49	2.72581
2649.84	3.23891
2651.2	2.67348
2652.55	3.23296
2653.91	3.09971
2655.26	2.96893
2656.62	2.65287
2657.97	2.70153
2659.33	2.40776
2660.68	2.38893
2662.03	2.08738
2663.39	2.18269
2664.74	1.97503
2666.09	1.60869
2667.44	1.34362
2668.8	1.75101
2670.15	2.19778
2671.5	1.92874
2672.85	2.06085
2674.2	2.14654
2675.55	1.56589
2676.91	0.758296
2678.26	0.346632
2679.61	-0.0211513
2680.96	0.288022
2682.31	-0.0383458
2683.66	0.0507732
2685	0.384705
2686.35	1.09478
2687.7	1.75015
2689.05	2.48988
2690.4	2.7217
2691.75	3.5594
2693.1	3.76837
2694.44	4.14127
2695.79	3.82454
2697.14	3.64654
2698.49	4.18771
2699.83	4.11518
2701.18	4.23535
2702.52	4.60002
2703.87	5.06115
2705.22	5.34308
2706.56	5.46988
2707.91	6.40126
2709.25	6.55629
2710.6	7.04948
2711.94	7.6374
2713.29	8.01409
2714.63	8.46046
2715.97	8.83413
2717.32	9.21394
2718.66	8.596
2720.01	8.56099
2721.35	8.67391
2722.69	8.84117
2724.03	8.4403
2725.38	8.62467
2726.72	8.52999
2728.06	8.73375
2729.4	8.69872
2730.74	9.1204
2732.08	8.53536
2733.42	8.73023
2734.76	8.94464
2736.1	8.90919
2737.44	8.49451
2738.78	7.69308
2740.12	7.39168
2741.46	6.97949
2742.8	6.15554
2744.14	6.11321
2745.48	6.17609
2746.82	5.73798
2748.16	5.76675
2749.49	5.27444
2750.83	5.8203
2752.17	5.65068
2753.51	5.33396
2754.84	5.61485
2756.18	5.48213
2757.52	5.21806
2758.85	4.59126
2760.19	3.8764
2761.53	3.64185
2762.86	2.99651
2764.2	2.34444
2765.53	1.63694
2766.87	1.82762
2768.2	1.50293
2769.54	1.60803
2770.87	1.51221
2772.2	1.22337
2773.54	1.16586
2774.87	1.09282
2776.2	1.08686
2777.54	1.19052
2778.87	1.52747
2780.2	1.43801
2781.53	0.802141
2782.87	0.853869
2784.2	1.03449
2785.53	0.531247
2786.86	0.928781
2788.19	1.22838
2789.52	1.17431
2790.85	1.53592
2792.18	1.94608
2793.51	1.89553
2794.84	1.82279
2796.17	1.5321
2797.5	1.34224
2798.83	0.703157
2800.16	0.829754
2801.49	0.872094
2802.82	0.872157
2804.15	0.416218
2805.47	0.357082
2806.8	0.414793
2808.13	0.339274
2809.46	-0.0944456
2810.78	-0.495496
2812.11	-0.658869
2813.44	-0.472465
2814.76	-0.412935
2816.09	-0.44187
2817.42	0.105671
2818.74	0.208316
2820.07	1.09978
2821.39	2.27948
2822.72	2.78023
2824.04	3.59377
2825.37	4.61986
2826.69	5.72004
2828.02	7.47476
2829.34	9.32245
2830.66	11.6502
2831.99	13.9495
2833.31	16.6291
2834.63	18.6608
2835.96	21.1944
2837.28	23.5978
2838.6	25.7689
2839.92	28.7092
2841.24	31.7268
2842.57	34.3891
2843.89	37.7242
2845.21	41.5997
2846.53	44.7711
2847.85	48.1971
2849.17	52.7443
2850.49	56.8063
2851.81	60.8872
2853.13	65.5957
2854.45	70.0703
2855.77	74.3446
2857.09	78.5422
2858.41	82.5088
2859.72	86.4781
2861.04	90.5679
2862.36	94.5377
2863.68	98.7723
2865	102.696
2866.31	106.372
2867.63	109.795
2868.95	112.833
2870.26	116.108
2871.58	119.33
2872.9	121.845
2874.21	123.989
2875.53	126.396
2876.84	129.458
2878.16	131.976
2879.47	133.409
2880.79	135.64
2882.1	138.392
2883.42	140.908
2884.73	143.258
2886.05	145.414
2887.36	146.664
2888.67	148.289
2889.99	150.312
2891.3	152.799
2892.61	155.027
2893.92	157.697
2895.24	160.173
2896.55	162.939
2897.86	165.32
2899.17	168.723
2900.48	172.34
2901.79	175.31
2903.11	179.148
2904.42	182.888
2905.73	188.2
2907.04	192.916
2908.35	198.452
2909.66	204.36
2910.97	210.588
2912.27	216.438
2913.58	222.851
2914.89	229.913
2916.2	236.237
2917.51	242.004
2918.82	247.587
2920.13	252.775
2921.43	257.717
2922.74	262.125
2924.05	266.108
2925.35	269.812
2926.66	273.292
2927.97	275.819
2929.27	278.028
2930.58	279.498
2931.89	280.215
2933.19	281.498
2934.5	281.768
2935.8	282.213
2937.11	281.64
2938.41	280.526
2939.72	278.646
2941.02	276.867
2942.32	273.314
2943.63	269.317
2944.93	266.065
2946.24	263.329
2947.54	258.885
2948.84	253.307
2950.14	248.011
2951.45	242.353
2952.75	236.554
2954.05	231.589
2955.35	225.898
2956.65	220.457
2957.95	215.265
2959.26	210.121
2960.56	204.986
2961.86	200.207
2963.16	194.491
2964.46	189.47
2965.76	184.055
2967.06	178.877
2968.36	175.018
2969.66	170.185
2970.96	166.368
2972.25	161.889
2973.55	157.829
2974.85	153.477
2976.15	149.602
2977.45	145.132
2978.74	140.711
2980.04	136.095
2981.34	130.99
2982.64	126.393
2983.93	122.028
2985.23	117.348
2986.52	111.758
2987.82	106.971
2989.12	102.985
2990.41	98.4259
2991.71	93.2199
2993	88.555
2994.3	84.4358
2995.59	80.1414
2996.89	76.052
2998.18	72.4698
2999.48	68.0807
3000.77	64.8896
3002.06	60.7585
3003.36	56.5162
3004.65	52.3732
3005.94	49.1383
3007.23	45.1387
3008.53	42.3589
3009.82	39.3164
3011.11	36.2179
3012.4	32.5541
3013.69	29.1534
3014.99	26.5989
3016.28	24.3087
3017.57	21.9446
3018.86	20.0281
3020.15	18.1435
3021.44	16.6045
3022.73	15.743
3024.02	14.0471
3025.31	13.1746
3026.6	12.5645
3027.89	11.21
3029.18	10.9826
3030.46	10.4229
3031.75	10.604
3033.04	10.8995
3034.33	10.1073
3035.62	10.6976
3036.9	10.8982
3038.19	10.9758
3039.48	11.239
3040.76	11.5421
3042.05	11.6071
3043.34	12.2862
3044.62	13.3241
3045.91	14.0784
3047.19	15.1843
3048.48	15.6794
3049.77	16.2833
3051.05	17.1436
3052.34	18.3695
3053.62	19.3031
3054.9	19.0825
3056.19	19.7009
3057.47	20.7382
3058.76	21.4119
3060.04	21.702
3061.32	22.0135
3062.61	22.1105
3063.89	22.0035
3065.17	22.3182
3066.45	21.7078
3067.74	21.2175
3069.02	21.0082
3070.3	20.8011
3071.58	19.577
3072.86	18.6706
3074.14	17.6253
3075.42	16.7326
3076.7	15.4717
3077.99	14.394
3079.26	13.4557
3080.54	12.7962
3081.82	11.4132
3083.1	10.3257
3084.38	9.77623
3085.66	9.18959
3086.94	8.58426
3088.22	8.16311
3089.5	7.65781
3090.78	7.07486
3092.05	6.25724
3093.33	5.67836
3094.61	4.7511
3095.89	4.64488
3097.16	3.57606
3098.44	2.57075
3099.72	2.71715
3100.99	1.98167
3102.27	1.16802
3103.54	0.932929
3104.82	1.31137
3106.1	1.15574
3107.37	1.35254
3108.65	1.74092
3109.92	2.10682
3111.2	2.51822
3112.47	2.75392
3113.74	3.04326
3115.02	3.58498
3116.29	4.02145
3117.56	4.35851
3118.84	4.43194
3120.11	5.23142
3121.38	5.75094
3122.66	6.31415
3123.93	6.76303
3125.2	7.28073
3126.47	7.76927
3127.74	8.04106
3129.01	8.60717
3130.29	8.57741
3131.56	9.0224
3132.83	9.51724
3134.1	9.47951
3135.37	9.35773
3136.64	9.60619
3137.91	10.0473
3139.18	10.2861
3140.45	10.6063
3141.72	11.0649
3142.99	11.5056
3144.26	11.9649
3145.52	12.4442
3146.79	12.4647
3148.06	11.8578
3149.33	11.9454
