#Acq. time (s)=	45
#Accumulations=	2
#Range (cm-¹)=	200...3150
#Windows=	2
#Auto scanning=	Off
#Autofocus=	Off
#Macrospot=	Off
#AutoExposure=	Off
#Spike filter=	Multiple accum.
#Delay time (s)=	0
#Binning=	1
#Readout mode=	Signal
#DeNoise=	Off
#ICS correction=	On
#Dark correction=	Off
#Inst. Process=	Off
#Detector Gain=	Best Dynamic Range
#Detector ADC=	20 kHz       
#Detector temperature (°C)=	-69.85
#Instrument=	LabRAM HR Evol
#Detector=	Synapse
#Objective=	x100
#Grating=	600 gr/mm
#ND Filter=	100%
#Laser (nm)=	532 
#Hole=	100.021
#Range=	Auto
#Laser Pol.=	No
#Raman. Pol.=	No
#Laser Pol. (°)=	-0.0007625
#Raman Pol. (°)=	89.9995
#Collection=	Microscope
#StageXY=	Marzhauser
#StageZ=	Marzhauser
#X (µm)=	2187.1
#Y (µm)=	1245
#Z (µm)=	443.15
#Full time(mm:ss)=	3:18
#Project=	
#Sample=	
#Site=	
#Title=	Thy_10_08_17_2x_45s_532 nm_x100_100%_600 gr_mm
#Remark=	
#Date=	05.07.2022 15:24
#Acquired=	05.07.2022 15:24:08
#Base:Fit=	10.08.2022 09:46:25
#Base:Sub=	10.08.2022 09:46:49
#Filter:Polynom=	16.08.2022 10:24:56
#AxisType[0]=Intens
#AxisUnit[0]=Cnt
#AxisType[1]=Spectr
#AxisUnit[1]=1/cm
200.43	6.90871
202.244	6.65494
204.059	7.46224
205.873	8.25502
207.688	8.54358
209.501	8.85268
211.314	9.42612
213.127	9.15092
214.941	9.21282
216.753	9.22118
218.564	10.0925
220.375	9.52099
222.186	9.66152
223.999	9.0405
225.809	8.3517
227.618	7.24372
229.428	6.43342
231.236	5.4765
233.045	5.64893
234.855	4.73315
236.663	4.90621
238.471	5.30149
240.278	4.64822
242.085	3.53262
243.891	3.34012
245.698	3.98191
247.503	3.8404
249.309	3.29083
251.116	2.61682
252.921	2.95074
254.725	1.89367
256.529	2.14234
258.333	2.87649
260.136	2.77442
261.939	2.26236
263.742	1.4524
265.544	1.95588
267.346	3.25093
269.148	3.81392
270.949	3.50859
272.75	3.22783
274.55	3.80887
276.351	3.58146
278.15	3.7161
279.95	4.84914
281.749	5.804
283.548	7.27417
285.346	8.04002
287.144	9.29292
288.942	9.46072
290.739	10.75
292.536	12.6409
294.333	13.2137
296.129	14.2737
297.925	14.7037
299.721	16.5599
301.514	18.2392
303.309	18.8746
305.104	21.0079
306.898	22.5855
308.692	23.9119
310.486	23.1122
312.279	24.9729
314.072	25.712
315.862	26.7563
317.654	28.0168
319.446	28.9322
321.238	29.8926
323.029	30.7604
324.819	30.9026
326.608	32.2148
328.398	32.4706
330.188	31.3995
331.977	32.743
333.766	33.208
335.553	33.5323
337.341	32.6937
339.129	32.737
340.917	32.9216
342.704	32.4386
344.489	31.7582
346.275	30.8632
348.062	29.6467
349.845	28.6271
351.631	27.0651
353.416	25.6938
355.201	24.5681
356.984	22.7867
358.768	21.2902
360.552	19.6857
362.333	18.9996
364.116	17.7127
365.899	17.1033
367.68	15.2664
369.462	13.2484
371.243	12.9789
373.023	12.6921
374.804	11.605
376.585	10.4871
378.363	9.82141
380.143	10.3593
381.923	9.34628
383.7	9.38116
385.479	9.9408
387.256	10.1541
389.034	10.9427
390.812	10.6116
392.588	10.5039
394.365	11.4152
396.14	11.2011
397.916	9.90065
399.691	9.63074
401.467	10.8091
403.24	11.0494
405.015	11.3937
406.788	11.6149
408.563	11.295
410.335	10.8837
412.109	11.0489
413.88	11.6145
415.654	11.5924
417.424	11.7741
419.197	12.3311
420.967	13.6545
422.739	12.9435
424.508	13.9799
426.279	14.3448
428.048	14.3822
429.819	14.1767
431.587	13.3919
433.356	13.0017
435.124	12.8743
436.891	13.1023
438.66	13.1228
440.426	12.5144
442.194	13.1815
443.96	13.0961
445.725	14.0656
447.492	14.2216
449.257	14.3063
451.021	15.0142
452.787	14.5625
454.551	14.8542
456.314	14.3004
458.079	16.0832
459.842	17.728
461.604	16.9604
463.368	16.9385
465.13	18.4749
466.891	19.3698
468.654	19.1464
470.415	18.7616
472.175	20.1245
473.935	21.3282
475.696	22.056
477.456	22.3965
479.215	23.3741
480.973	24.3982
482.733	24.6371
484.491	23.8944
486.249	24.0356
488.006	25.0448
489.765	25.7811
491.522	26.4397
493.278	26.3123
495.034	26.4393
496.789	26.6833
498.544	27.2964
500.301	27.8695
502.056	28.1072
503.81	27.5852
505.564	28.4971
507.317	28.9306
509.071	29.3559
510.825	28.8518
512.578	28.4752
514.33	28.1066
516.082	28.0389
517.833	28.3002
519.585	28.2007
521.335	28.5023
523.086	28.4902
524.836	28.566
526.586	28.5975
528.335	28.0932
530.085	27.6917
531.835	27.2329
533.584	27.4784
535.332	26.8408
537.08	26.6134
538.827	26.4437
540.574	25.9099
542.321	25.6674
544.068	25.503
545.814	25.5057
547.56	24.9856
549.305	23.4664
551.05	23.276
552.795	22.7583
554.54	21.3844
556.282	20.398
558.025	20.8188
559.769	21.787
561.512	21.4133
563.255	20.2801
564.997	19.3077
566.739	18.2979
568.481	17.2546
570.223	15.9676
571.964	14.3158
573.705	14.001
575.443	12.6886
577.183	11.8621
578.923	10.9301
580.663	10.9175
582.402	10.316
584.141	9.93417
585.879	9.82595
587.615	8.53544
589.353	7.87637
591.09	6.10833
592.828	5.94526
594.564	4.67476
596.299	4.09368
598.035	2.12855
599.771	1.27721
601.506	1.24347
603.242	1.9286
604.974	1.50471
606.709	1.77378
608.443	1.95649
610.177	1.70897
611.908	1.44019
613.642	2.05543
615.374	2.58981
617.105	3.68938
618.837	4.75363
620.569	5.45512
622.3	6.1332
624.03	6.8153
625.761	7.34548
627.491	8.71838
629.219	8.96801
630.949	9.4953
632.677	9.63848
634.406	11.0404
636.135	11.4896
637.861	12.8348
639.59	12.3195
641.318	13.1681
643.043	13.6634
644.77	15.0528
646.495	16.6848
648.222	16.7582
649.948	18.1465
651.672	19.0144
653.398	19.914
655.121	20.3387
656.846	20.7855
658.569	20.7052
660.293	22.3852
662.015	23.1096
663.738	24.5614
665.46	25.8154
667.183	26.7083
668.903	27.1245
670.626	27.829
672.346	27.515
674.067	27.5701
675.787	27.3747
677.508	27.2026
679.226	28.8093
680.947	28.9779
682.665	29.968
684.385	29.788
686.102	31.0606
687.821	31.7058
689.538	32.6308
691.254	32.3366
692.972	33.2184
694.688	34.1691
696.406	35.7781
698.121	35.2889
699.835	36.8577
701.552	37.541
703.266	37.6223
704.98	37.7383
706.695	37.5647
708.409	35.7681
710.121	36.5007
711.836	37.7602
713.548	40.0846
715.26	41.4824
716.973	43.6792
718.685	44.7636
720.396	46.5479
722.108	46.9756
723.818	48.4431
725.528	49.2621
727.238	51.6607
728.949	52.8182
730.658	54.403
732.367	55.6292
734.075	56.3134
735.785	58.5296
737.493	58.6127
739.2	58.8105
740.907	58.8226
742.614	59.3525
744.322	59.8317
746.028	60.8727
747.734	61.5151
749.439	62.4819
751.144	62.7056
752.849	63.2315
754.555	63.9359
756.26	64.1454
757.963	64.8738
759.667	66.7104
761.37	67.7122
763.073	68.4883
764.775	68.7127
766.477	68.9206
768.179	69.1452
769.883	69.2713
771.584	69.7196
773.285	69.6539
774.986	69.7527
776.686	68.9433
778.386	69.5534
780.085	69.1826
781.785	69.6691
783.484	68.283
785.182	69.8213
786.881	70.1774
788.579	70.419
790.276	72.0043
791.974	71.8989
793.671	73.1616
795.367	76.1821
797.064	77.3111
798.76	77.1872
800.456	77.4186
802.151	77.1703
803.846	77.7567
805.541	77.3706
807.234	78.2121
808.928	78.5174
810.622	78.0981
812.315	78.3363
814.008	79.3693
815.701	79.3358
817.394	80.1694
819.086	81.0434
820.778	81.8972
822.468	81.451
824.159	81.4213
825.85	80.8485
827.541	79.88
829.231	80.2568
830.921	80.628
832.609	80.3826
834.298	80.7113
835.987	79.5063
837.676	79.1285
839.364	78.8783
841.051	78.2272
842.738	78.2548
844.426	77.5778
846.113	76.0095
847.798	72.9618
849.484	71.0446
851.171	71.0328
852.857	68.7345
854.54	67.1932
856.226	65.5316
857.911	63.7466
859.593	61.8607
861.278	61.122
862.961	60.8715
864.645	58.9175
866.327	58.144
868.01	56.9098
869.692	55.5978
871.373	54.2996
873.055	52.977
874.735	51.7242
876.416	49.6321
878.097	49.1167
879.776	46.921
881.457	45.9258
883.135	45.2412
884.815	45.3297
886.495	45.2704
888.172	45.2384
889.851	44.3638
891.528	44.7355
893.206	44.7543
894.882	44.991
896.56	45.5121
898.237	45.4726
899.912	45.6943
901.589	46.9384
903.263	47.4097
904.94	47.8135
906.614	46.7833
908.289	46.9856
909.962	46.5536
911.635	47.3799
913.31	48.7458
914.982	48.8756
916.656	49.0828
918.328	50.0192
920.001	49.0806
921.672	50.0848
923.345	50.9254
925.015	51.1265
926.685	51.2812
928.357	50.2195
930.026	49.6649
931.698	48.9647
933.366	49.4556
935.035	49.2458
936.705	47.7378
938.373	47.4749
940.041	47.1036
941.71	46.2165
943.377	45.1802
945.044	45.1138
946.712	44.0776
948.378	43.258
950.044	42.7203
951.709	42.4074
953.376	41.7034
955.041	41.1712
956.706	39.94
958.372	37.9817
960.036	35.9394
961.699	33.1785
963.362	32.0387
965.027	33.0082
966.69	33.7782
968.352	33.4125
970.014	33.5613
971.676	33.6212
973.339	33.2926
975	34.9433
976.661	37.0361
978.322	37.5339
979.982	38.9113
981.642	39.8691
983.303	41.3122
984.962	42.0352
986.621	41.0732
988.28	41.1897
989.938	40.6932
991.596	40.4229
993.254	40.5159
994.911	41.4586
996.57	41.0492
998.227	40.5802
999.884	40.2625
1001.54	39.7657
1003.2	39.4013
1004.85	39.9821
1006.51	39.9398
1008.16	39.2451
1009.82	37.8785
1011.47	36.8883
1013.12	36.2611
1014.78	34.7585
1016.43	34.9269
1018.08	33.8123
1019.74	32.9537
1021.39	31.7942
1023.04	30.2049
1024.69	29.2572
1026.34	28.1688
1028	26.9429
1029.65	25.1362
1031.3	23.6313
1032.95	21.1095
1034.6	20.2015
1036.25	17.3595
1037.9	15.3381
1039.54	14.7036
1041.19	12.9656
1042.84	12.4811
1044.49	13.3487
1046.14	16.2118
1047.78	17.2613
1049.43	17.5687
1051.08	16.8472
1052.72	17.3591
1054.37	17.8725
1056.02	17.9019
1057.66	19.2599
1059.31	18.5111
1060.95	17.6962
1062.6	18.9443
1064.24	18.0143
1065.88	18.6515
1067.53	17.8978
1069.17	16.492
1070.81	16.9834
1072.45	16.7934
1074.1	16.9822
1075.74	17.8565
1077.38	17.3796
1079.02	17.1986
1080.66	17.6247
1082.3	18.3624
1083.94	18.1261
1085.58	18.5642
1087.22	17.564
1088.86	16.9463
1090.5	16.1982
1092.14	15.8277
1093.78	16.8519
1095.42	16.5208
1097.05	16.7128
1098.69	18.2868
1100.33	17.6763
1101.96	17.8686
1103.6	18.2267
1105.24	18.7394
1106.87	17.8487
1108.51	16.8494
1110.14	16.3103
1111.78	14.9892
1113.41	14.6053
1115.05	14.6563
1116.68	14.6816
1118.31	13.5014
1119.95	13.7864
1121.58	13.1308
1123.21	11.726
1124.85	11.85
1126.48	12.1378
1128.11	10.8246
1129.74	10.1018
1131.37	8.96184
1133	8.29526
1134.63	8.25891
1136.26	8.00493
1137.89	7.73305
1139.52	8.46639
1141.15	9.50529
1142.78	10.693
1144.41	11.1725
1146.04	10.1022
1147.66	10.1014
1149.29	8.68801
1150.92	7.45157
1152.55	8.08869
1154.17	8.16079
1155.8	8.12672
1157.43	7.89963
1159.05	7.46859
1160.68	7.89323
1162.3	7.05293
1163.93	7.06084
1165.55	6.33203
1167.17	6.60952
1168.8	6.03987
1170.42	7.11848
1172.05	8.13755
1173.67	9.26354
1175.29	9.88145
1176.91	10.5216
1178.54	11.389
1180.16	11.6456
1181.78	11.5551
1183.4	11.9094
1185.02	11.5957
1186.64	11.5136
1188.26	11.1127
1189.88	12.6083
1191.5	13.4498
1193.12	13.0809
1194.74	14.6452
1196.36	15.6931
1197.97	16.0404
1199.59	16.9892
1201.21	18.5406
1202.83	20.3676
1204.44	22.3709
1206.06	24.2651
1207.68	26.5671
1209.29	28.4656
1210.91	31.2579
1212.52	32.6052
1214.14	34.2636
1215.75	37.1436
1217.37	39.837
1218.98	42.6575
1220.59	45.8747
1222.21	48.4873
1223.82	49.8975
1225.43	52.0057
1227.05	53.736
1228.66	55.4087
1230.27	56.9794
1231.88	58.3435
1233.49	60.8932
1235.1	62.39
1236.72	63.886
1238.33	64.0679
1239.94	65.6308
1241.55	66.7136
1243.16	66.6397
1244.76	68.1681
1246.37	68.3796
1247.98	68.8278
1249.59	68.6734
1251.2	68.6568
1252.8	68.4504
1254.41	68.646
1256.02	68.0152
1257.62	67.3005
1259.23	66.1695
1260.84	65.3282
1262.44	65.7271
1264.05	65.6533
1265.66	65.3568
1267.26	65.5839
1268.86	65.9394
1270.47	65.934
1272.07	65.7568
1273.67	66.1651
1275.28	68.356
1276.88	69.2272
1278.48	69.9179
1280.09	71.5569
1281.69	73.2944
1283.29	74.3366
1284.89	75.4399
1286.49	77.236
1288.09	78.8829
1289.69	78.91
1291.29	79.5425
1292.89	81.4972
1294.49	83.305
1296.09	87.168
1297.69	88.1609
1299.29	89.3565
1300.89	90.9399
1302.49	92.3931
1304.08	93.687
1305.68	95.2156
1307.28	96.5841
1308.88	98.112
1310.47	98.5641
1312.07	99.9631
1313.66	101.698
1315.26	102.801
1316.85	102.862
1318.45	102.77
1320.04	104.742
1321.64	104.226
1323.23	104.459
1324.83	105.288
1326.42	104.811
1328.01	103.891
1329.61	103.155
1331.2	102.659
1332.79	101.796
1334.38	101.326
1335.97	99.6465
1337.56	98.597
1339.16	98.253
1340.75	97.2593
1342.34	96.3989
1343.93	94.7633
1345.52	92.9462
1347.11	90.8637
1348.7	90.1636
1350.29	88.5323
1351.87	87.7867
1353.46	86.575
1355.05	85.0695
1356.64	82.4462
1358.22	81.7909
1359.81	80.7126
1361.4	79.0639
1362.98	76.8462
1364.57	74.7586
1366.16	73.1681
1367.74	70.5805
1369.33	68.2848
1370.91	66.9922
1372.5	65.9221
1374.08	64.7379
1375.67	64.054
1377.25	61.7367
1378.83	60.1854
1380.41	59.1312
1382	58.4592
1383.58	57.1032
1385.16	55.9417
1386.74	55.7595
1388.33	54.1401
1389.91	53.6932
1391.49	53.8608
1393.07	54.1141
1394.65	52.7363
1396.23	51.7365
1397.81	51.4237
1399.39	50.52
1400.97	49.5525
1402.55	49.0228
1404.13	49.6638
1405.7	48.9925
1407.28	49.1059
1408.86	50.3075
1410.44	51.0379
1412.01	51.563
1413.59	53.5115
1415.17	54.8662
1416.74	57.7454
1418.32	60.1572
1419.89	62.0939
1421.47	63.5536
1423.04	66.5993
1424.62	69.817
1426.19	73.7981
1427.77	78.3582
1429.34	81.8651
1430.91	85.7076
1432.49	88.0032
1434.06	91.6142
1435.63	94.6557
1437.2	98.0055
1438.78	100.196
1440.35	101.588
1441.92	104.061
1443.49	105.878
1445.06	108.596
1446.63	109.61
1448.2	110.667
1449.77	110.924
1451.34	110.925
1452.91	110.717
1454.48	109.136
1456.05	107.178
1457.62	104.942
1459.18	104.046
1460.75	102.538
1462.32	100.406
1463.89	98.648
1465.45	96.2522
1467.02	93.2856
1468.59	90.4365
1470.15	85.9107
1471.72	81.3588
1473.28	76.2481
1474.85	72.4422
1476.41	68.2285
1477.98	63.5886
1479.54	60.4538
1481.1	57.0639
1482.67	54.512
1484.23	50.5413
1485.79	47.4079
1487.36	44.2799
1488.92	41.507
1490.48	39.1342
1492.04	37.0793
1493.61	34.3559
1495.17	32.5094
1496.73	30.4469
1498.29	28.7125
1499.85	27.9621
1501.41	27.2924
1502.97	26.5688
1504.53	26.4974
1506.09	25.9477
1507.65	24.8335
1509.2	23.8384
1510.76	23.5995
1512.32	24.0538
1513.88	23.7946
1515.43	23.4366
1516.99	23.288
1518.55	24.103
1520.1	26.3485
1521.66	25.8139
1523.22	26.8817
1524.77	26.8586
1526.33	27.0012
1527.88	27.6342
1529.44	28.4913
1530.99	30.812
1532.54	32.3499
1534.1	34.5186
1535.65	36.9724
1537.21	39.3993
1538.76	41.2822
1540.31	43.1773
1541.86	45.2232
1543.42	46.8391
1544.97	49.1886
1546.52	50.6264
1548.07	52.6648
1549.62	55.8714
1551.17	59.2417
1552.72	62.1577
1554.27	64.6305
1555.82	68.0224
1557.37	71.0912
1558.92	73.413
1560.47	76.194
1562.02	78.0865
1563.56	80.4932
1565.11	83.6671
1566.66	86.0455
1568.21	88.0604
1569.75	89.782
1571.3	91.7089
1572.85	94.0057
1574.39	96.1696
1575.94	98.064
1577.49	100.593
1579.03	102.426
1580.57	104.734
1582.12	105.682
1583.66	106.545
1585.21	106.285
1586.75	106.817
1588.3	107.522
1589.84	106.429
1591.38	106.659
1592.92	106.175
1594.47	106.603
1596.01	106.583
1597.55	105.439
1599.09	103.855
1600.63	103.484
1602.17	102.358
1603.71	100.567
1605.25	99.7927
1606.79	98.5052
1608.33	97.9656
1609.87	96.1302
1611.41	94.8187
1612.95	93.5041
1614.49	91.044
1616.03	90.029
1617.57	88.5113
1619.1	88.2509
1620.64	87.4454
1622.18	86.3663
1623.72	85.6391
1625.25	85.4791
1626.79	85.0878
1628.32	84.5148
1629.86	84.6849
1631.39	84.8365
1632.93	85.5641
1634.46	85.646
1636	86.4512
1637.53	87.307
1639.07	88.4551
1640.6	89.5839
1642.13	91.3091
1643.67	92.3785
1645.2	93.6794
1646.73	95.0328
1648.26	97.004
1649.8	98.6278
1651.33	100.75
1652.86	101.83
1654.39	102.612
1655.92	101.878
1657.45	101.352
1658.98	101.121
1660.51	100.988
1662.04	100.042
1663.57	100.199
1665.1	100.249
1666.63	99.5719
1668.16	99.921
1669.68	98.3788
1671.21	97.5518
1672.74	95.1418
1674.27	93.6427
1675.79	91.1128
1677.32	88.5612
1678.85	85.412
1680.37	82.3042
1681.9	79.9271
1683.42	76.5135
1684.95	73.273
1686.47	69.3934
1688	65.8966
1689.52	62.4815
1691.05	58.5724
1692.57	55.9109
1694.09	52.3481
1695.62	49.6857
1697.14	45.812
1698.66	42.4659
1700.18	39.376
1701.71	36.2815
1703.23	33.6669
1704.75	31.5614
1706.27	29.54
1707.79	26.6181
1709.31	24.4112
1710.83	22.4201
1712.35	20.3708
1713.87	18.8137
1715.39	17.4738
1716.91	16.0151
1718.43	15.0653
1719.95	13.2166
1721.47	11.9082
1722.99	10.6488
1724.5	9.34563
1726.02	7.59498
1727.54	6.58462
1729.06	5.04345
1730.57	3.36139
1732.09	2.63717
1733.61	3.20419
1735.12	3.24365
1736.64	3.15092
1738.15	2.9388
1739.67	3.1276
1741.18	2.97646
1742.7	2.91147
1744.21	2.44403
1745.72	1.49503
1747.24	1.19595
1748.75	0.660677
1750.26	0.352104
1751.77	-0.439656
1753.29	-0.323154
1754.8	-0.449552
1756.31	-0.283551
1757.82	-0.421872
1759.33	-0.706328
1760.84	-0.631063
1762.36	-0.426996
1763.87	-0.231818
1765.38	0.507235
1766.89	0.597746
1768.4	0.787273
1769.91	1.03672
1771.41	1.41193
1772.92	1.42971
1774.43	2.04391
1775.94	2.23304
1777.45	2.77131
1778.95	2.30477
1780.46	1.72051
1781.97	1.48589
1783.48	1.20145
1784.98	2.40415
1786.49	2.58503
1787.99	2.1456
1789.5	2.24515
1791.01	2.31756
1792.51	2.64089
1794.01	2.56022
1795.52	2.82767
1797.02	2.80532
1798.53	2.47732
1800.03	2.1536
1801.53	2.03414
1803.04	2.22506
1804.54	1.75551
1806.04	1.16869
1807.54	1.63892
1809.05	2.04035
1810.55	1.64662
1812.05	1.46665
1813.55	1.2506
1815.05	1.94193
1816.55	2.29664
1818.05	2.17916
1819.55	1.47029
1821.05	1.29213
1822.55	1.73443
1824.05	2.05784
1825.55	1.88054
1827.05	1.94927
1828.55	1.29249
1830.04	1.05199
1831.54	0.762416
1833.04	0.544435
1834.54	0.489479
1836.03	0.509019
1837.53	0.713526
1839.03	0.770781
1840.52	0.86301
1842.02	0.212765
1843.51	-0.298324
1845.01	-0.475358
1846.5	-0.661407
1848	-0.259626
1849.49	-0.363126
1850.99	-0.567986
1852.48	-0.934889
1853.97	-1.6332
1855.47	-0.963181
1856.96	-0.430704
1858.45	-0.266187
1859.94	-0.0911199
1861.44	-0.506127
1862.93	-0.685025
1864.42	-0.0646107
1865.91	0.348965
1867.4	0.839597
1868.89	0.568374
1870.38	0.719456
1871.87	0.49842
1873.36	0.201187
1874.85	0.45246
1876.34	0.406047
1877.83	0.382248
1879.32	0.634705
1880.81	1.02757
1882.3	0.93724
1882.57	0.919883
1884.07	-0.0781626
1885.56	0.592742
1887.06	0.879954
1888.55	1.84333
1890.04	1.5038
1891.54	1.54276
1893.03	2.12946
1894.52	2.46113
1896.02	2.63851
1897.51	2.04653
1899	1.15933
1900.49	0.776889
1901.98	0.563814
1903.47	1.04633
1904.96	1.59801
1906.45	2.3521
1907.94	3.10565
1909.43	3.13401
1910.92	2.90224
1912.41	2.91294
1913.9	3.29938
1915.39	3.07433
1916.88	3.22414
1918.37	4.1889
1919.85	4.69627
1921.34	5.3297
1922.83	4.90557
1924.32	5.38875
1925.8	5.63529
1927.29	5.70213
1928.78	5.86755
1930.26	5.78685
1931.75	6.25409
1933.23	6.79205
1934.72	7.24575
1936.2	7.34665
1937.69	8.05381
1939.17	9.05351
1940.66	9.09542
1942.14	9.03898
1943.63	9.5322
1945.11	9.11076
1946.59	9.50459
1948.07	9.75043
1949.56	10.0305
1951.04	9.5929
1952.52	9.72
1954	9.55281
1955.48	8.94384
1956.96	9.75837
1958.45	9.5496
1959.93	10.165
1961.41	9.9934
1962.89	10.1344
1964.37	9.92551
1965.85	10.1965
1967.32	9.85376
1968.8	8.91374
1970.28	8.69441
1971.76	9.42346
1973.24	9.83629
1974.72	9.96164
1976.19	9.44096
1977.67	9.79577
1979.15	9.57609
1980.63	9.32919
1982.1	9.10151
1983.58	8.42642
1985.05	7.87842
1986.53	7.45833
1988	7.49756
1989.48	6.8546
1990.95	6.92489
1992.43	6.77748
1993.9	6.04157
1995.38	5.64662
1996.85	5.64452
1998.32	5.76312
1999.8	5.29508
2001.27	5.15666
2002.74	4.85792
2004.22	5.47647
2005.69	5.34403
2007.16	4.85457
2008.63	4.55541
2010.1	5.33287
2011.57	5.56592
2013.04	5.60306
2014.51	4.651
2015.98	5.12312
2017.45	5.42517
2018.92	5.70459
2020.39	6.33215
2021.86	6.54032
2023.33	6.87927
2024.8	6.58463
2026.27	7.04698
2027.74	7.77255
2029.2	7.71386
2030.67	8.24
2032.14	7.82612
2033.61	8.32264
2035.07	9.07598
2036.54	9.88196
2038.01	10.6998
2039.47	10.6143
2040.94	10.9762
2042.4	11.6296
2043.87	12.8212
2045.33	13.2299
2046.8	12.4964
2048.26	12.2767
2049.72	12.9823
2051.19	13.648
2052.65	14.3867
2054.12	14.5476
2055.58	15.0486
2057.04	15.0382
2058.5	14.8766
2059.97	15.6811
2061.43	16.1581
2062.89	15.6916
2064.35	15.7923
2065.81	15.5839
2067.27	15.3643
2068.73	15.4599
2070.19	15.0969
2071.65	14.5871
2073.11	14.3922
2074.57	14.3883
2076.03	14.4487
2077.49	14.6361
2078.95	14.4303
2080.41	15.2185
2081.87	15.5629
2083.32	16.1769
2084.78	15.9332
2086.24	16.0807
2087.7	16.2809
2089.15	16.4445
2090.61	16.6522
2092.07	17.0161
2093.52	16.8682
2094.98	17.0416
2096.43	17.2296
2097.89	17.4202
2099.34	17.459
2100.8	18.0352
2102.25	17.5907
2103.71	18.0232
2105.16	18.4235
2106.61	19.384
2108.07	20.6213
2109.52	21.8379
2110.97	22.3201
2112.43	22.4562
2113.88	23.4666
2115.33	23.6942
2116.78	23.8526
2118.23	24.1712
2119.68	24.45
2121.13	25.2814
2122.59	25.5614
2124.04	25.6366
2125.49	26.194
2126.94	25.9905
2128.39	26.9227
2129.83	26.7499
2131.28	26.6181
2132.73	27.073
2134.18	26.7924
2135.63	27.6087
2137.08	28.2568
2138.53	28.2241
2139.97	29.082
2141.42	29.7052
2142.87	30.2762
2144.31	30.9227
2145.76	32.0227
2147.21	32.892
2148.65	34.3404
2150.1	34.4398
2151.54	35.6502
2152.99	36.0113
2154.43	36.234
2155.88	36.8551
2157.32	37.3004
2158.77	37.8327
2160.21	38.9186
2161.65	39.6861
2163.1	40.8118
2164.54	41.3148
2165.98	41.2736
2167.43	42.3214
2168.87	42.2442
2170.31	42.8355
2171.75	43.5926
2173.19	44.7063
2174.64	45.3005
2176.07	46.104
2177.52	47.1177
2178.96	48.3398
2180.4	48.118
2181.84	47.9727
2183.28	47.5826
2184.72	46.9112
2186.15	46.5004
2187.59	45.2082
2189.03	44.9423
2190.47	44.4843
2191.91	43.9331
2193.35	43.7213
2194.78	43.2087
2196.22	42.9279
2197.66	42.2308
2199.09	41.3834
2200.53	40.8605
2201.97	39.298
2203.4	37.959
2204.84	37.5882
2206.27	36.655
2207.71	36.1024
2209.14	35.0576
2210.58	33.8126
2212.01	33.9535
2213.45	32.3646
2214.88	31.66
2216.31	30.3181
2217.75	29.8599
2219.18	28.8357
2220.61	27.676
2222.05	25.9389
2223.48	25.2012
2224.91	24.0798
2226.34	23.6115
2227.78	22.5511
2229.21	22.4287
2230.64	21.8653
2232.07	20.9311
2233.5	19.4058
2234.93	18.693
2236.36	17.8727
2237.79	17.5834
2239.22	17.2801
2240.65	16.4775
2242.08	17.288
2243.5	16.8916
2244.93	16.7151
2246.36	16.5495
2247.79	16.5952
2249.22	16.7995
2250.64	16.8543
2252.07	16.2118
2253.5	15.9464
2254.92	15.6174
2256.35	15.4558
2257.78	16.246
2259.2	16.6365
2260.63	17.1778
2262.05	17.5105
2263.48	17.7304
2264.9	17.8817
2266.33	17.5401
2267.75	17.4006
2269.18	17.3505
2270.6	17.2653
2272.02	17.6484
2273.45	17.3264
2274.87	17.331
2276.29	17.5652
2277.71	17.4892
2279.14	17.7526
2280.56	18.0532
2281.98	18.1519
2283.4	18.1674
2284.82	17.3874
2286.24	17.3543
2287.66	16.4206
2289.08	16.424
2290.5	15.7687
2291.92	14.8313
2293.34	14.4236
2294.76	13.8998
2296.18	14.3431
2297.6	13.911
2299.02	13.9989
2300.44	13.9766
2301.86	13.5063
2303.27	13.675
2304.69	13.6739
2306.11	13.6752
2307.53	13.6305
2308.94	13.5282
2310.36	13.1693
2311.78	13.3691
2313.19	13.416
2314.61	13.1027
2316.02	13.4259
2317.44	13.6747
2318.85	13.4834
2320.27	13.5649
2321.68	13.8468
2323.1	13.2172
2324.51	13.339
2325.92	13.4508
2327.34	13.3918
2328.75	12.4961
2330.16	11.3771
2331.58	10.965
2332.99	10.9296
2334.4	10.2635
2335.81	10.4744
2337.23	9.89632
2338.64	10.0319
2340.05	9.86145
2341.46	9.95171
2342.87	9.89667
2344.28	9.25497
2345.69	8.95545
2347.1	8.82657
2348.51	8.44568
2349.92	7.85671
2351.33	7.29114
2352.74	6.87043
2354.15	6.01866
2355.55	6.43508
2356.96	6.22764
2358.37	5.82361
2359.78	5.84711
2361.19	5.26594
2362.59	5.55538
2364	6.01086
2365.41	6.82896
2366.81	6.97164
2368.22	6.76064
2369.62	6.94204
2371.03	7.03178
2372.44	6.8041
2373.84	6.71291
2375.24	6.78274
2376.65	6.64744
2378.05	6.42241
2379.46	5.9794
2380.86	5.90629
2382.26	6.08004
2383.67	5.54206
2385.07	5.603
2386.47	5.74333
2387.88	5.94995
2389.28	5.9605
2390.68	6.30726
2392.08	6.33846
2393.48	5.8418
2394.89	6.06459
2396.29	5.57603
2397.69	5.22814
2399.09	5.01126
2400.49	5.69212
2401.89	5.91285
2403.29	5.92068
2404.69	5.70313
2406.09	6.38121
2407.48	6.1056
2408.88	7.21307
2410.28	8.04953
2411.68	8.13318
2413.08	8.02373
2414.48	7.32946
2415.87	7.36545
2417.27	7.58068
2418.67	7.32168
2420.06	7.67207
2421.46	7.58878
2422.86	8.27097
2424.25	8.6013
2425.65	8.9651
2427.04	7.973
2428.44	6.97526
2429.83	6.89604
2431.23	7.50483
2432.62	7.75992
2434.02	6.88342
2435.41	6.50319
2436.81	6.19508
2438.2	6.36345
2439.59	6.30678
2440.99	6.09849
2442.38	5.43786
2443.77	5.76276
2445.16	5.73059
2446.56	4.8339
2447.95	4.32584
2449.34	4.62866
2450.73	4.58978
2452.12	4.31536
2453.51	3.99464
2454.9	4.69491
2456.29	5.24517
2457.68	5.95551
2459.07	6.00071
2460.46	5.93441
2461.85	5.69503
2463.24	5.4446
2464.63	5.51134
2466.02	5.62127
2467.4	5.15677
2468.79	5.06916
2470.18	5.05807
2471.57	5.12548
2472.95	4.977
2474.34	5.15928
2475.73	5.34641
2477.12	5.07849
2478.5	5.68205
2479.89	4.62492
2481.27	4.09407
2482.66	4.0162
2484.04	3.38295
2485.43	3.39025
2486.81	3.16845
2488.2	2.81312
2489.58	2.72661
2490.97	2.93257
2492.35	3.00505
2493.73	2.20231
2495.12	1.84392
2496.5	1.38552
2497.88	1.67126
2499.27	1.82095
2500.65	1.46999
2502.03	0.537509
2503.41	0.172871
2504.79	0.276996
2506.17	0.401895
2507.56	0.144487
2508.94	0.478714
2510.32	0.624382
2511.7	0.711657
2513.08	0.97212
2514.46	0.808688
2515.84	1.10339
2517.22	1.42509
2518.59	2.39786
2519.97	2.8767
2521.35	3.21528
2522.73	4.32137
2524.11	4.96182
2525.49	5.37998
2526.86	5.7575
2528.24	5.9022
2529.62	6.02105
2530.99	6.18141
2532.37	6.22178
2533.75	6.78838
2535.12	7.42828
2536.5	7.82868
2537.88	8.36285
2539.25	8.24931
2540.63	7.56208
2542	7.40754
2543.38	7.61089
2544.75	7.55651
2546.12	7.33872
2547.5	6.64036
2548.87	5.94403
2550.24	5.63845
2551.62	5.13602
2552.99	4.67356
2554.36	4.51525
2555.74	4.30472
2557.11	4.56203
2558.48	4.01844
2559.85	3.92689
2561.22	3.68364
2562.59	3.60363
2563.96	3.75265
2565.34	3.77951
2566.71	3.31074
2568.08	2.12839
2569.45	1.98702
2570.82	1.68075
2572.18	1.91614
2573.55	1.88284
2574.92	2.01602
2576.29	2.19813
2577.66	2.48088
2579.03	2.45696
2580.4	2.15741
2581.77	2.7603
2583.13	1.93067
2584.5	2.11853
2585.87	1.82565
2587.23	2.10346
2588.6	1.87337
2589.97	1.70284
2591.33	1.40246
2592.7	1.47785
2594.06	1.61968
2595.43	1.64781
2596.79	1.03505
2598.16	0.95543
2599.52	0.750048
2600.89	1.23619
2602.25	1.09019
2603.62	0.729807
2604.98	0.466361
2606.34	-0.0406265
2607.71	-0.806394
2609.07	-0.696845
2610.43	-0.360211
2611.79	-0.565555
2613.16	-0.742635
2614.52	-1.47973
2615.88	-1.52556
2617.24	-0.960317
2618.6	-0.685961
2619.96	-0.149206
2621.32	0.195908
2622.68	1.09225
2624.04	1.12755
2625.4	1.69224
2626.76	1.83501
2628.12	2.58041
2629.48	3.48269
2630.84	3.62681
2632.2	3.75912
2633.56	4.10219
2634.92	3.8955
2636.28	4.61421
2637.63	5.56493
2638.99	5.78334
2640.35	6.20825
2641.71	6.77053
2643.06	6.79916
2644.42	6.74591
2645.77	6.73634
2647.13	6.83528
2648.49	6.55097
2649.84	6.45116
2651.2	5.61488
2652.55	6.19398
2653.91	6.15301
2655.26	6.6591
2656.62	6.35696
2657.97	6.46598
2659.33	5.93251
2660.68	6.18327
2662.03	5.61366
2663.39	5.48744
2664.74	5.54129
2666.09	6.41635
2667.44	6.2557
2668.8	6.36786
2670.15	6.37916
2671.5	6.63762
2672.85	6.98605
2674.2	6.84803
2675.55	6.50365
2676.91	6.4414
2678.26	6.30207
2679.61	5.93625
2680.96	5.76482
2682.31	5.71209
2683.66	5.9348
2685	5.7815
2686.35	5.88692
2687.7	5.75243
2689.05	5.67018
2690.4	6.0652
2691.75	5.30261
2693.1	5.20945
2694.44	5.68443
2695.79	6.00916
2697.14	6.47549
2698.49	6.37303
2699.83	6.65776
2701.18	7.46532
2702.52	7.75551
2703.87	8.44406
2705.22	8.32093
2706.56	8.75936
2707.91	9.55965
2709.25	10.3873
2710.6	10.3983
2711.94	11.1182
2713.29	12.4286
2714.63	13.047
2715.97	13.0508
2717.32	13.3042
2718.66	13.79
2720.01	14.0537
2721.35	14.5893
2722.69	15.4566
2724.03	16.1257
2725.38	17.149
2726.72	17.6558
2728.06	18.6176
2729.4	19.343
2730.74	20.2175
2732.08	21.0075
2733.42	21.087
2734.76	20.7064
2736.1	20.8274
2737.44	20.5284
2738.78	19.7071
2740.12	19.3757
2741.46	18.7169
2742.8	18.4686
2744.14	18.0412
2745.48	18.1075
2746.82	17.1931
2748.16	17.6667
2749.49	17.3742
2750.83	17.0144
2752.17	17.1478
2753.51	17.1409
2754.84	16.7174
2756.18	16.8256
2757.52	16.9853
2758.85	16.21
2760.19	15.844
2761.53	15.7907
2762.86	15.3689
2764.2	15.1928
2765.53	14.6567
2766.87	15.0086
2768.2	13.82
2769.54	13.9437
2770.87	13.7464
2772.2	13.4471
2773.54	13.5108
2774.87	12.7672
2776.2	12.0155
2777.54	11.3705
2778.87	11.3793
2780.2	11.2209
2781.53	10.8341
2782.87	10.4101
2784.2	10.2438
2785.53	10.2084
2786.86	10.3352
2788.19	10.9192
2789.52	11.278
2790.85	11.2732
2792.18	11.2463
2793.51	11.1042
2794.84	11.0506
2796.17	10.8274
2797.5	10.8896
2798.83	10.7164
2800.16	10.6777
2801.49	10.9565
2802.82	11.0684
2804.15	10.6068
2805.47	10.8057
2806.8	10.7712
2808.13	11.5213
2809.46	11.778
2810.78	12.0534
2812.11	12.9368
2813.44	12.9968
2814.76	14.4625
2816.09	15.5834
2817.42	16.6773
2818.74	17.8839
2820.07	19.5208
2821.39	21.2324
2822.72	23.5216
2824.04	24.6712
2825.37	26.3219
2826.69	28.6771
2828.02	31.0015
2829.34	33.4744
2830.66	36.5161
2831.99	39.8462
2833.31	43.0472
2834.63	45.5246
2835.96	49.4065
2837.28	52.1749
2838.6	55.8409
2839.92	59.6294
2841.24	63.4839
2842.57	68.0984
2843.89	72.2082
2845.21	77.4465
2846.53	83.5711
2847.85	88.7977
2849.17	93.8582
2850.49	99.5196
2851.81	105.534
2853.13	112.204
2854.45	118.56
2855.77	124.716
2857.09	130.678
2858.41	136.464
2859.72	142.345
2861.04	148.603
2862.36	153.739
2863.68	159.653
2865	164.884
2866.31	169.881
2867.63	175.085
2868.95	179.566
2870.26	183.317
2871.58	187.066
2872.9	190.444
2874.21	194.931
2875.53	197.391
2876.84	200.472
2878.16	203.573
2879.47	206.435
2880.79	209.546
2882.1	211.997
2883.42	214.413
2884.73	217.176
2886.05	219.903
2887.36	222.756
2888.67	225.066
2889.99	226.84
2891.3	229.375
2892.61	232.812
2893.92	235.09
2895.24	238.219
2896.55	241.368
2897.86	244.495
2899.17	247.245
2900.48	250.315
2901.79	254.117
2903.11	259.266
2904.42	264.497
2905.73	269.663
2907.04	275.721
2908.35	281.879
2909.66	288.228
2910.97	295.87
2912.27	303.179
2913.58	309.728
2914.89	317.157
2916.2	323.167
2917.51	329.804
2918.82	336.673
2920.13	342.233
2921.43	346.937
2922.74	351.125
2924.05	355.076
2925.35	359.227
2926.66	362.208
2927.97	363.493
2929.27	366.236
2930.58	367.275
2931.89	367.402
2933.19	366.869
2934.5	365.273
2935.8	363.246
2937.11	360.997
2938.41	358.397
2939.72	355.592
2941.02	351.64
2942.32	348.21
2943.63	344.022
2944.93	338.929
2946.24	333.672
2947.54	328.682
2948.84	322.665
2950.14	316.351
2951.45	309.678
2952.75	304.033
2954.05	296.959
2955.35	290.76
2956.65	285.203
2957.95	279.262
2959.26	272.126
2960.56	265.469
2961.86	258.893
2963.16	252.731
2964.46	247.032
2965.76	242.246
2967.06	237.673
2968.36	232.332
2969.66	227.224
2970.96	222.595
2972.25	218.052
2973.55	213.364
2974.85	208.719
2976.15	203.852
2977.45	198.918
2978.74	194.364
2980.04	188.887
2981.34	182.691
2982.64	177.936
2983.93	172.833
2985.23	166.393
2986.52	160.035
2987.82	154.436
2989.12	149.067
2990.41	143.549
2991.71	137.678
2993	132.304
2994.3	127.636
2995.59	121.763
2996.89	115.209
2998.18	110.05
2999.48	105.574
3000.77	100.991
3002.06	96.3143
3003.36	92.1804
3004.65	88.5225
3005.94	84.6182
3007.23	80.3211
3008.53	76.5384
3009.82	73.0085
3011.11	69.8653
3012.4	66.4656
3013.69	62.8472
3014.99	60.6985
3016.28	58.4319
3017.57	56.6613
3018.86	54.2553
3020.15	53.0321
3021.44	51.2694
3022.73	48.8257
3024.02	47.4587
3025.31	46.0662
3026.6	45.6126
3027.89	45.5629
3029.18	45.1965
3030.46	44.7293
3031.75	44.3362
3033.04	44.0611
3034.33	45.2612
3035.62	45.6689
3036.9	45.5282
3038.19	46.2945
3039.48	46.5408
3040.76	47.5488
3042.05	49.0988
3043.34	49.65
3044.62	49.8341
3045.91	50.1378
3047.19	51.0227
3048.48	51.5414
3049.77	51.8206
3051.05	52.4081
3052.34	52.8884
3053.62	52.8743
3054.9	53.0638
3056.19	52.4527
3057.47	52.3078
3058.76	51.6514
3060.04	51.0709
3061.32	49.9365
3062.61	50.2835
3063.89	49.6074
3065.17	48.6583
3066.45	47.8375
3067.74	46.6266
3069.02	45.2828
3070.3	44.0049
3071.58	42.3396
3072.86	41.334
3074.14	39.3669
3075.42	37.5256
3076.7	35.4019
3077.99	34.0477
3079.26	32.5578
3080.54	30.2346
3081.82	28.1761
3083.1	26.6993
3084.38	24.911
3085.66	23.0874
3086.94	20.9276
3088.22	19.3272
3089.5	17.7162
3090.78	16.6548
3092.05	16.0324
3093.33	14.7473
3094.61	14.5825
3095.89	14.217
3097.16	13.6398
3098.44	13.2952
3099.72	12.2318
3100.99	11.5227
3102.27	11.6363
3103.54	11.2225
3104.82	11.2007
3106.1	10.7387
3107.37	9.74388
3108.65	9.9268
3109.92	9.73589
3111.2	9.79727
3112.47	9.52225
3113.74	9.1865
3115.02	8.48076
3116.29	8.1507
3117.56	7.69524
3118.84	7.61085
3120.11	7.01077
3121.38	7.32132
3122.66	7.14996
3123.93	7.10827
3125.2	6.75126
3126.47	6.95424
3127.74	6.44247
3129.01	6.27143
3130.29	6.09522
3131.56	5.49383
3132.83	5.47264
3134.1	5.46031
3135.37	4.67017
3136.64	4.49994
3137.91	3.44863
3139.18	2.88247
3140.45	2.21957
3141.72	1.8683
3142.99	1.00596
3144.26	0.491
3145.52	0.132905
3146.79	-0.17164
3148.06	0.295029
3149.33	0.530285
