#Acq. time (s)=	45
#Accumulations=	2
#Range (cm-¹)=	200...3150
#Windows=	2
#Auto scanning=	Off
#Autofocus=	Off
#Macrospot=	Off
#AutoExposure=	Off
#Spike filter=	Multiple accum.
#Delay time (s)=	0
#Binning=	1
#Readout mode=	Signal
#DeNoise=	Off
#ICS correction=	On
#Dark correction=	Off
#Inst. Process=	Off
#Detector Gain=	Best Dynamic Range
#Detector ADC=	20 kHz       
#Detector temperature (°C)=	-69.85
#Instrument=	LabRAM HR Evol
#Detector=	Synapse
#Objective=	x100
#Grating=	600 gr/mm
#ND Filter=	100%
#Laser (nm)=	532 
#Hole=	100.021
#Range=	Auto
#Laser Pol.=	No
#Raman. Pol.=	No
#Laser Pol. (°)=	-0.0007625
#Raman Pol. (°)=	89.9995
#Collection=	Microscope
#StageXY=	Marzhauser
#StageZ=	Marzhauser
#X (µm)=	-2373.6
#Y (µm)=	224.7
#Z (µm)=	521.55
#Full time(mm:ss)=	3:18
#Project=	
#Sample=	
#Site=	
#Title=	Thy_10_08_36_2x_45s_532 nm_x100_100%_600 gr_mm
#Remark=	
#Date=	06.07.2022 14:21
#Acquired=	06.07.2022 14:21:06
#Base:Fit=	10.08.2022 09:46:25
#Base:Sub=	10.08.2022 09:46:49
#Filter:Polynom=	16.08.2022 10:24:56
#AxisType[0]=Intens
#AxisUnit[0]=Cnt
#AxisType[1]=Spectr
#AxisUnit[1]=1/cm
200.398	-4.01697
202.213	-0.744467
204.027	-0.142428
205.843	0.569061
207.657	1.59987
209.47	2.6491
211.283	3.314
213.097	4.0025
214.909	4.30925
216.721	4.48792
218.533	4.38805
220.344	5.18309
222.157	5.34607
223.967	5.64064
225.777	5.78809
227.587	6.80763
229.396	7.05358
231.205	6.19065
233.016	6.44439
234.824	6.4214
236.632	7.0944
238.439	6.9035
240.247	6.94933
242.053	6.81764
243.86	6.72944
245.666	6.86045
247.474	6.40421
249.279	7.32859
251.085	7.00431
252.889	7.54905
254.694	7.34396
256.498	6.91086
258.301	7.14451
260.105	7.64174
261.908	8.55475
263.71	8.80472
265.513	8.76725
267.315	8.56915
269.116	8.80582
270.918	9.31916
272.718	10.1436
274.519	10.2963
276.319	11.1236
278.119	11.928
279.918	12.2482
281.718	12.6058
283.516	12.7514
285.315	13.1664
287.113	12.7254
288.911	12.3564
290.708	12.3095
292.505	12.5778
294.302	13.5351
296.098	13.7719
297.894	13.2061
299.69	13.1935
301.485	13.1279
303.278	13.3344
305.073	13.1536
306.867	13.9638
308.661	14.3591
310.454	14.2748
312.247	13.7209
314.04	13.5193
315.833	13.156
317.623	12.741
319.415	11.6129
321.206	10.5817
322.997	10.1771
324.788	9.77034
326.579	9.49439
328.367	8.66437
330.156	8.57408
331.946	7.62129
333.735	7.06342
335.523	7.21807
337.31	6.35796
339.098	6.78501
340.885	6.16462
342.673	6.89013
344.458	6.36181
346.244	6.0111
348.03	5.46123
349.816	5.11845
351.6	4.45138
353.385	3.82957
355.17	2.81762
356.953	2.68023
358.737	2.41115
360.521	2.48716
362.304	2.69222
364.085	2.54598
365.868	2.84776
367.65	3.0736
369.431	2.66496
371.212	2.05267
372.994	2.17256
374.773	1.97394
376.554	2.3337
378.332	3.10729
380.112	4.25274
381.892	4.5733
383.669	4.77777
385.448	4.64532
387.225	4.984
389.003	5.27785
390.781	5.61552
392.557	5.91547
394.334	6.40923
396.109	7.27295
397.885	6.84917
399.66	6.56918
401.436	6.56709
403.211	6.05678
404.984	5.9096
406.759	5.8062
408.532	5.98176
410.306	6.39026
412.078	6.86356
413.851	7.54682
415.623	7.75793
417.395	7.59614
419.166	7.60725
420.938	7.41242
422.708	7.57016
424.477	7.24368
426.248	6.90839
428.017	7.37049
429.788	7.26165
431.556	6.2053
433.326	5.1233
435.093	4.65915
436.86	4.47683
438.629	4.68631
440.395	4.88134
442.163	5.29687
443.929	4.90359
445.694	5.26603
447.461	5.47015
449.226	5.4328
450.99	5.76006
452.756	5.37682
454.52	5.88499
456.285	5.52717
458.048	5.50857
459.811	6.12618
461.573	6.99623
463.337	8.30077
465.099	8.84038
466.86	9.07303
468.623	9.50964
470.384	9.26404
472.144	9.70164
473.906	10.5207
475.666	10.6757
477.425	10.6836
479.184	11.5458
480.944	11.794
482.703	12.1921
484.461	12.5058
486.218	12.6115
487.975	13.1852
489.734	12.1488
491.491	12.4687
493.247	13.1314
495.003	13.5148
496.759	14.0011
498.516	14.7734
500.271	13.9381
502.025	13.3132
503.779	12.9039
505.533	12.1494
507.287	11.7891
509.042	11.1163
510.795	10.4768
512.547	10.2974
514.299	10.8364
516.051	10.0933
517.803	10.0403
519.554	10.2278
521.305	10.6794
523.055	11.1022
524.805	10.6781
526.555	10.2741
528.307	10.5808
530.056	9.60408
531.805	8.47856
533.553	8.49332
535.301	8.61113
537.049	8.22036
538.797	8.83044
540.544	8.5045
542.291	7.92906
544.037	7.56587
545.783	7.85554
547.529	7.53928
549.275	8.06586
551.02	7.61606
552.765	6.88052
554.509	7.02603
556.253	6.73892
557.997	6.59052
559.738	6.68383
561.482	6.27374
563.224	5.63048
564.967	6.4219
566.709	7.04462
568.451	7.08679
570.192	6.8591
571.933	6.79338
573.674	6.75541
575.415	5.28978
577.153	4.40237
578.893	4.95516
580.632	4.48719
582.371	4.26434
584.11	4.10225
585.849	3.80829
587.587	2.20389
589.323	2.24883
591.06	2.09895
592.797	2.24476
594.534	2.12096
596.271	2.64647
598.005	3.54006
599.741	3.49573
601.476	4.42193
603.211	4.13522
604.944	4.76228
606.679	5.67241
608.413	5.63514
610.147	5.8302
611.878	5.55963
613.611	5.83463
615.344	5.90078
617.077	5.65321
618.807	5.81973
620.539	6.73546
622.27	8.15378
623.999	8.71701
625.73	9.29139
627.461	9.1468
629.189	9.17389
630.919	10.101
632.648	9.79941
634.376	9.88308
636.105	10.405
637.833	10.2647
639.559	11.1182
641.287	11.4623
643.013	11.8121
644.74	12.7299
646.467	13.0449
648.192	13.8455
649.918	14.6098
651.642	14.9868
653.368	15.1621
655.091	15.3228
656.816	15.5651
658.538	15.9815
660.263	16.3861
661.987	16.5415
663.708	18.0822
665.432	18.5497
667.153	18.9657
668.875	20.2459
670.596	20.3505
672.318	20.2355
674.037	20.1041
675.759	21.5816
677.478	21.2916
679.196	21.5391
680.917	21.8716
682.635	22.8012
684.355	23.2678
686.072	23.8665
687.791	25.4547
689.508	25.9068
691.224	26.9548
692.942	28.1231
694.658	28.7203
696.376	29.5305
698.091	30.3854
699.805	30.5408
701.522	30.891
703.236	31.9025
704.95	32.7262
706.665	33.0529
708.379	35.1133
710.093	35.1752
711.806	35.2988
713.518	35.8286
715.23	36.6586
716.943	37.1572
718.655	37.0432
720.366	37.7711
722.078	37.5529
723.788	38.2058
725.498	39.5153
727.208	40.9852
728.919	42.2643
730.628	42.7615
732.337	43.2731
734.045	44.3514
735.755	45.1117
737.463	46.0744
739.17	47.6135
740.877	48.7621
742.584	50.0409
744.292	51.1916
745.998	52.1769
747.704	52.7096
749.409	54.0698
751.114	54.4878
752.819	55.2535
754.526	57.0287
756.23	57.5291
757.934	58.4883
759.637	59.7215
761.34	60.7715
763.043	61.3061
764.746	62.9105
766.448	64.9614
768.152	66.1973
769.853	67.5862
771.554	69.0333
773.255	69.4468
774.956	70.5216
776.656	71.3169
778.356	71.7992
780.056	71.9391
781.755	72.4727
783.454	72.9417
785.153	73.1903
786.851	73.762
788.549	74.2245
790.247	74.7368
791.944	76.2554
793.641	78.4558
795.338	78.362
797.034	78.5838
798.73	78.6716
800.426	79.0827
802.121	79.0933
803.817	79.0197
805.511	79.8651
807.206	80.495
808.9	82.1971
810.592	82.9393
812.286	83.0046
813.979	83.3534
815.672	83.2119
817.364	83.6576
819.057	84.3215
820.748	84.0281
822.44	84.3807
824.129	84.8851
825.82	84.6314
827.511	84.3077
829.201	83.1852
830.891	81.8813
832.581	81.2611
834.269	80.9436
835.958	80.077
837.646	79.6814
839.335	79.2683
841.023	77.7452
842.709	76.2404
844.396	75.4697
846.084	74.1132
847.77	72.8871
849.455	71.5365
851.141	71.0747
852.827	69.4102
854.513	67.94
856.196	66.5122
857.881	65.3696
859.566	64.0438
861.248	62.8276
862.932	60.5165
864.616	59.776
866.297	59.84
867.98	58.9502
869.663	58.4893
871.343	57.9612
873.026	57.6373
874.707	57.8026
876.387	58.509
878.068	58.0865
879.747	56.826
881.428	56.3815
883.108	56.6334
884.786	57.488
886.465	57.1525
888.143	56.8903
889.822	57.7804
891.498	57.3759
893.177	57.1576
894.855	57.2284
896.53	57.1292
898.208	56.9683
899.883	55.9789
901.56	55.892
903.234	55.9152
904.91	55.5481
906.584	55.6406
908.26	54.9544
909.933	53.449
911.608	52.7096
913.28	51.9257
914.955	51.6192
916.627	51.4735
918.298	51.051
919.972	49.9434
921.643	49.4334
923.315	49.1543
924.986	48.5281
926.656	47.4904
928.328	47.5471
929.997	47.3452
931.668	47.5587
933.337	47.8096
935.006	48.5595
936.676	48.1578
938.344	47.9617
940.012	47.8579
941.681	48.0184
943.348	47.4905
945.014	48.5471
946.683	47.845
948.349	48.962
950.015	49.6828
951.682	50.0163
953.347	50.3717
955.012	50.8433
956.676	49.2505
958.343	48.593
960.006	49.0403
961.67	48.6233
963.333	48.2039
964.998	48.8345
966.661	49.4183
968.323	49.1517
969.985	49.1128
971.649	49.5551
973.31	49.9665
974.971	49.4266
976.632	49.4754
978.293	49.5477
979.953	49.2595
981.615	49.2613
983.274	48.6295
984.933	48.0263
986.592	48.1262
988.251	47.9124
989.909	46.6923
991.567	45.5089
993.225	44.9854
994.884	44.7425
996.541	44.5223
998.198	43.9999
999.855	42.9555
1001.51	42.2667
1003.17	41.3501
1004.82	41.3327
1006.48	40.6826
1008.13	40.5578
1009.79	40.281
1011.44	39.751
1013.1	38.9714
1014.75	38.2165
1016.4	36.9098
1018.06	36.8704
1019.71	35.754
1021.36	34.9285
1023.01	34.0899
1024.66	34.1591
1026.32	33.7817
1027.97	32.9173
1029.62	31.1786
1031.27	30.6652
1032.92	29.5583
1034.57	28.2791
1036.22	28.1847
1037.87	27.4998
1039.52	25.5042
1041.16	25.7008
1042.81	26.2347
1044.46	26.1597
1046.11	26.7888
1047.76	26.0748
1049.4	25.805
1051.05	25.2151
1052.7	24.8694
1054.34	24.6795
1055.99	24.6905
1057.63	24.8658
1059.28	24.0381
1060.92	23.9562
1062.57	23.587
1064.21	22.7059
1065.85	22.578
1067.5	22.4359
1069.14	22.3729
1070.78	22.295
1072.43	21.9302
1074.07	22.7511
1075.71	22.7999
1077.35	22.1631
1078.99	22.0577
1080.63	20.844
1082.27	20.7873
1083.91	20.5422
1085.55	20.8102
1087.19	21.2744
1088.83	21.8946
1090.47	21.3404
1092.11	20.5246
1093.75	19.9691
1095.39	20.7039
1097.03	21.2923
1098.66	21.1042
1100.3	22.3767
1101.94	22.8343
1103.57	22.4901
1105.21	22.2499
1106.84	22.3724
1108.48	21.7094
1110.11	20.7404
1111.75	20.0113
1113.38	19.6736
1115.02	18.8076
1116.65	18.6436
1118.29	18.5478
1119.92	16.9517
1121.55	16.1616
1123.19	15.5692
1124.82	14.4842
1126.45	14.5431
1128.08	13.9056
1129.71	12.2389
1131.34	11.866
1132.97	11.5063
1134.6	11.043
1136.23	11.8957
1137.86	10.8621
1139.49	10.1802
1141.12	9.27952
1142.75	9.3097
1144.38	8.86659
1146.01	8.75718
1147.64	8.48411
1149.26	7.82166
1150.89	8.09964
1152.52	8.54895
1154.15	8.31014
1155.77	8.27538
1157.4	7.68529
1159.02	7.32229
1160.65	7.6788
1162.27	8.07523
1163.9	9.15212
1165.52	9.58322
1167.15	10.1353
1168.77	10.2827
1170.39	10.5488
1172.02	10.8781
1173.64	12.5623
1175.26	13.1037
1176.89	14.1534
1178.51	15.0016
1180.13	15.2861
1181.75	16.4192
1183.37	16.1373
1184.99	15.8018
1186.61	16.0864
1188.23	16.8614
1189.85	17.4378
1191.47	17.3693
1193.09	18.3237
1194.71	19.3904
1196.33	19.8896
1197.94	21.0746
1199.56	21.6133
1201.18	22.1188
1202.8	22.9887
1204.41	23.1176
1206.03	24.3101
1207.65	26.4599
1209.26	27.1967
1210.88	28.2746
1212.49	29.2332
1214.11	30.5399
1215.72	31.3974
1217.34	32.7229
1218.95	33.0532
1220.57	34.9202
1222.18	35.6912
1223.79	36.7306
1225.41	37.9758
1227.02	39.5644
1228.63	40.6313
1230.24	42.056
1231.85	43.7519
1233.47	44.5488
1235.08	45.1477
1236.69	45.7923
1238.3	46.5983
1239.91	46.6043
1241.52	47.1402
1243.13	48.1053
1244.74	48.4378
1246.34	48.8967
1247.95	49.1286
1249.56	49.8947
1251.17	49.5121
1252.78	50.4271
1254.38	50.1764
1255.99	49.0037
1257.6	49.4628
1259.2	49.1298
1260.81	49.4846
1262.42	50.3063
1264.02	49.9888
1265.63	51.2587
1267.23	52.2321
1268.84	53.5574
1270.44	53.5715
1272.04	53.5305
1273.65	54.6259
1275.25	54.2217
1276.85	53.4938
1278.46	53.9309
1280.06	53.697
1281.66	54.0664
1283.26	54.4208
1284.86	55.0232
1286.46	55.455
1288.07	55.1457
1289.67	54.4133
1291.27	54.0634
1292.87	53.6693
1294.47	53.5194
1296.06	53.1231
1297.66	53.0071
1299.26	53.838
1300.86	54.3247
1302.46	54.4645
1304.06	55.5532
1305.65	55.8789
1307.25	55.8903
1308.85	56.6336
1310.44	57.0517
1312.04	57.4998
1313.64	56.981
1315.23	57.2722
1316.83	57.1149
1318.42	57.2464
1320.02	56.5839
1321.61	56.7277
1323.2	57.4782
1324.8	57.5442
1326.39	57.2621
1327.99	56.4207
1329.58	56.1749
1331.17	55.3002
1332.76	56.4364
1334.36	56.1864
1335.95	56.4009
1337.54	56.5764
1339.13	56.2295
1340.72	56.2026
1342.31	56.1752
1343.9	55.0976
1345.49	54.5553
1347.08	53.33
1348.67	51.903
1350.26	50.0932
1351.85	49.5287
1353.43	49.3377
1355.02	47.958
1356.61	46.9918
1358.2	46.7692
1359.78	45.3989
1361.37	44.7508
1362.96	43.4777
1364.54	42.9582
1366.13	41.6837
1367.71	41.0818
1369.3	40.1784
1370.88	39.6112
1372.47	37.8625
1374.05	37.3167
1375.64	36.9439
1377.22	36.9514
1378.8	37.4371
1380.39	36.8758
1381.97	36.5232
1383.55	35.5344
1385.13	34.8604
1386.72	35.7849
1388.3	36.4138
1389.88	36.0846
1391.46	35.1729
1393.04	34.5427
1394.62	34.4435
1396.2	33.8988
1397.78	34.1494
1399.36	34.1761
1400.94	34.7415
1402.52	35.2114
1404.1	34.6414
1405.68	34.3945
1407.25	34.5276
1408.83	34.9852
1410.41	35.6523
1411.98	37.1856
1413.56	37.5197
1415.14	38.1055
1416.71	38.1653
1418.29	39.024
1419.87	40.3596
1421.44	41.7217
1423.02	43.1069
1424.59	44.8334
1426.16	46.5863
1427.74	47.9549
1429.31	50.4359
1430.89	52.8509
1432.46	55.1831
1434.03	56.8956
1435.6	59.0375
1437.18	60.5239
1438.75	62.209
1440.32	64.077
1441.89	64.5746
1443.46	65.9603
1445.03	66.81
1446.6	67.4472
1448.17	67.6546
1449.74	68.0331
1451.31	67.73
1452.88	68.0309
1454.45	66.9298
1456.02	66.4656
1457.59	65.7786
1459.16	65.0584
1460.72	63.3314
1462.29	61.8988
1463.86	60.7438
1465.43	59.7009
1466.99	57.2629
1468.56	54.2688
1470.13	50.8757
1471.69	48.7858
1473.26	46.7367
1474.82	44.0282
1476.38	41.478
1477.95	38.9112
1479.51	36.359
1481.08	33.8871
1482.64	31.3064
1484.2	29.1671
1485.77	27.4383
1487.33	25.7536
1488.89	24.6949
1490.46	23.23
1492.02	20.944
1493.58	19.3202
1495.14	17.3939
1496.7	15.9487
1498.26	15.1522
1499.82	14.3106
1501.38	13.9679
1502.94	13.4188
1504.5	12.6057
1506.06	12.4519
1507.62	13.1738
1509.18	12.1067
1510.73	12.555
1512.29	12.1338
1513.85	11.9516
1515.41	11.8953
1516.96	12.0732
1518.52	12.2325
1520.08	12.5565
1521.63	13.247
1523.19	13.9564
1524.75	14.1418
1526.3	14.55
1527.85	14.8581
1529.41	14.5939
1530.96	15.7352
1532.52	17.3199
1534.07	18.641
1535.62	19.6263
1537.18	20.2679
1538.73	20.2016
1540.28	21.567
1541.84	22.5983
1543.39	23.247
1544.94	23.9809
1546.49	23.9569
1548.04	24.8925
1549.59	26.4095
1551.14	26.8528
1552.69	27.3001
1554.25	27.6736
1555.79	28.5817
1557.34	29.1818
1558.89	29.9722
1560.44	30.6542
1561.99	31.5563
1563.54	32.2699
1565.08	32.2501
1566.63	32.8942
1568.18	33.2306
1569.73	33.6666
1571.27	34.3801
1572.82	35.332
1574.37	36.1933
1575.91	37.118
1577.46	38.4276
1579	39.2111
1580.55	39.933
1582.09	40.4074
1583.64	41.5996
1585.18	42.5405
1586.73	42.8651
1588.27	43.8775
1589.81	44.3553
1591.35	45.1004
1592.9	45.2888
1594.44	45.7387
1595.98	46.6191
1597.52	46.5011
1599.06	46.0341
1600.61	46.5276
1602.15	47.2835
1603.69	48.4195
1605.23	49.228
1606.77	49.7991
1608.31	50.8219
1609.85	50.4277
1611.39	50.0277
1612.93	49.5189
1614.46	49.4107
1616	49.2729
1617.54	49.1746
1619.08	49.1639
1620.61	48.3881
1622.15	48.2447
1623.69	48.2226
1625.23	48.5778
1626.76	48.6374
1628.3	47.9748
1629.83	48.766
1631.37	48.7121
1632.9	49.5499
1634.44	49.7922
1635.97	50.5527
1637.51	51.8788
1639.04	52.7914
1640.57	54.1724
1642.11	56.3102
1643.64	57.8009
1645.17	58.5707
1646.71	60.0153
1648.24	60.6842
1649.77	61.9296
1651.3	63.2583
1652.83	64.5716
1654.36	65.6411
1655.89	66.0417
1657.42	66.1454
1658.96	67.2905
1660.48	68.1889
1662.01	68.607
1663.54	68.0182
1665.07	67.8132
1666.6	67.5798
1668.13	67.0648
1669.66	66.3987
1671.19	66.6925
1672.71	65.385
1674.24	63.761
1675.77	62.7152
1677.29	61.9296
1678.82	61.5781
1680.35	60.0162
1681.87	57.8498
1683.4	55.9547
1684.92	53.9489
1686.45	52.6682
1687.97	50.6316
1689.5	48.0081
1691.02	46.5195
1692.54	44.4845
1694.07	42.685
1695.59	40.7981
1697.11	38.165
1698.64	37.1065
1700.16	35.654
1701.68	33.797
1703.2	31.7816
1704.72	30.3426
1706.25	29.4896
1707.77	27.5927
1709.29	26.6026
1710.81	25.7238
1712.33	25.039
1713.85	24.3638
1715.37	23.1486
1716.89	22.5299
1718.41	21.7717
1719.92	20.4757
1721.44	19.6199
1722.96	19.3115
1724.48	18.0945
1725.99	17.3859
1727.51	16.7134
1729.03	15.4463
1730.55	13.9816
1732.06	13.4416
1733.58	12.8889
1735.09	13.1942
1736.61	12.5807
1738.13	11.7972
1739.64	10.9876
1741.15	10.8544
1742.67	10.6094
1744.18	10.9606
1745.7	10.5754
1747.21	10.0898
1748.72	9.018
1750.24	9.00897
1751.75	9.43104
1753.26	9.40835
1754.77	9.68315
1756.29	9.09603
1757.8	8.87669
1759.31	8.91009
1760.82	8.61678
1762.33	8.37549
1763.84	7.27538
1765.35	6.96014
1766.86	7.03392
1768.37	6.52145
1769.88	6.37866
1771.39	6.0587
1772.9	5.95215
1774.4	6.16779
1775.91	5.84817
1777.42	5.57776
1778.93	5.01224
1780.44	5.0959
1781.94	4.38298
1783.45	3.88645
1784.96	3.70138
1786.46	3.66599
1787.97	3.32572
1789.47	2.94961
1790.98	2.48996
1792.48	2.40787
1793.99	2.00948
1795.49	1.50263
1797	0.29224
1798.5	0.0778566
1800.01	-0.414588
1801.51	-0.661678
1803.01	-0.72408
1804.51	-0.401691
1806.02	-0.264435
1807.52	-0.0105862
1809.02	0.00563378
1810.52	0.127686
1812.02	0.16638
1813.52	0.352155
1815.02	0.370567
1816.53	0.409427
1818.03	0.684156
1819.52	0.652547
1821.02	0.155584
1822.52	0.171412
1824.02	0.444486
1825.52	0.221531
1827.02	0.344279
1828.52	0.056884
1830.02	0.297425
1831.51	0.0349129
1833.01	-0.54252
1834.51	-0.598775
1836.01	-0.533536
1837.5	-0.172529
1839	0.305493
1840.49	0.437293
1841.99	0.526436
1843.49	0.923575
1844.98	1.06699
1846.48	0.796177
1847.97	0.837788
1849.47	1.24394
1850.96	1.49792
1852.45	1.62103
1853.95	1.52169
1855.44	1.98262
1856.93	1.48217
1858.42	2.47463
1859.92	3.10976
1861.41	3.42103
1862.9	3.43995
1864.39	3.25277
1865.88	3.56238
1867.38	3.58863
1868.87	3.77144
1870.36	3.70986
1871.85	4.08674
1873.34	5.12216
1874.83	5.6093
1876.32	6.32445
1877.81	6.87979
1879.29	7.20723
1880.78	6.79715
1882.27	7.1183
1882.53	7.31029
1884.03	7.10144
1885.52	7.23771
1887.01	7.41711
1888.51	7.50834
1890	7.57441
1891.5	8.06129
1892.99	7.85249
1894.48	8.06316
1895.97	8.18258
1897.47	8.20344
1898.96	8.03001
1900.45	7.67232
1901.94	6.96088
1903.43	6.80806
1904.92	6.11524
1906.41	6.03554
1907.9	6.38469
1909.39	6.22303
1910.88	6.53747
1912.37	6.66429
1913.86	6.40638
1915.35	6.63567
1916.84	6.67481
1918.33	6.70464
1919.81	6.56783
1921.3	6.50893
1922.79	6.32378
1924.28	6.07767
1925.76	5.64186
1927.25	5.52231
1928.73	5.49512
1930.22	4.8963
1931.71	5.46464
1933.19	4.88742
1934.68	4.60962
1936.16	4.60972
1937.65	4.45519
1939.13	4.58503
1940.62	4.3555
1942.1	4.52648
1943.58	4.36314
1945.07	5.32075
1946.55	5.76639
1948.03	5.88845
1949.51	6.0481
1951	5.39501
1952.48	5.32515
1953.96	5.36888
1955.44	5.71243
1956.92	5.77334
1958.4	5.8282
1959.88	6.56369
1961.36	6.74356
1962.84	6.2891
1964.32	6.59508
1965.8	6.50261
1967.28	5.90699
1968.76	6.21234
1970.24	5.59907
1971.72	5.46221
1973.2	5.07796
1974.67	4.68065
1976.15	4.54811
1977.63	4.50543
1979.1	4.40413
1980.58	4.72447
1982.06	4.95858
1983.54	4.75485
1985.01	5.22462
1986.49	5.35692
1987.96	5.02862
1989.44	5.05851
1990.91	4.54069
1992.39	4.28857
1993.86	3.93658
1995.33	3.73021
1996.81	3.22508
1998.28	2.97425
1999.75	3.22056
2001.23	2.89218
2002.7	2.6121
2004.17	2.43522
2005.65	2.61638
2007.12	2.23747
2008.59	2.91654
2010.06	2.77379
2011.53	2.69238
2013	2.96081
2014.47	2.75571
2015.94	3.12547
2017.41	3.76874
2018.88	4.64732
2020.35	4.71695
2021.82	4.88295
2023.29	4.76558
2024.76	4.51051
2026.23	5.43376
2027.69	5.38326
2029.16	5.73559
2030.63	6.05291
2032.1	6.14146
2033.56	6.31926
2035.03	6.49543
2036.5	6.93486
2037.96	7.11726
2039.43	6.69351
2040.89	7.1246
2042.36	7.83325
2043.83	7.87972
2045.29	8.00881
2046.75	8.07099
2048.22	8.13074
2049.68	8.52495
2051.15	8.82094
2052.61	9.41482
2054.07	9.57723
2055.54	10.2458
2057	10.383
2058.46	11.3592
2059.92	11.0149
2061.39	10.9511
2062.85	10.8334
2064.31	10.279
2065.77	10.5214
2067.23	10.8815
2068.69	10.9718
2070.15	11.0092
2071.61	11.1883
2073.07	11.0634
2074.53	10.5164
2075.99	10.4945
2077.45	10.3827
2078.91	10.7565
2080.37	11.2656
2081.82	11.438
2083.28	11.1265
2084.74	11.4253
2086.2	11.6962
2087.65	11.0698
2089.11	11.1224
2090.57	10.9168
2092.02	10.4065
2093.48	9.82613
2094.94	9.52145
2096.39	9.04201
2097.85	9.42785
2099.3	9.76894
2100.76	9.39694
2102.21	9.98373
2103.66	10.5941
2105.12	10.9138
2106.57	11.4283
2108.03	11.5267
2109.48	11.4658
2110.93	11.1002
2112.38	11.3576
2113.84	11.7259
2115.29	11.5894
2116.74	11.7648
2118.19	11.7297
2119.64	12.3321
2121.09	12.5685
2122.54	12.7164
2123.99	12.3942
2125.45	12.7075
2126.89	13.3092
2128.34	13.7393
2129.79	14.1815
2131.24	14.3215
2132.69	13.9418
2134.14	14.4659
2135.59	14.7742
2137.04	15.5359
2138.48	16.4702
2139.93	17.0169
2141.38	17.4557
2142.83	18.0076
2144.27	18.1376
2145.72	18.2806
2147.17	19.0854
2148.61	19.5294
2150.06	20.1074
2151.5	20.6573
2152.95	20.8144
2154.39	21.2871
2155.84	21.4936
2157.28	21.537
2158.73	21.4211
2160.17	20.9703
2161.61	21.4583
2163.06	21.4306
2164.5	21.7363
2165.94	22.1784
2167.38	22.7285
2168.83	23.0608
2170.27	23.5378
2171.71	23.5609
2173.15	23.925
2174.59	24.1872
2176.03	24.4821
2177.47	24.0478
2178.91	23.7406
2180.36	23.6245
2181.8	23.3224
2183.23	22.9301
2184.67	22.9916
2186.11	22.8495
2187.55	22.8836
2188.99	23.0004
2190.43	22.2318
2191.87	21.9873
2193.3	21.5586
2194.74	20.8186
2196.18	20.3924
2197.62	20.1567
2199.05	20.174
2200.49	19.7343
2201.93	19.7375
2203.36	19.1428
2204.8	18.7638
2206.23	18.8689
2207.67	18.7152
2209.1	19.0984
2210.54	19.1194
2211.97	19.4112
2213.41	19.1234
2214.84	18.4034
2216.27	17.1052
2217.71	16.5624
2219.14	16.1667
2220.57	15.5108
2222.01	15.369
2223.44	15.2548
2224.87	14.974
2226.3	14.5199
2227.73	13.349
2229.16	13.1867
2230.6	13.1186
2232.03	13.1879
2233.46	13.1613
2234.89	12.7093
2236.32	12.9781
2237.75	12.5236
2239.18	12.7411
2240.61	12.2777
2242.03	12.3583
2243.46	12.2376
2244.89	12.3255
2246.32	12.435
2247.75	12.6191
2249.17	12.1841
2250.6	11.851
2252.03	11.7412
2253.46	11.1681
2254.88	11.2763
2256.31	11.647
2257.73	11.1856
2259.16	10.8937
2260.59	10.8133
2262.01	10.5327
2263.44	10.6838
2264.86	10.7614
2266.29	10.5953
2267.71	11.1722
2269.14	11.6598
2270.56	11.986
2271.98	11.7751
2273.4	11.7448
2274.83	11.9003
2276.25	11.8224
2277.67	11.6171
2279.09	11.8551
2280.52	11.8538
2281.94	10.9708
2283.36	10.208
2284.78	9.41468
2286.2	8.66247
2287.62	8.58103
2289.04	8.55588
2290.46	8.43075
2291.88	8.54791
2293.3	8.09484
2294.72	7.66044
2296.14	7.52044
2297.56	7.58463
2298.98	7.98309
2300.4	8.24289
2301.82	9.11929
2303.23	9.74981
2304.65	9.76715
2306.07	9.84289
2307.49	10.0706
2308.9	10.2814
2310.32	10.6827
2311.73	10.6655
2313.15	11.3507
2314.57	11.5873
2315.98	11.3962
2317.4	11.147
2318.81	10.6486
2320.23	10.2403
2321.64	10.284
2323.06	10.3461
2324.47	10.578
2325.88	10.4978
2327.3	10.8269
2328.71	10.8704
2330.12	11.1154
2331.54	11.597
2332.95	11.7304
2334.36	12.1615
2335.77	12.4534
2337.18	12.4156
2338.6	12.5946
2340.01	11.9199
2341.42	11.1501
2342.83	10.6156
2344.24	10.576
2345.65	10.209
2347.06	9.51441
2348.47	9.01398
2349.88	8.57862
2351.29	7.47811
2352.7	6.95198
2354.1	6.95245
2355.51	6.48652
2356.92	5.59107
2358.33	4.59436
2359.74	4.22526
2361.14	3.87585
2362.55	3.90761
2363.96	3.67867
2365.36	4.14949
2366.77	3.96955
2368.18	4.81969
2369.58	4.9711
2370.99	5.36431
2372.39	5.90388
2373.8	5.29602
2375.2	4.81139
2376.61	4.99043
2378.01	5.19477
2379.42	5.11798
2380.82	5.315
2382.22	5.53266
2383.63	4.9173
2385.03	4.35885
2386.43	3.94756
2387.84	4.0696
2389.24	4.18944
2390.64	3.76367
2392.04	3.81293
2393.44	3.40319
2394.84	3.57063
2396.25	3.66485
2397.65	4.34912
2399.05	4.73772
2400.45	4.67368
2401.85	4.8971
2403.25	4.89083
2404.65	4.5761
2406.05	4.70525
2407.45	4.72673
2408.84	4.75675
2410.24	4.47501
2411.64	4.4145
2413.04	5.10404
2414.44	5.19005
2415.83	5.0783
2417.23	5.21148
2418.63	5.32224
2420.02	5.24259
2421.42	6.06638
2422.82	6.43482
2424.21	6.54232
2425.61	6.27352
2427	6.48612
2428.4	6.85202
2429.8	7.8119
2431.19	8.03932
2432.58	8.47468
2433.98	8.28155
2435.37	8.4676
2436.77	8.70239
2438.16	9.29184
2439.55	8.58889
2440.95	8.81795
2442.34	8.69725
2443.73	8.79195
2445.12	8.90098
2446.51	8.90478
2447.91	8.51263
2449.3	8.25106
2450.69	8.05306
2452.08	7.37108
2453.47	6.78544
2454.86	6.9207
2456.25	6.65858
2457.64	5.82432
2459.03	4.90524
2460.42	4.29962
2461.81	4.25531
2463.2	3.74511
2464.59	3.34628
2465.98	3.25944
2467.36	2.3634
2468.75	1.9214
2470.14	1.29855
2471.53	1.28403
2472.92	1.21246
2474.3	0.956409
2475.69	1.26995
2477.08	0.831422
2478.46	0.42456
2479.85	0.245106
2481.23	0.301027
2482.62	0.502329
2484	-0.241803
2485.39	0.110586
2486.77	0.4712
2488.16	0.772432
2489.54	0.671302
2490.93	1.19281
2492.31	0.873451
2493.69	1.06088
2495.08	1.35796
2496.46	1.75178
2497.84	1.79201
2499.23	2.20442
2500.61	2.24658
2501.99	2.49995
2503.37	2.66523
2504.75	2.88195
2506.13	2.94863
2507.52	2.93274
2508.9	2.55607
2510.28	3.22641
2511.66	3.38678
2513.04	3.702
2514.42	3.83387
2515.8	3.84808
2517.18	3.70421
2518.55	3.92178
2519.93	4.14087
2521.31	4.32323
2522.69	4.58687
2524.07	4.35259
2525.45	3.95325
2526.82	3.69102
2528.2	3.51162
2529.58	3.52236
2530.95	3.22355
2532.33	2.69247
2533.71	2.55538
2535.08	2.79201
2536.46	2.02306
2537.84	2.26305
2539.21	2.60116
2540.59	2.93869
2541.96	2.94658
2543.34	2.30473
2544.71	2.06455
2546.08	1.61378
2547.46	1.8053
2548.83	1.86779
2550.2	1.93189
2551.58	2.06524
2552.95	2.62495
2554.32	3.55429
2555.7	3.14914
2557.07	3.17358
2558.44	2.9546
2559.81	3.33793
2561.18	3.38627
2562.55	3.44819
2563.93	3.3274
2565.3	3.15084
2566.67	3.21788
2568.04	3.42271
2569.41	3.17491
2570.78	2.88761
2572.15	2.52429
2573.51	2.3152
2574.88	2.11492
2576.25	2.11074
2577.62	1.62809
2578.99	1.75596
2580.36	1.25785
2581.73	1.30128
2583.09	1.18486
2584.46	1.47361
2585.83	1.56721
2587.19	1.94871
2588.56	1.98768
2589.93	1.41055
2591.29	1.43944
2592.66	0.752061
2594.02	0.511366
2595.39	0.322417
2596.75	-0.114805
2598.12	0.0628697
2599.48	0.206844
2600.85	-0.385667
2602.21	-0.033637
2603.58	-0.0957936
2604.94	-0.0441085
2606.3	0.345021
2607.67	1.2197
2609.03	0.726904
2610.39	0.780197
2611.76	0.400837
2613.12	0.352953
2614.48	0.542783
2615.84	0.615752
2617.2	0.794134
2618.56	0.806993
2619.92	0.888306
2621.28	1.13339
2622.65	0.881266
2624.01	0.612684
2625.37	1.12206
2626.72	1.16915
2628.08	1.03927
2629.44	0.856666
2630.8	0.359015
2632.16	0.798232
2633.52	0.77827
2634.88	0.858518
2636.24	0.73838
2637.59	0.711927
2638.95	0.780585
2640.31	0.675206
2641.67	0.67345
2643.02	0.386829
2644.38	0.356026
2645.74	0.0378763
2647.09	0.497059
2648.45	1.10203
2649.8	1.75472
2651.16	1.90135
2652.51	2.48642
2653.87	2.41849
2655.22	2.2251
2656.58	2.17202
2657.93	1.6021
2659.29	1.40075
2660.64	1.68843
2661.99	1.84579
2663.35	2.10354
2664.7	2.38999
2666.05	2.74719
2667.41	2.43143
2668.76	2.42329
2670.11	2.77874
2671.46	2.928
2672.81	3.14949
2674.16	3.07906
2675.51	3.2566
2676.87	2.92358
2678.22	3.57199
2679.57	3.04375
2680.92	2.88579
2682.27	3.18428
2683.62	3.54571
2684.97	3.75865
2686.31	3.99311
2687.66	4.50189
2689.01	4.7333
2690.36	4.83072
2691.71	4.90725
2693.06	4.88511
2694.4	5.21823
2695.75	5.29289
2697.1	5.52506
2698.45	5.93916
2699.79	6.66067
2701.14	6.49359
2702.49	6.9242
2703.83	7.55932
2705.18	7.39737
2706.52	7.65113
2707.87	8.05092
2709.21	8.20559
2710.56	8.13727
2711.9	8.32625
2713.25	8.57457
2714.59	8.4086
2715.94	8.63685
2717.28	8.51588
2718.62	8.92366
2719.97	8.98168
2721.31	8.61235
2722.65	8.28451
2723.99	8.10268
2725.34	8.02164
2726.68	8.34405
2728.02	8.71955
2729.36	8.33838
2730.7	8.00443
2732.04	7.87245
2733.39	8.245
2734.73	7.93256
2736.07	8.1597
2737.41	8.24965
2738.75	8.28717
2740.08	8.29827
2741.43	8.23025
2742.76	8.34391
2744.1	8.47116
2745.44	8.15675
2746.78	7.83611
2748.12	8.22588
2749.46	8.32422
2750.79	8.39274
2752.13	8.16775
2753.47	8.45596
2754.81	8.24188
2756.14	8.39188
2757.48	8.8159
2758.81	8.86223
2760.15	8.78359
2761.49	8.86122
2762.82	8.6706
2764.16	8.76624
2765.49	8.43303
2766.83	7.9613
2768.16	7.84423
2769.5	7.47907
2770.83	7.1432
2772.16	6.49751
2773.5	6.40894
2774.83	5.93779
2776.17	5.32517
2777.5	5.24238
2778.83	5.02243
2780.16	4.74367
2781.5	4.23689
2782.83	4.50543
2784.16	4.10916
2785.49	4.05084
2786.82	3.62912
2788.15	3.50934
2789.49	3.77854
2790.82	3.54554
2792.15	3.95168
2793.48	3.66953
2794.81	3.70418
2796.14	3.59652
2797.46	3.3168
2798.79	3.94755
2800.12	3.93162
2801.45	3.72774
2802.78	4.02992
2804.11	4.04656
2805.44	3.94132
2806.76	4.26312
2808.09	3.97315
2809.42	3.83111
2810.75	3.7802
2812.07	3.81912
2813.4	4.33057
2814.73	4.63943
2816.05	5.14302
2817.38	5.65963
2818.7	6.2194
2820.03	6.84237
2821.36	7.19626
2822.68	8.55544
2824.01	9.69079
2825.33	10.701
2826.65	11.6946
2827.98	13.4037
2829.3	14.4537
2830.63	15.6714
2831.95	16.8175
2833.27	19.1158
2834.6	20.8661
2835.92	22.1707
2837.24	23.8683
2838.56	25.4373
2839.88	27.4307
2841.21	30.1015
2842.53	32.7888
2843.85	34.9543
2845.17	37.4229
2846.49	39.8743
2847.81	42.8819
2849.13	45.9983
2850.45	49.3342
2851.77	52.2883
2853.09	55.9675
2854.41	59.3149
2855.73	62.4313
2857.05	64.976
2858.37	68.1962
2859.69	70.6568
2861	73.4437
2862.32	76.0067
2863.64	79.3643
2864.96	82.3937
2866.28	84.8285
2867.59	87.3334
2868.91	89.1133
2870.23	91.1468
2871.54	93.3586
2872.86	95.3565
2874.17	97.3335
2875.49	99.3869
2876.81	101.732
2878.12	103.776
2879.44	105.687
2880.75	107.401
2882.07	109.154
2883.38	110.509
2884.69	111.736
2886.01	113.541
2887.32	115.49
2888.63	117.973
2889.95	120.159
2891.26	122.172
2892.57	123.927
2893.89	125.882
2895.2	127.28
2896.51	130.03
2897.82	132.641
2899.13	135.039
2900.44	136.947
2901.76	139.598
2903.07	142.344
2904.38	145.965
2905.69	149.722
2907	153.941
2908.31	157.802
2909.62	161.201
2910.93	165.377
2912.24	169.503
2913.55	173.862
2914.85	178.035
2916.16	182.067
2917.47	185.867
2918.78	189.647
2920.09	192.214
2921.4	194.991
2922.7	197.671
2924.01	199.759
2925.32	201.477
2926.62	203.011
2927.93	204.415
2929.24	205.718
2930.54	205.71
2931.85	205.274
2933.15	204.974
2934.46	204.413
2935.76	204.168
2937.07	203.155
2938.37	202.041
2939.68	200.371
2940.98	197.973
2942.29	195.869
2943.59	193.094
2944.89	190.181
2946.2	186.993
2947.5	184.628
2948.8	180.939
2950.11	177.255
2951.41	174.547
2952.71	171.308
2954.01	168.126
2955.32	164.881
2956.62	160.654
2957.92	156.835
2959.22	153.391
2960.52	149.9
2961.82	146.563
2963.12	142.686
2964.42	138.979
2965.72	135.508
2967.02	132.334
2968.32	129.053
2969.62	126.338
2970.92	123.67
2972.22	121.099
2973.51	118.117
2974.81	114.998
2976.11	112.822
2977.41	110.357
2978.71	107.787
2980	105.326
2981.3	102.143
2982.6	98.5725
2983.9	94.9272
2985.19	91.0585
2986.49	87.3554
2987.78	83.7153
2989.08	80.0473
2990.38	76.8251
2991.67	73.1063
2992.97	70.0399
2994.26	67.2728
2995.56	63.5798
2996.85	60.3613
2998.14	57.3428
2999.44	53.9607
3000.73	51.2977
3002.03	48.2685
3003.32	45.7856
3004.61	43.0958
3005.91	40.5839
3007.2	38.8568
3008.49	36.4683
3009.78	34.2034
3011.07	32.2726
3012.37	30.7392
3013.66	27.9145
3014.95	26.7271
3016.24	26.1424
3017.53	25.1195
3018.82	23.5887
3020.11	22.3815
3021.4	21.0168
3022.69	20.1084
3023.98	18.9917
3025.27	18.1185
3026.56	17.6838
3027.85	17.4994
3029.14	17.1351
3030.43	16.6487
3031.71	16.8434
3033	17.2042
3034.29	18.0378
3035.58	18.6755
3036.87	18.7452
3038.15	18.7025
3039.44	19.247
3040.73	19.8619
3042.01	20.4802
3043.3	21.0103
3044.59	21.0493
3045.87	20.7007
3047.16	20.4357
3048.44	20.6118
3049.73	20.5457
3051.01	21.3725
3052.3	22.0527
3053.58	22.2319
3054.87	22.2265
3056.15	22.0171
3057.43	21.6667
3058.72	21.3806
3060	20.7193
3061.29	20.4883
3062.57	20.0174
3063.85	19.8129
3065.13	19.9796
3066.42	19.7659
3067.7	19.1123
3068.98	18.7185
3070.26	18.0933
3071.54	17.3587
3072.82	16.5063
3074.11	15.4816
3075.39	14.8847
3076.67	14.2669
3077.95	13.5164
3079.23	13.1517
3080.51	12.594
3081.79	11.4045
3083.07	10.4782
3084.35	9.59222
3085.63	8.66201
3086.9	7.77408
3088.18	7.22756
3089.46	7.27573
3090.74	6.90348
3092.02	6.23564
3093.29	5.66125
3094.57	5.12764
3095.85	5.0719
3097.13	4.93524
3098.4	4.55776
3099.68	4.03628
3100.95	3.69751
3102.23	3.63143
3103.51	3.83425
3104.78	3.94686
3106.06	4.11417
3107.33	3.53898
3108.61	3.04856
3109.88	2.8761
3111.16	2.61442
3112.43	2.69288
3113.71	2.69664
3114.98	2.84331
3116.25	2.83426
3117.53	2.84538
3118.8	2.5852
3120.07	2.48447
3121.35	2.41735
3122.62	2.92436
3123.89	2.90963
3125.16	2.96535
3126.44	3.02635
3127.71	3.08608
3128.98	2.96473
3130.25	2.61246
3131.52	1.80637
3132.79	1.94877
3134.06	1.34976
3135.33	1.0455
3136.6	0.799748
3137.87	0.134746
3139.14	0.0163347
3140.41	-0.33928
3141.68	-0.804807
3142.95	-1.26951
3144.22	-1.74741
3145.49	-2.20367
3146.76	-2.5254
3148.02	-2.36667
3149.29	-2.8628
