#Acq. time (s)=	45
#Accumulations=	2
#Range (cm-¹)=	200...3150
#Windows=	2
#Auto scanning=	Off
#Autofocus=	Off
#Macrospot=	Off
#AutoExposure=	Off
#Spike filter=	Multiple accum.
#Delay time (s)=	0
#Binning=	1
#Readout mode=	Signal
#DeNoise=	Off
#ICS correction=	On
#Dark correction=	Off
#Inst. Process=	Off
#Detector Gain=	Best Dynamic Range
#Detector ADC=	20 kHz       
#Detector temperature (°C)=	-69.85
#Instrument=	LabRAM HR Evol
#Detector=	Synapse
#Objective=	x100
#Grating=	600 gr/mm
#ND Filter=	100%
#Laser (nm)=	532 
#Hole=	100.021
#Range=	Auto
#Laser Pol.=	No
#Raman. Pol.=	No
#Laser Pol. (°)=	-0.0007625
#Raman Pol. (°)=	89.9995
#Collection=	Microscope
#StageXY=	Marzhauser
#StageZ=	Marzhauser
#X (µm)=	4767
#Y (µm)=	-7723.6
#Z (µm)=	584.15
#Full time(mm:ss)=	3:18
#Project=	
#Sample=	
#Site=	
#Title=	Thy_30_10_23_2x_45s_532 nm_x100_100%_600 gr_mm
#Remark=	
#Date=	30.06.2022 13:08
#Acquired=	30.06.2022 13:08:05
#Base:Fit=	10.08.2022 09:58:11
#Base:Sub=	10.08.2022 09:58:44
#Filter:Polynom=	16.08.2022 10:22:53
#AxisType[0]=Intens
#AxisUnit[0]=Cnt
#AxisType[1]=Spectr
#AxisUnit[1]=1/cm
200.533	1.55231
202.348	1.74073
204.162	1.41028
205.976	1.44518
207.792	1.19663
209.605	1.16822
211.418	1.07268
213.23	1.09402
215.044	1.32631
216.856	1.82751
218.667	1.81861
220.478	2.83752
222.289	4.05367
224.102	5.25733
225.912	6.48406
227.721	6.3882
229.531	5.87165
231.34	5.67516
233.148	4.82324
234.956	4.33984
236.766	5.0264
238.574	5.09843
240.381	5.51521
242.188	4.98461
243.994	5.41244
245.801	5.93503
247.606	6.83892
249.412	7.20424
251.217	8.11586
253.024	8.38571
254.828	9.39679
256.632	9.09589
258.436	9.64953
260.239	8.79172
262.042	9.2423
263.845	9.26142
265.647	8.53762
267.449	8.78331
269.25	9.18535
271.052	9.87586
272.852	10.5573
274.653	10.1025
276.453	10.0524
278.253	9.54798
280.052	9.4347
281.852	9.46138
283.65	10.0074
285.449	10.0012
287.247	9.91226
289.044	9.82223
290.842	10.2095
292.639	10.8037
294.436	11.4443
296.232	12.3774
298.028	13.3631
299.821	14.2795
301.617	14.6158
303.412	15.9222
305.206	16.6609
307	17.8874
308.794	18.0541
310.588	19.6185
312.381	19.7598
314.172	19.534
315.964	18.877
317.756	18.3313
319.548	19.0318
321.34	18.8937
323.131	19.3911
324.921	20.4958
326.71	21.9056
328.5	21.7177
330.29	21.2506
332.079	20.5987
333.868	21.6468
335.654	21.8176
337.443	22.1718
339.231	21.8489
341.018	20.975
342.804	19.7392
344.591	19.1802
346.377	17.5258
348.163	16.6905
349.947	15.1776
351.733	15.0706
353.518	15.0948
355.303	15.2588
357.085	15.7168
358.869	15.9973
360.653	15.6512
362.435	14.4983
364.218	12.8756
366.001	12.8095
367.781	12.1804
369.563	12.192
371.345	11.9704
373.124	12.9378
374.905	13.9268
376.686	13.9199
378.464	14.0738
380.244	14.3085
382.022	13.4378
383.801	13.2998
385.58	13.7342
387.357	13.0259
389.135	12.7532
390.911	12.5187
392.689	12.8367
394.466	12.1097
396.241	12.6986
398.018	11.7604
399.792	11.5927
401.568	10.2326
403.341	9.68334
405.117	9.52783
406.889	9.82865
408.664	9.29133
410.436	8.18665
412.21	8.79432
413.981	8.54748
415.755	8.76182
417.525	7.92793
419.298	7.40091
421.068	7.33046
422.84	7.03193
424.609	7.35575
426.38	7.44517
428.149	6.94827
429.919	5.23273
431.688	5.6245
433.455	5.40004
435.225	5.03266
436.992	5.45842
438.76	5.98798
440.527	6.5168
442.293	6.91426
444.06	7.40215
445.826	7.5158
447.593	7.73625
449.357	7.39597
451.122	6.97247
452.888	7.08913
454.651	7.05367
456.415	7.18337
458.18	7.20967
459.942	7.20951
461.705	7.92865
463.469	8.20931
465.23	7.47311
466.991	7.29593
468.752	7.11978
470.515	6.49636
472.275	7.09473
474.035	7.75369
475.797	7.97808
477.556	8.55198
479.315	9.48098
481.073	10.1747
482.834	10.6536
484.592	11.7448
486.349	11.6251
488.106	12.3191
489.863	13.3301
491.622	14.2419
493.378	14.9503
495.134	16.2625
496.889	17.3114
498.645	18.8673
500.401	20.2904
502.156	21.7795
503.91	23.0643
505.664	22.8732
507.417	23.302
509.171	24.4541
510.923	25.4938
512.678	26.8658
514.43	27.1008
516.182	27.3398
517.933	27.0367
519.684	28.1042
521.435	27.9001
523.186	27.3776
524.936	27.5357
526.686	27.3184
528.435	26.5309
530.184	26.3949
531.933	26.2049
533.682	25.8143
535.43	25.1478
537.18	24.8365
538.927	23.9053
540.674	22.4119
542.421	21.6723
544.167	21.0814
545.913	19.708
547.659	18.5788
549.403	17.6703
551.148	16.7129
552.893	15.8688
554.637	15.0565
556.381	14.3003
558.125	13.9877
559.868	12.8134
561.611	12.3529
563.354	11.5414
565.097	11.0293
566.839	10.3365
568.581	9.64074
570.322	9.2174
572.063	8.57607
573.802	6.75447
575.542	6.36463
577.283	6.62933
579.022	6.25512
580.762	5.68414
582.501	6.5755
584.24	6.25412
585.976	5.59243
587.714	5.01611
589.452	5.45115
591.19	4.48994
592.927	3.78166
594.663	3.20545
596.398	2.61753
598.134	2.97488
599.87	3.09275
601.605	3.02829
603.338	2.62466
605.073	2.90289
606.808	3.0631
608.542	2.35303
610.274	1.72128
612.007	2.47743
613.74	3.73832
615.473	4.22559
617.204	4.77656
618.936	4.42983
620.668	4.52598
622.397	4.51892
624.128	4.4962
625.859	4.47577
627.588	4.97269
629.318	5.79528
631.048	6.29991
632.775	6.84622
634.505	7.38706
636.233	7.91309
637.96	8.41773
639.688	10.2539
641.416	10.3602
643.142	10.7432
644.869	11.4132
646.594	10.6267
648.32	12.093
650.045	12.6115
651.771	13.6689
653.496	14.1335
655.219	14.8707
656.944	15.0735
658.667	15.4221
660.391	15.8437
662.113	18.2603
663.837	18.9502
665.558	18.7986
667.281	19.0616
669.002	20.7295
670.724	20.589
672.444	21.2652
674.166	21.3247
675.885	21.6248
677.606	21.8733
679.325	21.8053
681.045	21.9268
682.763	22.6423
684.483	23.2876
686.2	22.9111
687.917	23.0535
689.636	23.9363
691.352	25.0864
693.07	25.7587
694.786	26.8659
696.501	28.2206
698.219	29.36
699.933	30.0245
701.65	30.3575
703.364	31.0629
705.078	31.8466
706.793	34.2178
708.506	35.7504
710.219	36.7664
711.934	38.2127
713.646	38.6723
715.358	39.3632
717.071	40.4377
718.782	40.9142
720.493	41.5856
722.204	42.7581
723.916	43.4653
725.626	45.4599
727.336	45.0488
729.045	46.043
730.756	47.1634
732.464	48.0263
734.173	50.1811
735.881	51.0532
737.59	52.3551
739.297	53.2923
741.004	53.8268
742.711	55.3773
744.417	57.2215
746.125	58.6376
747.831	60.8308
749.537	62.9979
751.242	64.6816
752.946	65.9278
754.651	67.3863
756.357	67.6466
758.061	68.2477
759.764	68.8269
761.467	70.1507
763.17	71.8474
764.872	71.8856
766.575	73.4407
768.276	74.2442
769.978	75.4724
771.679	77.1174
773.382	79.0064
775.083	80.4643
776.783	81.1668
778.483	82.5881
780.182	82.7578
781.882	82.9547
783.581	83.0508
785.279	83.6949
786.978	84.4737
788.676	84.6095
790.373	85.2511
792.071	85.2217
793.768	85.6264
795.464	85.2898
797.161	85.7512
798.857	85.7062
800.552	85.6726
802.248	85.1193
803.941	85.2115
805.636	85.2279
807.33	84.3897
809.024	83.3258
810.718	83.6786
812.412	83.0885
814.105	82.4739
815.798	81.8995
817.49	81.6235
819.183	81.4886
820.873	80.7611
822.564	81.7053
824.256	81.6429
825.947	80.8314
827.637	80.8991
829.328	80.4194
831.016	79.7532
832.705	80.0388
834.395	79.7096
836.084	78.4512
837.772	77.3211
839.459	77.4267
841.147	76.4445
842.835	75.3794
844.522	75.0981
846.209	73.355
847.894	72.9973
849.581	70.6649
851.267	69.3707
852.953	67.4517
854.637	66.6908
856.322	65.6419
858.007	64.6442
859.689	63.2576
861.374	61.9036
863.058	61.6833
864.739	60.7952
866.423	60.9536
868.106	60.1105
869.787	59.871
871.469	58.9299
873.151	58.4225
874.831	58.0427
876.512	57.6591
878.193	57.624
879.872	57.2127
881.553	56.8176
883.231	56.2314
884.911	56.2467
886.591	55.9427
888.268	55.0933
889.947	54.2925
891.623	53.6733
893.302	53.6355
894.978	53.4021
896.656	53.3375
898.331	52.5388
900.008	54.3766
901.683	55.2819
903.359	55.3002
905.033	55.3742
906.709	55.8594
908.383	55.3307
910.058	55.0592
911.731	55.4216
913.405	55.8752
915.078	56.2373
916.752	56.6938
918.423	56.3206
920.096	55.6191
921.768	55.241
923.438	55.0068
925.111	53.8201
926.781	52.4647
928.452	51.0086
930.122	49.9006
931.791	48.947
933.462	47.1346
935.13	47.0341
936.799	46.5725
938.468	46.3065
940.136	45.4971
941.803	45.2894
943.472	44.5079
945.139	43.7463
946.805	43.9358
948.473	43.989
950.139	44.1703
951.804	44.5322
953.471	46.1016
955.136	45.716
956.801	46.2276
958.465	46.6496
960.131	47.4267
961.794	47.1828
963.458	48.8027
965.12	49.7441
966.785	50.7034
968.447	51.4464
970.109	52.1197
971.771	52.7637
973.432	54.3505
975.095	54.9429
976.756	55.3562
978.417	55.9586
980.077	56.4699
981.737	56.7932
983.396	57.5686
985.057	56.7136
986.716	56.063
988.375	56.173
990.033	55.0114
991.691	54.5704
993.349	54.4694
995.006	53.921
996.663	53.0254
998.32	52.4661
999.976	52.0542
1001.63	50.9842
1003.29	50.873
1004.95	50.3602
1006.6	49.4169
1008.26	49.3319
1009.91	48.4872
1011.56	47.9042
1013.22	48.0032
1014.87	47.5309
1016.53	48.1645
1018.18	48.1829
1019.83	48.0968
1021.48	48.6343
1023.14	48.4063
1024.79	49.1559
1026.44	48.6042
1028.09	49.5906
1029.74	49.8812
1031.39	50.7417
1033.04	50.776
1034.69	50.544
1036.34	50.3313
1037.99	49.0659
1039.64	49.2468
1041.29	49.2354
1042.94	49.425
1044.58	48.7125
1046.23	49.6741
1047.88	49.9729
1049.52	48.5704
1051.17	47.8522
1052.82	46.9691
1054.46	44.8741
1056.11	44.2439
1057.75	41.7437
1059.4	39.5986
1061.04	38.4086
1062.69	37.2886
1064.33	36.8335
1065.98	34.8799
1067.62	33.3948
1069.26	31.4862
1070.9	31.0471
1072.55	29.8273
1074.19	29.8832
1075.83	30.2937
1077.47	29.8799
1079.11	30.1219
1080.76	30.8806
1082.4	30.7979
1084.04	30.2527
1085.68	30.8834
1087.32	30.7498
1088.95	31.2204
1090.59	31.7659
1092.23	31.7863
1093.87	32.2271
1095.51	32.5396
1097.15	33.2501
1098.78	33.7664
1100.42	33.9078
1102.06	34.3897
1103.69	35.1225
1105.33	35.5184
1106.97	35.5094
1108.6	34.773
1110.24	34.996
1111.87	34.4428
1113.51	34.6036
1115.14	34.5557
1116.77	34.8764
1118.41	34.5598
1120.04	34.3063
1121.67	33.2081
1123.31	32.5181
1124.94	31.1659
1126.57	29.7943
1128.2	29.4504
1129.83	28.4752
1131.47	26.4156
1133.1	25.1905
1134.72	24.2867
1136.36	22.5482
1137.98	22.3177
1139.62	21.6113
1141.24	21.0488
1142.87	21.0554
1144.5	20.5852
1146.13	20.3618
1147.76	19.8403
1149.38	19.8277
1151.01	19.3219
1152.64	19.7043
1154.27	18.9154
1155.89	18.2372
1157.52	18.3252
1159.14	17.1887
1160.77	16.3508
1162.39	15.5384
1164.02	15.1058
1165.64	15.4595
1167.27	15.9224
1168.89	16.3565
1170.51	16.837
1172.14	17.641
1173.76	18.255
1175.38	18.6434
1177	18.8101
1178.63	19.5254
1180.25	20.603
1181.87	20.8844
1183.49	22.1743
1185.11	22.4661
1186.73	22.9359
1188.35	22.8542
1189.97	24.0843
1191.59	24.7393
1193.21	25.3562
1194.83	26.485
1196.45	27.1617
1198.07	27.7767
1199.68	28.0012
1201.3	29.1092
1202.92	29.7578
1204.53	31.4216
1206.15	31.9468
1207.77	33.5177
1209.38	34.4622
1211	35.1605
1212.62	36.2932
1214.23	37.4641
1215.84	38.8164
1217.46	40.4794
1219.07	42.6469
1220.69	43.9951
1222.3	44.5142
1223.91	46.415
1225.53	49.2634
1227.14	51.4682
1228.75	52.6952
1230.36	53.9546
1231.97	55.6501
1233.59	56.6923
1235.2	56.9066
1236.81	58.1178
1238.42	60.064
1240.03	60.5772
1241.64	61.8507
1243.25	63.7227
1244.85	64.9199
1246.46	65.6897
1248.07	65.9813
1249.68	66.5982
1251.29	66.766
1252.9	67.6001
1254.5	67.9569
1256.11	68.2036
1257.72	69.0045
1259.32	70.2367
1260.93	71.3698
1262.54	71.3385
1264.14	72.329
1265.75	72.0906
1267.35	72.8125
1268.96	72.8914
1270.56	73.1094
1272.16	73.5848
1273.77	74.3114
1275.37	75.0899
1276.97	75.4666
1278.57	76.652
1280.18	76.8382
1281.78	77.2797
1283.38	77.9263
1284.98	78.2142
1286.58	77.732
1288.18	77.8139
1289.78	77.3113
1291.38	77.5726
1292.99	78.3414
1294.58	78.6768
1296.18	79.0051
1297.78	79.966
1299.38	79.7659
1300.98	80.1379
1302.58	81.5584
1304.17	82.6779
1305.77	83.5426
1307.37	83.6654
1308.97	83.3133
1310.56	83.7622
1312.16	82.97
1313.76	82.2447
1315.35	82.4584
1316.95	83.6582
1318.54	83.6451
1320.14	83.1173
1321.73	83.2533
1323.32	83.7941
1324.92	82.9333
1326.51	83.022
1328.1	82.917
1329.7	81.8261
1331.29	81.8525
1332.88	82.2136
1334.47	81.7289
1336.07	81.3687
1337.66	81.6432
1339.25	80.5479
1340.84	78.731
1342.43	77.6568
1344.02	76.4606
1345.61	74.982
1347.2	73.7632
1348.79	72.4166
1350.37	71.2546
1351.96	70.5053
1353.55	68.476
1355.14	67.3413
1356.73	65.5656
1358.31	64.3118
1359.9	62.4097
1361.49	60.7259
1363.07	59.8552
1364.66	57.9386
1366.25	56.2295
1367.83	54.9629
1369.42	53.987
1371	52.7348
1372.59	51.4907
1374.17	50.4843
1375.75	50.0511
1377.34	50.1204
1378.92	49.5434
1380.5	49.106
1382.09	49.0728
1383.67	48.002
1385.25	47.7869
1386.83	47.4364
1388.42	46.8732
1390	46.3727
1391.58	45.828
1393.16	45.9208
1394.74	46.118
1396.32	45.7827
1397.9	45.0594
1399.48	45.0449
1401.06	44.2257
1402.64	44.6913
1404.21	43.7501
1405.79	44.3001
1407.37	43.9202
1408.95	43.9717
1410.53	45.4577
1412.1	45.9941
1413.68	46.108
1415.26	47.2359
1416.83	47.9758
1418.41	48.5904
1419.98	49.7249
1421.56	51.7102
1423.13	52.6646
1424.71	55.4736
1426.28	57.6316
1427.86	59.9625
1429.43	62.4853
1431	64.6013
1432.58	65.9585
1434.15	69.242
1435.72	71.3495
1437.29	73.5982
1438.87	75.2703
1440.44	76.4145
1442.01	78.4523
1443.58	79.1687
1445.15	80.3884
1446.72	81.2883
1448.29	81.98
1449.86	82.1759
1451.43	82.2909
1453	82.9157
1454.57	83.3341
1456.14	83.137
1457.71	81.5554
1459.27	79.9864
1460.84	78.4922
1462.41	75.865
1463.98	74.0904
1465.54	72.1147
1467.11	69.415
1468.67	66.4389
1470.24	63.7457
1471.81	60.7757
1473.37	57.8335
1474.94	54.9118
1476.5	52.4576
1478.07	48.9228
1479.63	45.5308
1481.19	43.6673
1482.76	40.5779
1484.32	37.6954
1485.88	34.958
1487.45	32.2616
1489.01	30.0262
1490.57	27.7136
1492.13	25.0463
1493.69	22.782
1495.26	21.5679
1496.82	21.2892
1498.38	20.4892
1499.94	20.1787
1501.5	20.2454
1503.06	20.5196
1504.62	19.7594
1506.17	18.9703
1507.73	18.958
1509.29	18.8105
1510.85	18.7929
1512.41	19.6101
1513.97	19.3852
1515.52	20.0151
1517.08	20.5747
1518.64	21.6445
1520.19	22.8277
1521.75	23.4612
1523.31	24.4263
1524.86	24.7169
1526.42	25.2326
1527.97	25.9959
1529.52	26.8112
1531.08	27.9652
1532.63	29.0742
1534.19	29.6003
1535.74	29.8678
1537.29	31.4321
1538.85	32.6423
1540.4	33.705
1541.95	36.3574
1543.5	38.0532
1545.06	39.3372
1546.61	41.0027
1548.16	43.0765
1549.71	45.3372
1551.26	47.532
1552.81	49.5295
1554.36	50.8522
1555.91	52.554
1557.46	54.3605
1559.01	55.5385
1560.56	56.5913
1562.11	57.8399
1563.65	59.6349
1565.2	60.5197
1566.75	61.5237
1568.29	62.1962
1569.84	63.6111
1571.39	65.1024
1572.94	67.5652
1574.48	68.7752
1576.03	69.4046
1577.57	70.2663
1579.12	71.0865
1580.66	71.1558
1582.21	71.7432
1583.75	72.581
1585.3	73.3305
1586.84	73.9372
1588.38	73.6665
1589.93	74.2635
1591.47	74.5995
1593.01	74.5161
1594.55	73.5486
1596.1	73.2161
1597.64	72.2865
1599.18	71.7453
1600.72	70.4402
1602.26	69.239
1603.8	69.3751
1605.34	68.7776
1606.88	67.3211
1608.42	66.7977
1609.96	67.1317
1611.5	66.8919
1613.04	67.2374
1614.58	67.3878
1616.12	67.3557
1617.65	67.6344
1619.19	68.189
1620.73	68.3276
1622.27	68.5413
1623.8	69.4238
1625.34	71.3755
1626.87	71.4648
1628.41	71.9141
1629.95	72.5277
1631.48	73.5374
1633.02	75.0547
1634.55	75.6193
1636.09	76.8675
1637.62	78.2602
1639.15	79.8544
1640.69	80.9146
1642.22	81.5844
1643.76	82.6623
1645.29	83.6526
1646.82	85.1426
1648.35	86.4342
1649.88	88.3186
1651.42	88.4769
1652.95	88.8108
1654.48	88.7827
1656.01	89.0419
1657.54	89.5149
1659.07	89.4398
1660.6	88.2922
1662.13	86.8608
1663.66	86.2956
1665.19	83.9703
1666.72	82.7292
1668.24	80.954
1669.77	78.5402
1671.3	76.2641
1672.83	74.185
1674.35	72.1855
1675.88	69.097
1677.41	65.9717
1678.93	63.4495
1680.46	60.7473
1681.99	57.2484
1683.51	54.0075
1685.04	52.3878
1686.56	48.9259
1688.09	46.0468
1689.61	43.1707
1691.13	40.3222
1692.66	37.0614
1694.18	34.1341
1695.71	31.314
1697.23	28.6439
1698.75	26.5897
1700.27	24.2786
1701.8	22.3141
1703.32	18.772
1704.84	17.1777
1706.36	15.3757
1707.88	13.4097
1709.4	11.9625
1710.92	10.475
1712.44	9.24127
1713.96	8.17012
1715.48	7.48217
1717	5.73019
1718.52	4.47427
1720.04	4.03294
1721.56	3.38098
1723.07	3.29757
1724.59	3.67278
1726.11	3.14515
1727.63	2.41636
1729.14	2.65092
1730.66	2.28343
1732.18	2.67218
1733.69	2.21433
1735.21	1.32589
1736.72	1.09665
1738.24	1.98665
1739.75	1.50119
1741.27	0.959774
1742.78	1.15646
1744.3	1.09489
1745.81	0.750385
1747.32	0.989641
1748.84	0.933048
1750.35	0.470011
1751.86	-0.305054
1753.37	-0.239787
1754.89	0.0107303
1756.4	0.416342
1757.91	0.335358
1759.42	0.679849
1760.93	0.95448
1762.44	0.261206
1763.95	0.719096
1765.46	0.232667
1766.97	0.195304
1768.48	0.067105
1769.99	0.50318
1771.5	0.409653
1773.01	0.252079
1774.52	-0.0548101
1776.03	-0.634976
1777.53	-0.100703
1779.04	-0.513068
1780.55	-0.219599
1782.06	-0.311488
1783.56	-0.235511
1785.07	0.353002
1786.57	0.622562
1788.08	0.487838
1789.59	0.315559
1791.09	0.387778
1792.6	0.2531
1794.1	0.415543
1795.6	0.442358
1797.11	0.414853
1798.61	0.726753
1800.12	1.19985
1801.62	0.775986
1803.12	1.08248
1804.63	1.19758
1806.13	1.64446
1807.63	1.99897
1809.13	1.72936
1810.63	1.99316
1812.14	2.09577
1813.64	2.43994
1815.14	1.60953
1816.64	1.93326
1818.14	1.98016
1819.64	2.25351
1821.14	2.61917
1822.64	2.65953
1824.14	2.32785
1825.63	2.15723
1827.13	2.27211
1828.63	2.057
1830.13	2.4993
1831.63	2.82207
1833.12	2.61486
1834.62	2.87981
1836.12	2.60748
1837.62	2.65565
1839.11	2.78308
1840.61	2.81683
1842.1	2.93894
1843.6	2.76292
1845.09	2.72258
1846.59	2.58076
1848.08	2.39604
1849.58	2.27509
1851.07	2.61693
1852.57	3.22726
1854.06	3.07
1855.55	2.85658
1857.04	3.43832
1858.54	3.59999
1860.03	3.85985
1861.52	4.39089
1863.01	4.38417
1864.5	4.21781
1866	4.52453
1867.49	4.32833
1868.98	4.25832
1870.47	4.67758
1871.96	5.02526
1873.45	5.52857
1874.94	5.38724
1876.43	5.04035
1877.92	5.60139
1879.41	6.00467
1880.89	6.19777
1882.38	6.24918
1882.48	6.07715
1883.97	6.50285
1885.47	6.47654
1886.96	6.74668
1888.46	6.52155
1889.95	6.7225
1891.44	6.99301
1892.94	7.39922
1894.43	6.96598
1895.92	7.13094
1897.41	7.36265
1898.9	7.18924
1900.4	7.43002
1901.89	7.9986
1903.38	8.66737
1904.87	8.27882
1906.36	8.11508
1907.85	7.74792
1909.34	7.92496
1910.83	8.20118
1912.32	8.3911
1913.81	8.38626
1915.29	8.36803
1916.78	8.38107
1918.27	8.60778
1919.76	8.75602
1921.25	8.2732
1922.74	8.13072
1924.22	8.15752
1925.71	8.576
1927.2	8.24571
1928.68	8.61275
1930.17	8.97488
1931.65	8.32987
1933.14	8.19817
1934.63	8.44708
1936.11	8.05519
1937.59	7.77946
1939.08	7.59597
1940.56	7.558
1942.05	7.50314
1943.53	7.07652
1945.01	6.92081
1946.5	6.47016
1947.98	6.24486
1949.46	6.70803
1950.94	6.62352
1952.43	6.69692
1953.91	6.47645
1955.39	6.6496
1956.87	6.04619
1958.35	6.1093
1959.83	5.74031
1961.31	5.89755
1962.79	5.65992
1964.27	5.97172
1965.75	6.12818
1967.23	6.87572
1968.71	7.73983
1970.19	8.46115
1971.67	8.64974
1973.14	8.50543
1974.62	9.04383
1976.1	9.31276
1977.58	9.75488
1979.05	9.8823
1980.53	10.468
1982.01	11.1603
1983.48	12.0993
1984.96	12.3326
1986.43	12.0505
1987.91	12.0379
1989.38	12.2525
1990.86	12.7076
1992.33	13.2355
1993.81	13.3582
1995.28	13.1364
1996.76	13.9022
1998.23	13.715
1999.7	14.109
2001.18	13.7636
2002.65	13.8582
2004.12	13.6438
2005.59	13.1388
2007.06	13.2723
2008.54	13.2353
2010.01	13.0424
2011.48	13.2648
2012.95	13.6808
2014.42	13.8414
2015.89	13.4272
2017.36	13.6452
2018.83	14.1742
2020.3	14.3058
2021.77	14.264
2023.24	14.2028
2024.71	13.7826
2026.17	13.5363
2027.64	13.2809
2029.11	13.5564
2030.58	13.4205
2032.04	13.2689
2033.51	13.608
2034.98	13.7826
2036.45	14.173
2037.91	14.902
2039.38	15.1972
2040.84	15.8979
2042.31	16.0054
2043.77	15.6121
2045.24	16.1737
2046.7	15.8307
2048.17	16.3551
2049.63	16.2324
2051.1	16.6262
2052.56	16.5198
2054.02	16.5147
2055.48	16.3216
2056.95	16.3927
2058.41	16.0384
2059.87	16.2066
2061.33	16.6164
2062.8	16.963
2064.26	17.0084
2065.72	16.9117
2067.18	16.7941
2068.64	17.0808
2070.1	17.8692
2071.56	17.5429
2073.02	18.3417
2074.48	18.4754
2075.94	18.9973
2077.4	19.2767
2078.86	19.0449
2080.31	20.0068
2081.77	20.3015
2083.23	20.8286
2084.69	21.5473
2086.14	21.8577
2087.6	21.6281
2089.06	22.8832
2090.52	24.0155
2091.97	23.8132
2093.43	24.3327
2094.88	24.5423
2096.34	25.7173
2097.79	25.7663
2099.25	26.7939
2100.7	28.3536
2102.16	29.2982
2103.61	30.0189
2105.07	31.0618
2106.52	32.1355
2107.97	32.9011
2109.43	34.2943
2110.88	34.9101
2112.33	35.8817
2113.78	37.0746
2115.24	38.1261
2116.69	39.6753
2118.14	40.9887
2119.59	41.6815
2121.04	43.2123
2122.49	44.5229
2123.94	46.0991
2125.39	47.3816
2126.84	48.4121
2128.29	49.6557
2129.74	51.5705
2131.19	52.5998
2132.64	53.7483
2134.09	55.2564
2135.54	56.5285
2136.98	58.6211
2138.43	60.3697
2139.88	62.0891
2141.33	63.9701
2142.77	65.6779
2144.22	66.9353
2145.67	68.6236
2147.11	69.796
2148.56	71.3046
2150.01	72.5429
2151.45	73.9103
2152.9	75.8852
2154.34	77.1188
2155.79	78.4843
2157.23	80.3487
2158.67	82.0197
2160.12	83.5317
2161.56	84.9405
2163	85.5644
2164.45	86.2443
2165.89	87.4287
2167.33	88.5212
2168.78	89.494
2170.22	89.6605
2171.66	90.771
2173.1	90.8305
2174.54	91.2193
2175.98	91.5028
2177.42	91.5659
2178.86	91.0892
2180.3	91.1245
2181.74	90.9864
2183.18	89.8162
2184.62	89.5232
2186.06	89.0716
2187.5	88.2448
2188.94	87.8642
2190.38	86.3174
2191.82	84.5432
2193.25	83.1629
2194.69	81.9053
2196.13	79.9935
2197.57	78.3708
2199	76.6363
2200.44	74.773
2201.88	72.5202
2203.31	70.4451
2204.75	68.6904
2206.18	67.1587
2207.62	65.1184
2209.05	63.5169
2210.49	61.0543
2211.92	59.1307
2213.36	57.2976
2214.79	55.754
2216.22	54.4381
2217.66	52.8416
2219.09	50.9257
2220.52	49.179
2221.96	47.42
2223.39	46.0897
2224.82	44.6633
2226.25	43.0488
2227.68	41.2065
2229.11	39.5866
2230.55	37.4715
2231.98	35.8906
2233.41	34.34
2234.84	33.2409
2236.27	32.1363
2237.7	31.487
2239.12	30.925
2240.55	29.8358
2241.98	28.7959
2243.41	28.4847
2244.84	27.8988
2246.27	27.5356
2247.7	26.9687
2249.12	26.4596
2250.55	25.9717
2251.98	25.5317
2253.41	24.953
2254.83	23.7296
2256.26	24.025
2257.68	24.0335
2259.11	23.7337
2260.54	23.2505
2261.96	22.2955
2263.39	21.847
2264.81	21.7384
2266.24	21.5291
2267.66	21.4572
2269.08	21.1787
2270.51	21.0482
2271.93	20.7439
2273.35	20.0237
2274.78	20.2224
2276.2	19.8499
2277.62	19.8746
2279.04	20.0651
2280.47	19.9794
2281.89	20.0459
2283.31	19.9894
2284.73	19.7739
2286.15	19.8127
2287.57	19.157
2288.99	17.7742
2290.41	16.4303
2291.83	15.1932
2293.25	14.5584
2294.67	13.9003
2296.09	13.3583
2297.51	12.5455
2298.93	12.0526
2300.35	12.1149
2301.76	12.2925
2303.18	12.8202
2304.6	12.6479
2306.02	12.6629
2307.44	12.5316
2308.85	11.5618
2310.27	11.0862
2311.69	11.3274
2313.1	11.2822
2314.52	11.8007
2315.93	11.7522
2317.35	11.8824
2318.76	11.548
2320.18	11.3807
2321.59	11.239
2323.01	10.6399
2324.42	10.0574
2325.83	9.92977
2327.25	10.3143
2328.66	9.80221
2330.07	9.03126
2331.49	8.62175
2332.9	8.29635
2334.31	8.58131
2335.72	8.4819
2337.13	8.56399
2338.55	8.6169
2339.96	8.19043
2341.37	8.01328
2342.78	7.87884
2344.19	7.43742
2345.6	7.63847
2347.01	7.75108
2348.42	8.18258
2349.83	7.78735
2351.24	7.24499
2352.65	6.68942
2354.05	6.18845
2355.46	5.45269
2356.87	5.02009
2358.28	4.24847
2359.69	3.88216
2361.09	3.55514
2362.5	3.4694
2363.91	4.31458
2365.31	4.42103
2366.72	4.27585
2368.13	4.19438
2369.53	4.77875
2370.94	4.8935
2372.34	4.34993
2373.75	3.66249
2375.15	3.38101
2376.56	3.36963
2377.96	2.98527
2379.37	2.71957
2380.77	3.05231
2382.17	2.8786
2383.58	2.59836
2384.98	2.97885
2386.38	2.62929
2387.79	2.60791
2389.19	2.38161
2390.59	2.69495
2391.99	2.40096
2393.39	2.47865
2394.8	2.51179
2396.2	2.75145
2397.6	2.66021
2399	2.77872
2400.4	3.03159
2401.8	3.69202
2403.2	3.55976
2404.6	4.35633
2406	4.39287
2407.4	4.63687
2408.79	5.00908
2410.19	5.11169
2411.59	4.97895
2412.99	4.98035
2414.39	4.58433
2415.78	4.80713
2417.18	4.94293
2418.58	4.68713
2419.98	4.16852
2421.37	3.78934
2422.77	3.41802
2424.16	3.72305
2425.56	3.37523
2426.96	3.16923
2428.35	3.30495
2429.74	3.52917
2431.14	3.43983
2432.53	3.36262
2433.93	3.57702
2435.32	2.84962
2436.72	2.83166
2438.11	3.12965
2439.5	3.32706
2440.9	3.44098
2442.29	2.97899
2443.68	2.64297
2445.07	2.51618
2446.47	2.28491
2447.86	2.01423
2449.25	2.03614
2450.64	2.21373
2452.03	2.45849
2453.42	2.82954
2454.81	3.0561
2456.2	3.06669
2457.59	2.95868
2458.98	3.28423
2460.37	3.27006
2461.76	3.38535
2463.15	3.73552
2464.54	3.75446
2465.93	3.99467
2467.32	4.16515
2468.7	4.21399
2470.09	4.15743
2471.48	3.9745
2472.87	4.04735
2474.25	4.77774
2475.64	4.54318
2477.03	4.31921
2478.41	4.29542
2479.8	3.81336
2481.18	4.09299
2482.57	3.24337
2483.95	2.91856
2485.34	2.99149
2486.72	2.49411
2488.11	2.2721
2489.49	2.11071
2490.88	1.88085
2492.26	2.03001
2493.65	2.42963
2495.03	1.90884
2496.41	1.64263
2497.79	1.70725
2499.18	1.40361
2500.56	1.28518
2501.94	1.04719
2503.32	0.785876
2504.7	0.522156
2506.09	0.603523
2507.47	0.616936
2508.85	0.380269
2510.23	-0.226155
2511.61	-1.30492
2512.99	-1.3756
2514.37	-0.528387
2515.75	-0.172413
2517.13	-0.373338
2518.51	-0.172642
2519.89	0.198051
2521.26	0.139095
2522.64	0.436082
2524.02	0.319392
2525.4	0.75522
2526.78	1.57235
2528.15	2.26505
2529.53	2.60008
2530.91	3.36314
2532.28	2.80195
2533.66	3.05959
2535.04	3.18858
2536.41	3.64184
2537.79	3.76799
2539.16	3.97189
2540.54	4.78417
2541.91	5.6689
2543.29	5.80991
2544.66	5.71225
2546.04	6.00512
2547.41	6.39555
2548.78	6.39866
2550.16	6.61128
2551.53	6.0694
2552.9	6.50662
2554.27	7.05427
2555.65	7.1494
2557.02	7.59906
2558.39	7.23531
2559.76	7.47309
2561.13	7.03225
2562.51	6.82274
2563.88	6.61441
2565.25	6.70998
2566.62	7.01425
2567.99	7.02634
2569.36	6.93657
2570.73	6.75012
2572.1	6.24241
2573.47	6.3124
2574.84	5.69391
2576.2	5.3026
2577.57	4.89879
2578.94	4.72007
2580.31	4.64039
2581.68	4.70518
2583.05	4.40899
2584.41	3.66008
2585.78	3.68623
2587.15	3.83559
2588.51	3.61416
2589.88	3.38604
2591.24	3.09486
2592.61	2.64458
2593.98	2.70979
2595.34	2.83882
2596.71	1.78132
2598.07	1.18383
2599.44	0.936087
2600.8	0.455628
2602.16	1.03596
2603.53	0.836684
2604.89	0.668484
2606.26	0.493446
2607.62	0.642546
2608.98	0.562634
2610.34	0.177445
2611.71	-0.137842
2613.07	-0.190012
2614.43	0.0523832
2615.79	-0.0598787
2617.15	-0.192006
2618.52	0.0460661
2619.88	-0.169553
2621.24	-0.310489
2622.6	0.301668
2623.96	0.434483
2625.32	0.358427
2626.68	0.256798
2628.04	0.762766
2629.4	0.245228
2630.75	0.187092
2632.11	0.69367
2633.47	0.848177
2634.83	0.87306
2636.19	0.891233
2637.55	0.891537
2638.9	1.02534
2640.26	0.973305
2641.62	1.31613
2642.98	0.956592
2644.33	0.949378
2645.69	0.990559
2647.04	0.557926
2648.4	0.394138
2649.76	0.35321
2651.11	0.383604
2652.47	0.793637
2653.82	0.73606
2655.18	0.654698
2656.53	0.452325
2657.88	0.802109
2659.24	0.0987963
2660.59	0.431478
2661.95	1.07428
2663.3	1.25925
2664.65	1.09453
2666	1.81842
2667.36	2.723
2668.71	2.64904
2670.06	2.89327
2671.41	3.04398
2672.76	3.37926
2674.12	3.36454
2675.47	3.45181
2676.82	3.45208
2678.17	4.10162
2679.52	4.27555
2680.87	4.49475
2682.22	4.70306
2683.57	4.63941
2684.92	4.91872
2686.27	5.35378
2687.62	5.09463
2688.97	5.42601
2690.31	5.56723
2691.66	5.19886
2693.01	5.69127
2694.36	5.88738
2695.71	5.97226
2697.05	5.75367
2698.4	6.28961
2699.75	6.90258
2701.09	6.73179
2702.44	6.88333
2703.78	7.00912
2705.13	7.31403
2706.48	7.58202
2707.82	8.04949
2709.17	8.0751
2710.51	8.14639
2711.86	9.16819
2713.2	9.82972
2714.54	10.242
2715.89	10.913
2717.23	11.1852
2718.57	11.9991
2719.92	12.6415
2721.26	12.5548
2722.6	12.6246
2723.95	12.6081
2725.29	12.8662
2726.63	12.9025
2727.97	13.5278
2729.31	13.6814
2730.65	13.5117
2732	13.9354
2733.34	14.0541
2734.68	13.9661
2736.02	13.7631
2737.36	14.0521
2738.7	14.1196
2740.04	14.0477
2741.38	13.742
2742.72	14.0072
2744.05	13.3565
2745.39	13.0422
2746.73	12.9713
2748.07	12.6771
2749.41	12.4894
2750.75	12.2398
2752.08	12.0682
2753.42	11.7467
2754.76	11.3859
2756.09	10.8577
2757.43	10.5119
2758.77	10.0658
2760.1	10.3025
2761.44	9.63416
2762.78	9.22546
2764.11	8.4779
2765.44	8.47709
2766.78	8.36892
2768.11	8.9154
2769.45	8.91492
2770.78	8.99136
2772.12	8.85686
2773.45	8.7859
2774.78	9.27986
2776.12	8.91463
2777.45	9.29934
2778.78	9.96467
2780.12	9.55925
2781.45	9.35045
2782.78	9.13949
2784.11	9.38318
2785.44	9.1051
2786.78	8.94425
2788.11	8.54588
2789.44	8.42086
2790.77	8.75402
2792.1	8.77833
2793.43	8.96755
2794.76	8.92407
2796.09	9.04253
2797.42	9.42058
2798.75	9.68278
2800.08	9.75792
2801.4	10.1663
2802.73	10.3929
2804.06	10.4167
2805.39	10.6243
2806.72	10.5262
2808.05	10.4186
2809.37	10.362
2810.7	10.0885
2812.03	10.5954
2813.35	10.559
2814.68	10.0021
2816.01	10.7152
2817.33	10.7817
2818.66	11.0425
2819.98	11.6671
2821.31	12.044
2822.63	12.8806
2823.96	14.6761
2825.28	15.4493
2826.61	17.229
2827.93	18.7909
2829.25	20.4001
2830.58	21.9328
2831.9	24.3324
2833.23	25.8617
2834.55	27.8303
2835.87	29.4972
2837.19	31.8701
2838.52	33.9538
2839.84	36.6495
2841.16	39.4265
2842.48	42.2422
2843.8	45.7479
2845.12	49.6566
2846.44	53.2877
2847.77	57.2867
2849.08	61.7164
2850.4	65.671
2851.73	70.056
2853.05	75.0203
2854.36	79.3597
2855.68	84.8209
2857	90.2349
2858.32	94.6862
2859.64	100.093
2860.96	104.895
2862.28	109.871
2863.59	114.318
2864.91	118.347
2866.23	122.853
2867.55	127.234
2868.86	131.214
2870.18	134.91
2871.5	138.593
2872.81	141.494
2874.13	144.609
2875.44	147.376
2876.76	149.847
2878.07	152.046
2879.39	154.273
2880.7	157.087
2882.02	159.902
2883.33	162.183
2884.65	165.138
2885.96	167.99
2887.28	170.164
2888.59	172.845
2889.9	174.76
2891.21	176.794
2892.53	179.393
2893.84	181.667
2895.15	184.202
2896.46	187.112
2897.78	190.962
2899.09	194.836
2900.4	198.725
2901.71	202.627
2903.02	207.256
2904.33	212.582
2905.64	217.784
2906.95	224.035
2908.26	230.374
2909.57	237.138
2910.88	244.403
2912.19	251.606
2913.5	258.299
2914.81	265.219
2916.12	271.752
2917.43	279.135
2918.73	285.583
2920.04	291.405
2921.35	297.73
2922.66	302.653
2923.96	306.456
2925.27	310.837
2926.58	313.951
2927.88	317.004
2929.19	319.538
2930.5	321.681
2931.8	323.086
2933.11	323.936
2934.41	323.513
2935.72	322.489
2937.02	321.504
2938.33	319.606
2939.63	317.204
2940.94	313.835
2942.24	310.333
2943.54	307.128
2944.85	303.541
2946.15	299.14
2947.45	294.677
2948.76	290.651
2950.06	285.217
2951.36	279.744
2952.66	273.409
2953.97	267.806
2955.27	261.903
2956.57	256.536
2957.87	250.562
2959.17	244.873
2960.47	239.672
2961.77	234.384
2963.07	228.577
2964.37	222.87
2965.67	216.839
2966.97	211.687
2968.27	207.213
2969.57	202.481
2970.87	197.407
2972.17	193.225
2973.47	188.847
2974.77	183.953
2976.07	179.222
2977.36	174.111
2978.66	168.684
2979.96	163.788
2981.26	158.702
2982.55	153.855
2983.85	147.938
2985.15	142.447
2986.44	137.239
2987.74	131.6
2989.03	125.932
2990.33	121.236
2991.63	116.308
2992.92	110.885
2994.21	106.167
2995.51	100.959
2996.8	96.3184
2998.1	91.7879
2999.39	86.9122
3000.69	82.8867
3001.98	78.6822
3003.27	74.1237
3004.57	69.9416
3005.86	66.1838
3007.15	63.1858
3008.44	60.5816
3009.74	57.4422
3011.03	55.1064
3012.32	52.8464
3013.61	50.7379
3014.9	47.5684
3016.19	45.7553
3017.48	43.4013
3018.78	42.0483
3020.07	40.5357
3021.36	38.7248
3022.65	37.1686
3023.94	35.5313
3025.23	34.1194
3026.51	33.0314
3027.8	32.1439
3029.09	32.0817
3030.38	31.3112
3031.67	31.2239
3032.96	31.9327
3034.24	31.9878
3035.53	32.1743
3036.82	32.1531
3038.11	32.1704
3039.39	31.7944
3040.68	32.5875
3041.97	32.737
3043.25	32.8306
3044.54	33.2159
3045.83	33.5495
3047.11	33.567
3048.4	33.3203
3049.68	33.4883
3050.97	33.497
3052.25	33.7198
3053.54	33.9486
3054.82	34.0142
3056.11	34.27
3057.39	33.7707
3058.67	33.7403
3059.96	33.5819
3061.24	33.5286
3062.52	33.0959
3063.81	32.5462
3065.09	31.4598
3066.37	30.1985
3067.65	29.6945
3068.94	28.973
3070.22	28.5503
3071.5	27.8816
3072.78	27.1381
3074.06	25.9013
3075.34	24.4913
3076.62	23.6238
3077.9	22.4509
3079.18	21.051
3080.46	19.8559
3081.74	18.361
3083.02	16.9844
3084.3	15.4339
3085.58	14.458
3086.86	13.516
3088.14	12.5915
3089.42	11.5644
3090.69	10.8567
3091.97	10.0671
3093.25	9.49364
3094.53	8.50486
3095.8	7.84107
3097.08	7.35343
3098.36	6.32676
3099.63	5.11859
3100.91	4.21531
3102.19	3.77082
3103.46	3.21537
3104.74	2.71634
3106.01	2.19937
3107.29	2.18078
3108.56	1.85871
3109.84	1.3331
3111.11	0.883744
3112.39	0.900763
3113.66	0.738466
3114.94	0.850513
3116.21	1.52106
3117.48	1.75662
3118.76	1.62414
3120.03	1.57854
3121.3	1.10521
3122.57	1.19488
3123.85	1.58505
3125.12	1.29113
3126.39	1.03611
3127.66	0.756468
3128.93	0.624761
3130.21	1.09112
3131.48	1.60047
3132.75	1.27112
3134.02	1.28441
3135.29	0.921911
3136.56	0.93854
3137.83	0.678771
3139.1	0.486644
3140.37	0.592624
3141.64	-0.236702
3142.91	-0.644184
3144.17	-1.21772
3145.44	-1.99148
3146.71	-2.96458
3147.98	-4.58888
3149.25	-7.54825
