#Acq. time (s)=	45
#Accumulations=	2
#Range (cm-¹)=	200...3150
#Windows=	2
#Auto scanning=	Off
#Autofocus=	Off
#Macrospot=	Off
#AutoExposure=	Off
#Spike filter=	Multiple accum.
#Delay time (s)=	0
#Binning=	1
#Readout mode=	Signal
#DeNoise=	Off
#ICS correction=	On
#Dark correction=	Off
#Inst. Process=	Off
#Detector Gain=	Best Dynamic Range
#Detector ADC=	20 kHz       
#Detector temperature (°C)=	-69.85
#Instrument=	LabRAM HR Evol
#Detector=	Synapse
#Objective=	x100
#Grating=	600 gr/mm
#ND Filter=	100%
#Laser (nm)=	532 
#Hole=	100.021
#Range=	Auto
#Laser Pol.=	No
#Raman. Pol.=	No
#Laser Pol. (°)=	-0.0007625
#Raman Pol. (°)=	89.9995
#Collection=	Microscope
#StageXY=	Marzhauser
#StageZ=	Marzhauser
#X (µm)=	-2372.5
#Y (µm)=	229
#Z (µm)=	521.4
#Full time(mm:ss)=	3:05
#Project=	
#Sample=	
#Site=	
#Title=	Thy_10_08_37_2x_45s_532 nm_x100_100%_600 gr_mm
#Remark=	
#Date=	06.07.2022 14:25
#Acquired=	06.07.2022 14:25:20
#Base:Fit=	10.08.2022 09:46:25
#Base:Sub=	10.08.2022 09:46:49
#Filter:Polynom=	16.08.2022 10:24:56
#AxisType[0]=Intens
#AxisUnit[0]=Cnt
#AxisType[1]=Spectr
#AxisUnit[1]=1/cm
200.398	5.19562
202.213	4.4857
204.027	3.94018
205.843	3.79534
207.657	3.45158
209.47	2.96283
211.283	2.76331
213.097	2.44289
214.909	2.50568
216.721	2.68674
218.533	2.54197
220.344	2.93541
222.157	2.52624
223.967	2.72174
225.777	2.08646
227.587	2.60633
229.396	3.11119
231.205	3.58736
233.016	4.70502
234.824	4.55603
236.632	3.98931
238.439	3.32439
240.247	3.34002
242.053	2.82293
243.86	2.24324
245.666	2.30205
247.474	2.813
249.279	3.4383
251.085	4.23426
252.889	4.97488
254.694	5.30473
256.498	5.33184
258.301	5.07193
260.105	4.9918
261.908	5.41117
263.71	5.84764
265.513	6.09208
267.315	7.53453
269.116	8.08759
270.918	8.42901
272.718	7.96597
274.519	8.04905
276.319	8.65019
278.119	8.54769
279.918	8.64583
281.718	8.86606
283.516	9.42829
285.315	9.88359
287.113	9.81228
288.911	10.2595
290.708	11.0184
292.505	11.1358
294.302	11.5155
296.098	11.1251
297.894	11.6475
299.69	11.7377
301.485	12.2177
303.278	12.5291
305.073	13.6741
306.867	13.8565
308.661	14.1556
310.454	14.1386
312.247	14.7172
314.04	15.3404
315.833	15.6353
317.623	16.5471
319.415	16.7382
321.206	16.5438
322.997	16.314
324.788	14.8814
326.579	14.8454
328.367	14.8322
330.156	15.3625
331.946	15.087
333.735	16.0061
335.523	17.2558
337.31	17.4963
339.098	17.5128
340.885	17.4494
342.673	17.0889
344.458	17.3291
346.244	17.1311
348.03	16.855
349.816	16.469
351.6	16.6064
353.385	16.1135
355.17	15.0006
356.953	14.9078
358.737	14.0612
360.521	12.8457
362.304	12.3409
364.085	12.4837
365.868	12.499
367.65	12.8749
369.431	12.4154
371.212	11.4419
372.994	11.9546
374.773	11.9675
376.554	12.035
378.332	12.6015
380.112	12.6959
381.892	12.1854
383.669	11.9105
385.448	11.195
387.225	11.1359
389.003	11.003
390.781	11.6295
392.557	11.6927
394.334	12.249
396.109	11.677
397.885	11.9254
399.66	11.5116
401.436	11.3913
403.211	10.8761
404.984	10.7305
406.759	10.0934
408.532	9.82395
410.306	9.2248
412.078	9.04718
413.851	8.93461
415.623	9.53441
417.395	9.07324
419.166	9.05112
420.938	8.3243
422.708	8.3407
424.477	8.08957
426.248	7.77677
428.017	7.99385
429.788	8.52687
431.556	8.02155
433.326	7.94718
435.093	6.92292
436.86	6.66066
438.629	6.86702
440.395	6.48754
442.163	5.61253
443.929	5.89629
445.694	6.44012
447.461	6.97539
449.226	7.24375
450.99	7.84253
452.756	8.84399
454.52	9.35879
456.285	10.0935
458.048	9.81569
459.811	11.2152
461.573	13.1212
463.337	13.2739
465.099	13.8826
466.86	14.3761
468.623	14.4493
470.384	14.8826
472.144	14.7801
473.906	14.9687
475.666	15.4081
477.425	16.0099
479.184	16.8072
480.944	16.5443
482.703	17.4598
484.461	17.4138
486.218	17.7307
487.975	17.8675
489.734	17.8086
491.491	18.3009
493.247	18.0601
495.003	18.5216
496.759	18.6542
498.516	19.1847
500.271	19.7387
502.025	19.7901
503.779	20.0415
505.533	19.0265
507.287	19.4695
509.042	20.1822
510.795	20.5243
512.547	20.9832
514.299	20.7034
516.051	20.2879
517.803	19.9703
519.554	18.7795
521.305	18.608
523.055	18.4911
524.805	18.7669
526.555	18.7098
528.307	17.7839
530.056	18.2611
531.805	18.4328
533.553	18.3222
535.301	19.0032
537.049	18.1689
538.797	17.376
540.544	16.7979
542.291	16.6492
544.037	15.8207
545.783	15.4473
547.529	15.3114
549.275	14.712
551.02	13.8713
552.765	13.4866
554.509	12.3219
556.253	12.4207
557.997	11.3159
559.738	10.2436
561.482	9.40536
563.224	8.64111
564.967	8.19489
566.709	8.36915
568.451	8.04915
570.192	7.92644
571.933	7.5366
573.674	6.72365
575.415	6.00241
577.153	5.31613
578.893	5.18095
580.632	4.62041
582.371	4.58794
584.11	4.32801
585.849	4.33962
587.587	3.5117
589.323	2.78786
591.06	2.46806
592.797	1.47886
594.534	2.23321
596.271	2.40045
598.005	2.13284
599.741	2.54573
601.476	2.0919
603.211	2.22721
604.944	2.38789
606.679	2.61393
608.413	3.63356
610.147	4.51077
611.878	5.75021
613.611	6.17802
615.344	6.2607
617.077	6.65227
618.807	6.67111
620.539	7.11313
622.27	6.46235
623.999	5.84828
625.73	6.55849
627.461	7.1859
629.189	7.84077
630.919	8.02967
632.648	9.2964
634.376	9.89497
636.105	10.2772
637.833	11.0345
639.559	11.1653
641.287	11.2377
643.013	11.9606
644.74	11.7669
646.467	12.3074
648.192	13.3814
649.918	13.5524
651.642	14.7049
653.368	15.6872
655.091	16.4395
656.816	16.1825
658.538	16.8383
660.263	16.3718
661.987	17.0313
663.708	17.2364
665.432	17.3732
667.153	17.7574
668.875	18.7265
670.596	18.6499
672.318	18.2256
674.037	18.4858
675.759	18.6804
677.478	19.171
679.196	19.6943
680.917	21.298
682.635	21.8608
684.355	22.38
686.072	22.4145
687.791	22.3102
689.508	22.9967
691.224	24.0359
692.942	24.4788
694.658	25.4035
696.376	25.1363
698.091	25.906
699.805	25.8703
701.522	26.3905
703.236	26.7342
704.95	28.4588
706.665	29.6148
708.379	30.2565
710.093	31.3587
711.806	32.2184
713.518	33.2613
715.23	33.9084
716.943	35.0167
718.655	36.6556
720.366	38.0414
722.078	38.9796
723.788	41.0149
725.498	41.3793
727.208	42.4963
728.919	44.0097
730.628	45.3341
732.337	45.9534
734.045	47.0614
735.755	47.6585
737.463	49.1814
739.17	50.1522
740.877	50.2238
742.584	50.059
744.292	51.4131
745.998	52.2834
747.704	53.5741
749.409	54.4654
751.114	55.4492
752.819	56.2057
754.526	56.2166
756.23	56.704
757.934	57.7932
759.637	59.1523
761.34	60.9318
763.043	61.7301
764.746	62.214
766.448	63.4098
768.152	63.6678
769.853	64.9146
771.554	64.8651
773.255	64.949
774.956	66.6669
776.656	67.0893
778.356	67.1427
780.056	67.5877
781.755	66.9128
783.454	68.1318
785.153	68.1039
786.851	68.5933
788.549	69.2879
790.247	71.0501
791.944	71.4636
793.641	71.4587
795.338	72.5664
797.034	73.7742
798.73	75.0698
800.426	75.7418
802.121	76.3165
803.817	77.5931
805.511	77.7679
807.206	76.9778
808.9	77.1452
810.592	76.6243
812.286	77.3619
813.979	77.3771
815.672	77.5631
817.364	77.2058
819.057	77.0035
820.748	77.8871
822.44	77.4722
824.129	77.6914
825.82	77.1079
827.511	77.6679
829.201	78.4083
830.891	77.9858
832.581	78.1758
834.269	77.9622
835.958	76.6245
837.646	76.2792
839.335	75.5959
841.023	75.7436
842.709	75.3906
844.396	75.2741
846.084	74.3339
847.77	72.0063
849.455	71.5255
851.141	71.2428
852.827	70.1192
854.513	69.7892
856.196	67.9272
857.881	67.1205
859.566	66.9597
861.248	64.9293
862.932	63.9218
864.616	62.6708
866.297	61.9318
867.98	61.7927
869.663	61.0614
871.343	60.6072
873.026	60.3319
874.707	60.1831
876.387	59.8137
878.068	59.1655
879.747	59.0434
881.428	57.9534
883.108	57.7658
884.786	56.8543
886.465	56.4296
888.143	56.2723
889.822	55.3875
891.498	55.0349
893.177	55.2098
894.855	56.2142
896.53	55.4928
898.208	54.4326
899.883	55.2336
901.56	55.5098
903.234	55.0792
904.91	55.78
906.584	54.714
908.26	54.9652
909.933	54.6869
911.608	54.7819
913.28	54.8302
914.955	54.3974
916.627	54.1058
918.298	53.2533
919.972	52.0549
921.643	52.2741
923.315	52.1198
924.986	52.5475
926.656	52.5969
928.328	52.2312
929.997	51.4279
931.668	50.5784
933.337	50.5009
935.006	50.0528
936.676	49.7505
938.344	49.101
940.012	47.2546
941.681	46.3152
943.348	45.0618
945.014	43.7503
946.683	43.2514
948.349	42.0895
950.015	40.9374
951.682	40.2106
953.347	39.3851
955.012	38.0167
956.676	36.8531
958.343	35.3
960.006	33.9118
961.67	32.8684
963.333	32.7187
964.998	32.5947
966.661	32.958
968.323	32.0242
969.985	32.5647
971.649	32.1095
973.31	32.2473
974.971	32.076
976.632	32.5355
978.293	33.1431
979.953	32.4426
981.615	33.1073
983.274	33.5675
984.933	32.9223
986.592	32.3642
988.251	32.3616
989.909	32.3665
991.567	33.0483
993.225	32.5268
994.884	31.8588
996.541	31.4291
998.198	31.4046
999.855	30.6919
1001.51	30.167
1003.17	29.399
1004.82	30.1503
1006.48	29.8927
1008.13	29.1424
1009.79	28.3553
1011.44	27.9245
1013.1	26.4726
1014.75	25.7969
1016.4	26.2611
1018.06	25.5474
1019.71	24.8272
1021.36	24.117
1023.01	22.485
1024.66	21.4868
1026.32	21.1711
1027.97	21.2164
1029.62	20.7623
1031.27	19.4923
1032.92	19.1159
1034.57	18.6192
1036.22	17.0076
1037.87	15.6302
1039.52	14.7986
1041.16	14.8978
1042.81	15.1613
1044.46	15.4955
1046.11	15.1741
1047.76	14.5021
1049.4	13.9418
1051.05	12.9219
1052.7	13.8896
1054.34	12.8452
1055.99	12.6791
1057.63	12.6334
1059.28	12.5894
1060.92	11.6272
1062.57	11.3626
1064.21	10.817
1065.85	10.6798
1067.5	10.3111
1069.14	10.3129
1070.78	9.92706
1072.43	10.4337
1074.07	10.0595
1075.71	9.16266
1077.35	8.79827
1078.99	9.50189
1080.63	9.05901
1082.27	9.05432
1083.91	9.30161
1085.55	9.6807
1087.19	10.7709
1088.83	10.2042
1090.47	11.0848
1092.11	11.5115
1093.75	12.6099
1095.39	12.4223
1097.03	12.698
1098.66	13.1669
1100.3	13.161
1101.94	13.8537
1103.57	13.8156
1105.21	13.4339
1106.84	15.2308
1108.48	15.0949
1110.11	14.9726
1111.75	14.9578
1113.38	14.4345
1115.02	13.7834
1116.65	13.1344
1118.29	11.9596
1119.92	11.2914
1121.55	11.167
1123.19	10.4241
1124.82	8.84177
1126.45	8.59535
1128.08	8.07546
1129.71	7.98287
1131.34	7.8845
1132.97	7.43292
1134.6	7.94865
1136.23	6.36296
1137.86	6.93905
1139.49	6.73548
1141.12	6.26614
1142.75	6.60512
1144.38	7.08059
1146.01	6.34756
1147.64	6.64346
1149.26	5.897
1150.89	5.38131
1152.52	5.1338
1154.15	5.03095
1155.77	4.67477
1157.4	4.74568
1159.02	4.26664
1160.65	4.71941
1162.27	4.03312
1163.9	4.81087
1165.52	4.01943
1167.15	4.0113
1168.77	3.51672
1170.39	3.20202
1172.02	4.5752
1173.64	4.75518
1175.26	4.86248
1176.89	4.26878
1178.51	4.06386
1180.13	4.313
1181.75	4.95911
1183.37	4.27215
1184.99	4.72191
1186.61	5.65235
1188.23	6.24989
1189.85	4.83263
1191.47	5.56815
1193.09	5.59827
1194.71	5.46855
1196.33	6.14314
1197.94	6.88725
1199.56	7.50218
1201.18	8.82169
1202.8	9.85489
1204.41	11.431
1206.03	13.0513
1207.65	15.0639
1209.26	16.0257
1210.88	17.3303
1212.49	18.8569
1214.11	20.0543
1215.72	21.7606
1217.34	22.5429
1218.95	24.0755
1220.57	25.8088
1222.18	27.7432
1223.79	29.7159
1225.41	31.0605
1227.02	31.7243
1228.63	33.302
1230.24	33.188
1231.85	33.5569
1233.47	34.9727
1235.08	35.4858
1236.69	36.7719
1238.3	37.4387
1239.91	37.4859
1241.52	38.6482
1243.13	38.3642
1244.74	38.4129
1246.34	38.4628
1247.95	39.323
1249.56	39.0909
1251.17	40.1432
1252.78	40.5481
1254.38	39.8226
1255.99	39.2504
1257.6	39.1015
1259.2	38.6552
1260.81	38.7631
1262.42	39.3684
1264.02	38.8406
1265.63	39.9432
1267.23	39.5222
1268.84	39.971
1270.44	39.7516
1272.04	40.669
1273.65	41.1509
1275.25	42.3805
1276.85	42.9123
1278.46	43.2408
1280.06	43.9963
1281.66	45.0489
1283.26	45.6572
1284.86	46.7455
1286.46	46.7289
1288.07	47.2457
1289.67	48.1363
1291.27	49.6935
1292.87	50.847
1294.47	51.6158
1296.06	52.2727
1297.66	52.4222
1299.26	53.8212
1300.86	55.4299
1302.46	55.0225
1304.06	55.3783
1305.65	55.7103
1307.25	55.5125
1308.85	56.3994
1310.44	56.6408
1312.04	57.7761
1313.64	58.624
1315.23	59.4298
1316.83	60.5082
1318.42	59.5071
1320.02	59.328
1321.61	59.5325
1323.2	59.1069
1324.8	58.9975
1326.39	58.6816
1327.99	58.1202
1329.58	57.2781
1331.17	56.6748
1332.76	56.0016
1334.36	55.3461
1335.95	54.7931
1337.54	54.258
1339.13	54.0088
1340.72	53.9771
1342.31	53.7279
1343.9	53.4268
1345.49	52.8929
1347.08	52.3487
1348.67	52.2039
1350.26	51.0924
1351.85	50.1621
1353.43	49.4577
1355.02	48.2483
1356.61	46.9485
1358.2	46.0888
1359.78	45.9928
1361.37	45.3073
1362.96	43.7948
1364.54	42.4627
1366.13	41.5092
1367.71	41.0266
1369.3	39.9637
1370.88	38.6819
1372.47	36.8376
1374.05	34.6928
1375.64	33.7211
1377.22	32.9894
1378.8	32.7757
1380.39	31.6495
1381.97	30.2109
1383.55	29.8278
1385.13	29.0283
1386.72	29.0016
1388.3	29.3835
1389.88	29.2192
1391.46	28.7708
1393.04	27.0455
1394.62	26.9594
1396.2	25.4596
1397.78	24.4304
1399.36	24.6568
1400.94	24.6687
1402.52	24.6527
1404.1	24.1614
1405.68	24.7955
1407.25	25.4619
1408.83	26.2357
1410.41	27.5408
1411.98	29.3512
1413.56	30.7327
1415.14	32.7996
1416.71	34.3644
1418.29	35.9962
1419.87	37.9528
1421.44	39.2864
1423.02	41.1322
1424.59	42.8911
1426.16	45.685
1427.74	47.5055
1429.31	49.45
1430.89	51.6295
1432.46	53.531
1434.03	55.1453
1435.6	57.3708
1437.18	59.5577
1438.75	61.0856
1440.32	61.5521
1441.89	61.8635
1443.46	62.3333
1445.03	62.5035
1446.6	62.8816
1448.17	63.1205
1449.74	63.0732
1451.31	63.2346
1452.88	62.442
1454.45	61.8411
1456.02	61.2565
1457.59	60.5527
1459.16	58.8617
1460.72	57.4423
1462.29	55.7407
1463.86	54.1024
1465.43	52.4659
1466.99	49.6868
1468.56	47.0915
1470.13	44.7207
1471.69	41.3516
1473.26	39.5753
1474.82	36.3136
1476.38	34.8384
1477.95	32.0337
1479.51	29.8727
1481.08	27.8884
1482.64	25.7405
1484.2	24.267
1485.77	21.708
1487.33	20.0366
1488.89	18.5549
1490.46	16.3363
1492.02	15.174
1493.58	14.2303
1495.14	12.9483
1496.7	11.9485
1498.26	10.7746
1499.82	9.61404
1501.38	9.33006
1502.94	9.21153
1504.5	9.1824
1506.06	9.10937
1507.62	8.84483
1509.18	9.30539
1510.73	9.11535
1512.29	9.26801
1513.85	9.347
1515.41	9.57556
1516.96	9.44052
1518.52	9.77421
1520.08	10.4495
1521.63	11.1272
1523.19	12.0498
1524.75	13.6347
1526.3	14.2575
1527.85	14.2765
1529.41	15.4499
1530.96	15.8497
1532.52	17.2511
1534.07	18.2772
1535.62	19.7454
1537.18	19.9854
1538.73	21.2376
1540.28	21.6272
1541.84	22.9475
1543.39	24.0603
1544.94	25.1312
1546.49	26.8979
1548.04	28.073
1549.59	28.2567
1551.14	29.9204
1552.69	31.9092
1554.25	34.4566
1555.79	35.3733
1557.34	36.8057
1558.89	38.2256
1560.44	38.6067
1561.99	39.0898
1563.54	39.7182
1565.08	41.5563
1566.63	42.2387
1568.18	43.2618
1569.73	44.8406
1571.27	45.4119
1572.82	45.5219
1574.37	45.5178
1575.91	46.8302
1577.46	48.053
1579	48.9496
1580.55	49.7504
1582.09	50.2709
1583.64	50.6347
1585.18	50.9893
1586.73	52.2325
1588.27	52.7364
1589.81	53.0817
1591.35	53.3481
1592.9	53.1972
1594.44	53.43
1595.98	52.4963
1597.52	51.896
1599.06	51.7074
1600.61	51.8022
1602.15	51.7176
1603.69	51.5308
1605.23	51.4379
1606.77	51.6773
1608.31	51.6502
1609.85	51.8028
1611.39	51.1972
1612.93	51.6586
1614.46	50.7763
1616	51.1293
1617.54	51.0599
1619.08	51.4154
1620.61	51.3062
1622.15	51.699
1623.69	52.4159
1625.23	52.4553
1626.76	53.3245
1628.3	54.5656
1629.83	55.1109
1631.37	55.3321
1632.9	54.5222
1634.44	54.7773
1635.97	55.3032
1637.51	55.8444
1639.04	56.9923
1640.57	58.2659
1642.11	60.0096
1643.64	60.7735
1645.17	62.3757
1646.71	63.7616
1648.24	64.3726
1649.77	65.4268
1651.3	66.4651
1652.83	67.6817
1654.36	67.5608
1655.89	67.626
1657.42	67.916
1658.96	67.6399
1660.48	67.7812
1662.01	67.6442
1663.54	67.0035
1665.07	66.0887
1666.6	64.8369
1668.13	63.2203
1669.66	61.9533
1671.19	60.6003
1672.71	58.2508
1674.24	57.1889
1675.77	56.1647
1677.29	54.4033
1678.82	52.6021
1680.35	50.6213
1681.87	48.0785
1683.4	46.1367
1684.92	43.9967
1686.45	41.6589
1687.97	39.3345
1689.5	37.249
1691.02	34.175
1692.54	31.7724
1694.07	29.2446
1695.59	27.1263
1697.11	24.6048
1698.64	22.8783
1700.16	20.526
1701.68	18.1658
1703.2	16.6075
1704.72	15.027
1706.25	13.6029
1707.77	12.5214
1709.29	10.8493
1710.81	10.3322
1712.33	9.41588
1713.85	9.45385
1715.37	8.95297
1716.89	8.87022
1718.41	8.93913
1719.92	8.71741
1721.44	8.59022
1722.96	8.46083
1724.48	7.89016
1725.99	7.6581
1727.51	7.18022
1729.03	7.01231
1730.55	6.82274
1732.06	6.85705
1733.58	6.55272
1735.09	6.4947
1736.61	7.01132
1738.13	6.68552
1739.64	6.9696
1741.15	6.87854
1742.67	6.38023
1744.18	6.23721
1745.7	6.18079
1747.21	6.02767
1748.72	6.03777
1750.24	6.51915
1751.75	6.69128
1753.26	6.84365
1754.77	6.88109
1756.29	6.84841
1757.8	6.80526
1759.31	7.17253
1760.82	6.92461
1762.33	6.71911
1763.84	6.54103
1765.35	5.40238
1766.86	5.05414
1768.37	5.37533
1769.88	5.15833
1771.39	4.76996
1772.9	4.18034
1774.4	3.95371
1775.91	3.48313
1777.42	3.43301
1778.93	3.50021
1780.44	3.26058
1781.94	2.77642
1783.45	2.50263
1784.96	2.37641
1786.46	2.29603
1787.97	1.8666
1789.47	2.15185
1790.98	1.58405
1792.48	1.47048
1793.99	1.33382
1795.49	1.27755
1797	0.981808
1798.5	0.83235
1800.01	0.625618
1801.51	0.782561
1803.01	0.875681
1804.51	0.823007
1806.02	1.27608
1807.52	1.00846
1809.02	0.872317
1810.52	1.15598
1812.02	1.08412
1813.52	0.892727
1815.02	0.651411
1816.53	0.2269
1818.03	0.342718
1819.52	0.663193
1821.02	0.469083
1822.52	0.978054
1824.02	0.861322
1825.52	0.787358
1827.02	1.20651
1828.52	1.16747
1830.02	0.988512
1831.51	1.17246
1833.01	1.06295
1834.51	0.895259
1836.01	0.79285
1837.5	0.656443
1839	0.806917
1840.49	0.375419
1841.99	0.440431
1843.49	0.134304
1844.98	-0.0345871
1846.48	-0.0793438
1847.97	0.0705989
1849.47	0.0833641
1850.96	0.0806243
1852.45	0.00345038
1853.95	0.00593193
1855.44	0.310553
1856.93	-0.016156
1858.42	-0.114796
1859.92	-0.131774
1861.41	-0.534569
1862.9	-0.157298
1864.39	0.165745
1865.88	0.425737
1867.38	0.642952
1868.87	1.33473
1870.36	1.3819
1871.85	1.93556
1873.34	2.81062
1874.83	3.14516
1876.32	3.51438
1877.81	3.62508
1879.29	3.35092
1880.78	3.806
1882.27	3.59351
1882.53	3.62848
1884.03	3.91525
1885.52	3.63903
1887.01	3.41139
1888.51	4.21607
1890	4.38308
1891.5	4.52011
1892.99	4.6474
1894.48	4.56538
1895.97	4.99486
1897.47	4.52681
1898.96	4.44366
1900.45	4.55207
1901.94	4.21352
1903.43	5.05395
1904.92	4.804
1906.41	4.17652
1907.9	4.37129
1909.39	4.72591
1910.88	4.56315
1912.37	4.85444
1913.86	4.79793
1915.35	4.63119
1916.84	4.95896
1918.33	4.99006
1919.81	4.94597
1921.3	5.07811
1922.79	5.13285
1924.28	5.20478
1925.76	5.48418
1927.25	5.6602
1928.73	6.13586
1930.22	6.03742
1931.71	6.32558
1933.19	6.98729
1934.68	7.02012
1936.16	7.40608
1937.65	7.65076
1939.13	7.79356
1940.62	8.08998
1942.1	8.66697
1943.58	9.29988
1945.07	9.90008
1946.55	9.97577
1948.03	9.65736
1949.51	9.81533
1951	9.90286
1952.48	9.85489
1953.96	10.325
1955.44	10.1345
1956.92	11.0838
1958.4	11.5113
1959.88	11.7492
1961.36	12.3217
1962.84	13.1019
1964.32	12.4752
1965.8	12.7365
1967.28	12.9571
1968.76	12.9098
1970.24	12.9986
1971.72	12.601
1973.2	12.6917
1974.67	12.9735
1976.15	12.6706
1977.63	12.7403
1979.1	11.5054
1980.58	11.1254
1982.06	11.0107
1983.54	10.1554
1985.01	9.57714
1986.49	9.38556
1987.96	9.24863
1989.44	9.20672
1990.91	9.43145
1992.39	8.89547
1993.86	8.86945
1995.33	9.14325
1996.81	9.34167
1998.28	9.23371
1999.75	9.61391
2001.23	9.6908
2002.7	9.46264
2004.17	8.86615
2005.65	8.74549
2007.12	8.85211
2008.59	8.976
2010.06	8.87314
2011.53	8.62817
2013	8.14328
2014.47	8.35553
2015.94	8.94622
2017.41	8.67769
2018.88	8.6416
2020.35	8.82403
2021.82	9.13312
2023.29	9.27434
2024.76	9.72643
2026.23	9.86043
2027.69	10.5768
2029.16	10.8227
2030.63	11.7314
2032.1	11.9935
2033.56	11.8689
2035.03	11.7789
2036.5	12.4114
2037.96	11.9453
2039.43	12.0809
2040.89	11.8994
2042.36	11.8199
2043.83	11.842
2045.29	11.631
2046.75	11.9186
2048.22	11.9018
2049.68	11.6462
2051.15	12.0437
2052.61	12.2511
2054.07	12.6624
2055.54	13.1366
2057	13.6377
2058.46	14.8074
2059.92	15.2237
2061.39	15.9964
2062.85	16.2415
2064.31	16.4445
2065.77	16.4759
2067.23	16.9112
2068.69	17.3394
2070.15	17.4656
2071.61	17.8515
2073.07	18.3968
2074.53	18.3452
2075.99	18.5438
2077.45	19.1812
2078.91	19.3664
2080.37	19.1273
2081.82	19.5678
2083.28	19.4673
2084.74	19.6391
2086.2	19.5228
2087.65	19.7452
2089.11	20.2254
2090.57	20.2065
2092.02	20.8686
2093.48	20.5452
2094.94	20.3416
2096.39	20.2613
2097.85	20.4505
2099.3	20.9212
2100.76	21.4052
2102.21	20.8338
2103.66	21.2429
2105.12	21.3215
2106.57	20.6201
2108.03	20.915
2109.48	21.1043
2110.93	20.375
2112.38	21.047
2113.84	21.4173
2115.29	21.4854
2116.74	21.8171
2118.19	22.0386
2119.64	22.8917
2121.09	22.5486
2122.54	23.1368
2123.99	23.2305
2125.45	23.4216
2126.89	23.3954
2128.34	23.2117
2129.79	23.3871
2131.24	23.589
2132.69	23.4312
2134.14	24.1043
2135.59	24.646
2137.04	24.8223
2138.48	24.7405
2139.93	24.8764
2141.38	25.6064
2142.83	26.143
2144.27	26.8538
2145.72	27.2412
2147.17	27.2367
2148.61	28.0291
2150.06	28.6107
2151.5	28.9569
2152.95	29.7321
2154.39	30.202
2155.84	30.413
2157.28	30.844
2158.73	31.0341
2160.17	31.8715
2161.61	32.8676
2163.06	33.2409
2164.5	33.2981
2165.94	33.2425
2167.38	34.0077
2168.83	35.4952
2170.27	35.7662
2171.71	36.1054
2173.15	35.9768
2174.59	36.0517
2176.03	36.4197
2177.47	36.4765
2178.91	36.3525
2180.36	36.5121
2181.8	36.0432
2183.23	36.3109
2184.67	36.6199
2186.11	36.3162
2187.55	35.8177
2188.99	35.5828
2190.43	34.9583
2191.87	34.5709
2193.3	33.3022
2194.74	33.2978
2196.18	32.7568
2197.62	33.1785
2199.05	32.7127
2200.49	32.3965
2201.93	32.4837
2203.36	32.3821
2204.8	31.7689
2206.23	31.628
2207.67	31.0662
2209.1	29.8762
2210.54	29.2923
2211.97	28.8911
2213.41	29.2238
2214.84	28.3053
2216.27	27.4746
2217.71	27.0378
2219.14	26.2793
2220.57	26.2137
2222.01	25.4726
2223.44	25.072
2224.87	24.3212
2226.3	23.8217
2227.73	23.8512
2229.16	23.511
2230.6	22.9252
2232.03	23.0459
2233.46	22.5684
2234.89	22.6018
2236.32	22.2118
2237.75	21.8296
2239.18	22.1029
2240.61	22.1014
2242.03	21.1106
2243.46	21.2434
2244.89	21.0798
2246.32	21.0076
2247.75	20.3697
2249.17	20.2463
2250.6	20.5783
2252.03	20.3668
2253.46	19.8224
2254.88	20.0837
2256.31	20.0435
2257.73	19.854
2259.16	19.3143
2260.59	18.9788
2262.01	19.0642
2263.44	19.1154
2264.86	19.3137
2266.29	19.6535
2267.71	19.7609
2269.14	19.7673
2270.56	18.7482
2271.98	18.7457
2273.4	18.2115
2274.83	17.9758
2276.25	17.5337
2277.67	17.8217
2279.09	17.6655
2280.52	17.4613
2281.94	17.0737
2283.36	16.981
2284.78	17.0243
2286.2	15.8315
2287.62	15.4185
2289.04	14.9277
2290.46	14.3061
2291.88	14.1044
2293.3	13.2529
2294.72	13.095
2296.14	12.9854
2297.56	13.2318
2298.98	13.5879
2300.4	13.8694
2301.82	14.5343
2303.23	14.6886
2304.65	14.8339
2306.07	15.6179
2307.49	15.4509
2308.9	15.118
2310.32	15.2958
2311.73	15.3659
2313.15	15.3804
2314.57	15.5428
2315.98	15.535
2317.4	16.206
2318.81	16.3887
2320.23	16.2516
2321.64	16.7863
2323.06	15.7705
2324.47	15.4951
2325.88	15.3256
2327.3	15.3937
2328.71	15.004
2330.12	15.0788
2331.54	15.2587
2332.95	15.5268
2334.36	15.1685
2335.77	14.732
2337.18	14.1027
2338.6	13.6583
2340.01	13.6884
2341.42	13.6497
2342.83	13.7172
2344.24	13.4341
2345.65	13.5287
2347.06	13.5993
2348.47	13.6635
2349.88	13.2989
2351.29	12.7506
2352.7	12.3156
2354.1	11.8285
2355.51	11.3835
2356.92	10.6702
2358.33	10.1345
2359.74	10.4123
2361.14	10.0512
2362.55	10.0966
2363.96	9.85088
2365.36	10.3925
2366.77	10.7859
2368.18	10.3486
2369.58	10.1122
2370.99	9.47685
2372.39	9.48137
2373.8	9.04951
2375.2	9.39807
2376.61	8.94001
2378.01	8.57139
2379.42	7.91843
2380.82	8.53555
2382.22	8.59269
2383.63	8.29202
2385.03	8.87558
2386.43	8.83892
2387.84	9.00881
2389.24	8.86846
2390.64	7.95434
2392.04	8.55726
2393.44	7.91158
2394.84	8.20884
2396.25	8.11849
2397.65	8.63286
2399.05	9.1652
2400.45	9.39597
2401.85	8.89685
2403.25	8.84787
2404.65	8.94205
2406.05	9.23616
2407.45	9.72073
2408.84	10.0101
2410.24	10.7697
2411.64	10.9523
2413.04	11.3686
2414.44	11.3215
2415.83	12.1245
2417.23	12.8956
2418.63	12.7777
2420.02	12.7789
2421.42	12.3073
2422.82	12.7105
2424.21	12.6812
2425.61	13.1301
2427	12.8558
2428.4	13.1895
2429.8	13.2153
2431.19	12.6781
2432.58	12.7687
2433.98	12.1345
2435.37	11.7335
2436.77	10.7619
2438.16	10.4458
2439.55	10.3682
2440.95	10.6909
2442.34	11.478
2443.73	11.0906
2445.12	11.3734
2446.51	11.033
2447.91	10.7809
2449.3	10.0314
2450.69	10.1083
2452.08	9.46476
2453.47	9.1189
2454.86	8.73444
2456.25	7.68699
2457.64	7.35882
2459.03	7.18514
2460.42	6.67778
2461.81	7.14955
2463.2	6.37225
2464.59	6.34795
2465.98	6.07259
2467.36	6.59398
2468.75	6.38836
2470.14	6.06417
2471.53	5.38879
2472.92	5.60799
2474.3	5.58567
2475.69	5.44851
2477.08	5.16705
2478.46	4.83837
2479.85	4.62541
2481.23	4.91373
2482.62	4.5186
2484	4.16903
2485.39	4.78852
2486.77	4.22352
2488.16	4.28306
2489.54	4.62836
2490.93	4.54013
2492.31	5.10717
2493.69	4.71193
2495.08	4.61268
2496.46	4.70824
2497.84	4.66816
2499.23	3.88278
2500.61	3.77252
2501.99	3.49633
2503.37	3.11094
2504.75	2.80573
2506.13	3.06461
2507.52	3.9148
2508.9	3.8308
2510.28	4.17364
2511.66	4.11732
2513.04	3.39097
2514.42	3.5261
2515.8	2.79107
2517.18	2.55161
2518.55	2.25564
2519.93	2.97511
2521.31	2.8703
2522.69	2.68409
2524.07	2.58523
2525.45	2.84555
2526.82	2.97673
2528.2	3.17169
2529.58	2.91663
2530.95	2.97866
2532.33	2.18503
2533.71	2.13114
2535.08	2.28316
2536.46	2.68296
2537.84	2.0015
2539.21	1.91339
2540.59	1.64341
2541.96	2.173
2543.34	2.12837
2544.71	2.57652
2546.08	2.61619
2547.46	2.74801
2548.83	3.19818
2550.2	3.9221
2551.58	3.63553
2552.95	4.43044
2554.32	4.21617
2555.7	4.14312
2557.07	4.57781
2558.44	4.29383
2559.81	3.98975
2561.18	3.78503
2562.55	3.53146
2563.93	3.62388
2565.3	3.72429
2566.67	3.2559
2568.04	3.41956
2569.41	3.32272
2570.78	3.12085
2572.15	2.88757
2573.51	2.94647
2574.88	2.90417
2576.25	2.51434
2577.62	2.22591
2578.99	2.38184
2580.36	2.15577
2581.73	2.35246
2583.09	2.53543
2584.46	2.43565
2585.83	2.63741
2587.19	2.77323
2588.56	2.93417
2589.93	2.08271
2591.29	1.66905
2592.66	1.65333
2594.02	1.51409
2595.39	1.52263
2596.75	1.3869
2598.12	1.42199
2599.48	1.58398
2600.85	1.6301
2602.21	2.04721
2603.58	2.80988
2604.94	2.67332
2606.3	2.2605
2607.67	2.66468
2609.03	2.6926
2610.39	2.67234
2611.76	2.85269
2613.12	2.89838
2614.48	2.49693
2615.84	2.23653
2617.2	2.1808
2618.56	2.42922
2619.92	2.18073
2621.28	1.69417
2622.65	1.41267
2624.01	1.77968
2625.37	2.01376
2626.72	2.09138
2628.08	1.80437
2629.44	1.54134
2630.8	1.93413
2632.16	1.99738
2633.52	2.22068
2634.88	2.07259
2636.24	1.93205
2637.59	1.50035
2638.95	1.48905
2640.31	1.5468
2641.67	1.92397
2643.02	1.86165
2644.38	2.13555
2645.74	2.43415
2647.09	2.59383
2648.45	1.90773
2649.8	2.1901
2651.16	1.79288
2652.51	2.15178
2653.87	1.62614
2655.22	1.66942
2656.58	1.58249
2657.93	1.84639
2659.29	2.12132
2660.64	2.50633
2661.99	2.35065
2663.35	2.18238
2664.7	2.05947
2666.05	2.21281
2667.41	1.90263
2668.76	1.78924
2670.11	1.57919
2671.46	1.54109
2672.81	0.92745
2674.16	1.36946
2675.51	1.50483
2676.87	1.2264
2678.22	1.06089
2679.57	1.27568
2680.92	0.696155
2682.27	0.447909
2683.62	0.774023
2684.97	1.1601
2686.31	1.16426
2687.66	0.928085
2689.01	1.03262
2690.36	1.50985
2691.71	1.78477
2693.06	1.97096
2694.4	2.16941
2695.75	2.41295
2697.1	3.14348
2698.45	3.89842
2699.79	4.285
2701.14	4.97908
2702.49	5.02016
2703.83	5.4892
2705.18	6.38593
2706.52	7.3027
2707.87	7.7093
2709.21	8.09364
2710.56	7.74825
2711.9	8.13256
2713.25	8.80595
2714.59	8.92547
2715.94	9.03325
2717.28	9.80976
2718.62	9.68688
2719.97	9.71227
2721.31	9.22908
2722.65	9.55886
2723.99	8.67405
2725.34	8.30797
2726.68	7.99366
2728.02	7.58492
2729.36	7.3461
2730.7	7.41591
2732.04	6.75926
2733.39	6.85308
2734.73	6.33921
2736.07	6.25917
2737.41	6.16708
2738.75	5.84696
2740.08	5.45765
2741.43	5.29082
2742.76	4.42384
2744.1	4.26581
2745.44	3.62908
2746.78	3.24831
2748.12	2.57588
2749.46	2.36244
2750.79	2.44635
2752.13	1.85682
2753.47	1.43629
2754.81	1.08436
2756.14	0.811171
2757.48	0.721275
2758.81	0.903065
2760.15	0.711367
2761.49	0.641945
2762.82	0.737857
2764.16	1.13353
2765.49	0.969874
2766.83	0.782447
2768.16	1.25732
2769.5	1.31882
2770.83	1.76339
2772.16	2.18979
2773.5	1.59712
2774.83	1.37586
2776.17	1.53635
2777.5	1.13411
2778.83	1.48792
2780.16	1.63894
2781.5	1.3278
2782.83	1.30943
2784.16	0.742585
2785.49	0.371467
2786.82	0.0859929
2788.15	-0.118197
2789.49	-0.742777
2790.82	-0.440234
2792.15	0.212716
2793.48	0.0630189
2794.81	0.0821973
2796.14	0.492166
2797.46	0.620347
2798.79	0.465425
2800.12	1.13709
2801.45	1.01348
2802.78	1.48506
2804.11	1.48686
2805.44	1.53049
2806.76	1.88597
2808.09	2.003
2809.42	2.68574
2810.75	2.49594
2812.07	1.87809
2813.4	1.73825
2814.73	2.18151
2816.05	2.432
2817.38	3.18642
2818.7	3.95255
2820.03	4.83565
2821.36	5.54083
2822.68	6.82928
2824.01	8.59075
2825.33	10.0952
2826.65	11.8361
2827.98	14.0431
2829.3	16.1618
2830.63	18.1578
2831.95	20.243
2833.27	23.174
2834.6	26.2306
2835.92	28.4008
2837.24	31.1786
2838.56	34.0345
2839.88	36.9331
2841.21	40.7176
2842.53	44.3466
2843.85	47.7671
2845.17	51.9965
2846.49	56.1655
2847.81	60.8017
2849.13	65.0061
2850.45	69.3497
2851.77	74.1339
2853.09	78.55
2854.41	83.4103
2855.73	87.9225
2857.05	92.6704
2858.37	96.6029
2859.69	100.652
2861	104.644
2862.32	108.951
2863.64	113.005
2864.96	116.449
2866.28	120.579
2867.59	123.938
2868.91	126.93
2870.23	129.567
2871.54	131.783
2872.86	134.217
2874.17	136.197
2875.49	138.501
2876.81	139.667
2878.12	141.852
2879.44	143.446
2880.75	145.329
2882.07	147.486
2883.38	149.301
2884.69	150.965
2886.01	152.299
2887.32	153.35
2888.63	155.546
2889.95	157.579
2891.26	158.995
2892.57	160.609
2893.89	163.205
2895.2	165.511
2896.51	167.903
2897.82	170.373
2899.13	173.325
2900.44	176.308
2901.76	179.569
2903.07	184.158
2904.38	188.467
2905.69	193.494
2907	198.484
2908.31	203.758
2909.62	209.294
2910.93	214.813
2912.24	220.361
2913.55	226.034
2914.85	231.093
2916.16	236.329
2917.47	241.045
2918.78	245.18
2920.09	249.86
2921.4	252.776
2922.7	256.51
2924.01	259.717
2925.32	261.75
2926.62	263.745
2927.93	265.7
2929.24	266.708
2930.54	266.846
2931.85	266.667
2933.15	265.619
2934.46	264.191
2935.76	263.055
2937.07	261.03
2938.37	258.875
2939.68	255.726
2940.98	252.235
2942.29	248.52
2943.59	244.471
2944.89	239.477
2946.2	235.068
2947.5	230.081
2948.8	224.764
2950.11	219.598
2951.41	213.789
2952.71	208.41
2954.01	203.638
2955.32	198.599
2956.62	192.964
2957.92	187.916
2959.22	183.536
2960.52	178.306
2961.82	173.374
2963.12	169.008
2964.42	164.993
2965.72	160.687
2967.02	156.745
2968.32	153.395
2969.62	149.367
2970.92	146.057
2972.22	142.319
2973.51	139.164
2974.81	135.761
2976.11	131.992
2977.41	128.52
2978.71	125.299
2980	121.82
2981.3	118.237
2982.6	114.013
2983.9	110.188
2985.19	106.929
2986.49	102.528
2987.78	99.0658
2989.08	94.7381
2990.38	90.7029
2991.67	86.9914
2992.97	83.1354
2994.26	79.3875
2995.56	75.5706
2996.85	72.2717
2998.14	68.988
2999.44	66.0712
3000.73	63.1169
3002.03	59.4606
3003.32	56.1387
3004.61	52.956
3005.91	50.1079
3007.2	47.4829
3008.49	44.8486
3009.78	42.2069
3011.07	40.066
3012.37	37.8959
3013.66	36.5512
3014.95	34.6289
3016.24	33.2629
3017.53	32.2885
3018.82	30.8318
3020.11	29.5677
3021.4	27.5792
3022.69	26.7981
3023.98	26.0538
3025.27	25.0676
3026.56	24.0723
3027.85	23.4327
3029.14	22.9638
3030.43	22.1103
3031.71	22.3285
3033	22.0641
3034.29	22.0934
3035.58	22.6045
3036.87	22.4436
3038.15	22.5921
3039.44	22.9655
3040.73	23.3021
3042.01	23.6764
3043.3	24.0293
3044.59	24.5006
3045.87	24.8049
3047.16	25.0917
3048.44	25.8611
3049.73	26.0173
3051.01	26.2802
3052.3	26.6396
3053.58	26.8161
3054.87	26.9458
3056.15	26.8912
3057.43	27.1028
3058.72	26.9498
3060	26.7543
3061.29	26.6095
3062.57	26.5626
3063.85	26.4779
3065.13	25.7466
3066.42	25.2464
3067.7	24.5759
3068.98	23.8509
3070.26	23.3007
3071.54	22.7653
3072.82	21.9574
3074.11	20.875
3075.39	19.6616
3076.67	19.3518
3077.95	18.6016
3079.23	17.5747
3080.51	16.559
3081.79	15.5567
3083.07	14.096
3084.35	12.8159
3085.63	11.7348
3086.9	10.9912
3088.18	10.1464
3089.46	9.37186
3090.74	8.56897
3092.02	7.83982
3093.29	7.17134
3094.57	6.20694
3095.85	6.18706
3097.13	5.64268
3098.4	5.61143
3099.68	4.76228
3100.95	3.84414
3102.23	3.6531
3103.51	3.41617
3104.78	2.6322
3106.06	2.45006
3107.33	2.50001
3108.61	2.51911
3109.88	1.91579
3111.16	1.87037
3112.43	1.74958
3113.71	1.80058
3114.98	2.00771
3116.25	2.09931
3117.53	2.27335
3118.8	2.3345
3120.07	2.39233
3121.35	2.38134
3122.62	2.16687
3123.89	2.26145
3125.16	2.50153
3126.44	2.69884
3127.71	2.54288
3128.98	2.70649
3130.25	2.57072
3131.52	2.29844
3132.79	2.22554
3134.06	2.13397
3135.33	2.19639
3136.6	2.158
3137.87	2.39887
3139.14	2.64392
3140.41	3.29786
3141.68	2.99397
3142.95	2.99213
3144.22	2.8518
3145.49	2.52532
3146.76	2.40043
3148.02	1.88433
3149.29	0.495216
