#Acq. time (s)=	45
#Accumulations=	2
#Range (cm-¹)=	200...3150
#Windows=	2
#Auto scanning=	Off
#Autofocus=	Off
#Macrospot=	Off
#AutoExposure=	Off
#Spike filter=	Multiple accum.
#Delay time (s)=	0
#Binning=	1
#Readout mode=	Signal
#DeNoise=	Off
#ICS correction=	On
#Dark correction=	Off
#Inst. Process=	Off
#Detector Gain=	Best Dynamic Range
#Detector ADC=	20 kHz       
#Detector temperature (°C)=	-69.85
#Instrument=	LabRAM HR Evol
#Detector=	Synapse
#Objective=	x100
#Grating=	600 gr/mm
#ND Filter=	100%
#Laser (nm)=	532 
#Hole=	100.021
#Range=	Auto
#Laser Pol.=	No
#Raman. Pol.=	No
#Laser Pol. (°)=	-0.0007625
#Raman Pol. (°)=	89.9995
#Collection=	Microscope
#StageXY=	Marzhauser
#StageZ=	Marzhauser
#X (µm)=	2199.9
#Y (µm)=	1239.9
#Z (µm)=	442.3
#Full time(mm:ss)=	3:18
#Project=	
#Sample=	
#Site=	
#Title=	Thy_10_08_21_2x_45s_532 nm_x100_100%_600 gr_mm
#Remark=	
#Date=	05.07.2022 15:40
#Acquired=	05.07.2022 15:40:29
#Base:Fit=	10.08.2022 09:46:25
#Base:Sub=	10.08.2022 09:46:49
#Filter:Polynom=	16.08.2022 10:24:56
#AxisType[0]=Intens
#AxisUnit[0]=Cnt
#AxisType[1]=Spectr
#AxisUnit[1]=1/cm
200.43	64.4883
202.244	65.956
204.059	65.315
205.873	63.3888
207.688	60.9953
209.501	58.9608
211.314	57.0939
213.127	53.8677
214.941	50.8701
216.753	48.7016
218.564	46.8249
220.375	45.0239
222.186	44.7189
223.999	42.8346
225.809	42.769
227.618	43.234
229.428	44.0327
231.236	44.6969
233.045	43.6319
234.855	43.1289
236.663	41.3311
238.471	41.0564
240.278	40.0088
242.085	39.9398
243.891	40.2844
245.698	40.2163
247.503	40.2724
249.309	40.4099
251.116	39.5663
252.921	39.2059
254.725	37.1389
256.529	36.056
258.333	34.1189
260.136	32.8433
261.939	30.1088
263.742	29.14
265.544	27.2313
267.346	25.5985
269.148	27.1416
270.949	26.2425
272.75	26.2167
274.55	27.0068
276.351	26.3987
278.15	24.8826
279.95	23.6425
281.749	20.9989
283.548	20.1406
285.346	18.114
287.144	18.4985
288.942	17.0585
290.739	16.2846
292.536	14.7596
294.333	13.5984
296.129	13.1887
297.925	14.0415
299.721	14.4254
301.514	13.8738
303.309	13.3892
305.104	14.8669
306.898	16.6211
308.692	17.1601
310.486	18.5136
312.279	20.4797
314.072	21.3765
315.862	24.4408
317.654	24.9134
319.446	25.4333
321.238	25.3771
323.029	24.4482
324.819	24.1656
326.608	24.1993
328.398	24.9189
330.188	25.3342
331.977	27.2755
333.766	27.7055
335.553	27.3095
337.341	26.1108
339.129	25.2416
340.917	24.2969
342.704	24.3081
344.489	23.7066
346.275	23.4263
348.062	23.2145
349.845	22.1471
351.631	20.9305
353.416	20.5713
355.201	18.0531
356.984	18.7004
358.768	19.4702
360.552	18.8227
362.333	17.0522
364.116	14.8407
365.899	12.9481
367.68	10.8751
369.462	9.41769
371.243	8.33271
373.023	9.61247
374.804	9.796
376.585	10.471
378.363	10.0779
380.143	11.2237
381.923	11.0541
383.7	10.5762
385.479	12.0425
387.256	12.9372
389.034	12.0249
390.812	11.3751
392.588	10.7321
394.365	10.5538
396.14	10.6484
397.916	10.0897
399.691	9.88303
401.467	10.5232
403.24	9.85653
405.015	9.18363
406.788	7.97141
408.563	8.21494
410.335	7.97718
412.109	7.52871
413.88	8.0482
415.654	9.02652
417.424	9.83523
419.197	11.0776
420.967	12.0835
422.739	12.2315
424.508	12.0809
426.279	12.5272
428.048	13.5604
429.819	13.4368
431.587	13.5159
433.356	14.0589
435.124	11.7614
436.891	11.528
438.66	11.4835
440.426	10.743
442.194	10.98
443.96	10.6409
445.725	11.8054
447.492	11.3904
449.257	10.972
451.021	10.6304
452.787	10.4091
454.551	10.4279
456.314	10.7861
458.079	12.9197
459.842	13.6072
461.604	15.0263
463.368	15.0426
465.13	15.1567
466.891	15.8539
468.654	16.3887
470.415	17.7681
472.175	18.2692
473.935	19.5634
475.696	19.6975
477.456	20.2244
479.215	20.7773
480.973	20.5178
482.733	21.6587
484.491	22.3834
486.249	23.1659
488.006	24.4066
489.765	26.3271
491.522	26.3714
493.278	26.9364
495.034	28.2627
496.789	29.083
498.544	28.8805
500.301	29.5637
502.056	29.9518
503.81	30.8783
505.564	32.1619
507.317	32.1328
509.071	32.1738
510.825	32.3734
512.578	31.4192
514.33	31.9304
516.082	31.5029
517.833	30.5868
519.585	30.3251
521.335	28.5224
523.086	26.9031
524.836	28.2178
526.586	28.1897
528.335	28.3084
530.085	28.558
531.835	27.6511
533.584	27.6878
535.332	27.1308
537.08	26.493
538.827	25.231
540.574	23.3171
542.321	22.1635
544.068	21.5257
545.814	21.0653
547.56	19.9681
549.305	19.8307
551.05	19.6252
552.795	20.5522
554.54	20.4615
556.282	20.0971
558.025	19.3403
559.769	18.318
561.512	17.4508
563.255	15.7433
564.997	14.8236
566.739	13.1759
568.481	13.1772
570.223	13.433
571.964	13.5951
573.705	13.3716
575.443	13.0301
577.183	11.788
578.923	11.3169
580.663	10.6415
582.402	9.82663
584.141	8.72988
585.879	8.1433
587.615	8.06851
589.353	7.49873
591.09	8.02562
592.828	6.89258
594.564	5.18929
596.299	4.66547
598.035	4.01236
599.771	1.99392
601.506	1.60426
603.242	2.70999
604.974	2.74509
606.709	3.07571
608.443	3.97598
610.177	5.45724
611.908	7.66777
613.642	8.71708
615.374	8.86199
617.105	9.77126
618.837	9.03978
620.569	8.66248
622.3	7.55669
624.03	7.5096
625.761	7.5071
627.491	7.41863
629.219	7.72073
630.949	8.04053
632.677	8.68402
634.406	9.01895
636.135	9.7113
637.861	10.1111
639.59	10.0279
641.318	8.69539
643.043	9.00646
644.77	9.57576
646.495	10.6036
648.222	11.2039
649.948	11.9276
651.672	13.1866
653.398	13.6905
655.121	14.873
656.846	15.7155
658.569	15.8541
660.293	16.1327
662.015	17.1376
663.738	17.262
665.46	18.7925
667.183	17.991
668.903	17.3988
670.626	17.5621
672.346	18.0867
674.067	17.8868
675.787	18.3089
677.508	18.4502
679.226	18.4861
680.947	19.7574
682.665	20.2428
684.385	21.3157
686.102	21.5369
687.821	24.0475
689.538	26.4823
691.254	26.4435
692.972	27.7369
694.688	28.6102
696.406	28.8186
698.121	29.9075
699.835	29.1271
701.552	29.6314
703.266	29.9967
704.98	29.6237
706.695	30.264
708.409	30.6383
710.121	30.9539
711.836	31.442
713.548	31.5638
715.26	32.8631
716.973	33.4984
718.685	34.3116
720.396	33.9804
722.108	35.8401
723.818	36.7815
725.528	37.5829
727.238	38.2875
728.949	39.9209
730.658	41.3438
732.367	42.5113
734.075	43.9847
735.785	44.6221
737.493	45.057
739.2	46.5651
740.907	48.8008
742.614	51.7935
744.322	53.5991
746.028	55.79
747.734	57.9251
749.439	59.2298
751.144	60.6024
752.849	60.9317
754.555	62.8102
756.26	65.1628
757.963	67.5687
759.667	68.6783
761.37	70.1457
763.073	71.1647
764.775	72.8534
766.477	73.6191
768.179	73.6162
769.883	74.793
771.584	75.0283
773.285	76.8325
774.986	76.9135
776.686	76.6145
778.386	76.8243
780.085	76.8091
781.785	77.1837
783.484	77.7748
785.182	77.1449
786.881	78.4248
788.579	78.2216
790.276	78.417
791.974	78.1326
793.671	78.5712
795.367	79.7861
797.064	80.6698
798.76	80.7974
800.456	81.5456
802.151	80.9244
803.846	81.2964
805.541	81.1961
807.234	82.1917
808.928	81.398
810.622	80.8142
812.315	81.2947
814.008	81.3169
815.701	82.6376
817.394	83.82
819.086	85.9948
820.778	86.6194
822.468	88.2586
824.159	89.6529
825.85	90.4496
827.541	91.5545
829.231	90.6284
830.921	90.6942
832.609	90.9289
834.298	90.7012
835.987	90.2426
837.676	90.2059
839.364	90.5528
841.051	89.734
842.738	88.8564
844.426	87.7383
846.113	86.741
847.798	85.5931
849.484	84.6116
851.171	83.7901
852.857	83.3486
854.54	82.534
856.226	81.1408
857.911	80.1632
859.593	78.0373
861.278	76.9798
862.961	76.0043
864.645	75.1365
866.327	75.055
868.01	74.6842
869.692	73.9438
871.373	74.2485
873.055	73.3419
874.735	73.156
876.416	72.4998
878.097	72.697
879.776	71.0563
881.457	69.5187
883.135	68.8324
884.815	67.8192
886.495	66.0913
888.172	64.3717
889.851	63.3236
891.528	63.1959
893.206	62.6655
894.882	61.9614
896.56	61.4931
898.237	61.4687
899.912	61.7501
901.589	62.2072
903.263	61.2474
904.94	60.113
906.614	59.9787
908.289	59.1806
909.962	58.594
911.635	57.255
913.31	55.6331
914.982	55.3444
916.656	55.1593
918.328	54.536
920.001	53.7265
921.672	53.5656
923.345	53.7733
925.015	53.388
926.685	53.3897
928.357	52.7884
930.026	52.9527
931.698	53.2488
933.366	52.5908
935.035	53.6869
936.705	53.4064
938.373	52.699
940.041	52.0672
941.71	52.2286
943.377	50.6279
945.044	50.5324
946.712	50.4581
948.378	50.4891
950.044	51.4361
951.709	51.7779
953.376	50.592
955.041	50.0509
956.706	49.1412
958.372	47.084
960.036	43.887
961.699	43.7798
963.362	43.1665
965.027	44.8631
966.69	46.5427
968.352	49.9194
970.014	52.109
971.676	54.9627
973.339	57.6809
975	59.6348
976.661	61.9729
978.322	63.2562
979.982	66.0494
981.642	68.559
983.303	68.9903
984.962	71.0711
986.621	71.0438
988.28	72.2984
989.938	72.6609
991.596	73.8349
993.254	74.7589
994.911	75.0055
996.57	76.3551
998.227	77.4368
999.884	78.5799
1001.54	78.2991
1003.2	78.5386
1004.85	79.0672
1006.51	79.1033
1008.16	79.2071
1009.82	78.6937
1011.47	77.9542
1013.12	78.4452
1014.78	76.4403
1016.43	75.4114
1018.08	73.9146
1019.74	72.3467
1021.39	70.3632
1023.04	68.4404
1024.69	66.8892
1026.34	64.1101
1028	62.706
1029.65	60.278
1031.3	58.6552
1032.95	56.2717
1034.6	53.2964
1036.25	49.8937
1037.9	47.6513
1039.54	44.1818
1041.19	42.4217
1042.84	42.3328
1044.49	44.4782
1046.14	46.1486
1047.78	46.5609
1049.43	46.5656
1051.08	47.3105
1052.72	45.6416
1054.37	44.0351
1056.02	42.5682
1057.66	41.4782
1059.31	40.8946
1060.95	38.777
1062.6	37.7286
1064.24	35.7356
1065.88	33.7646
1067.53	33.2445
1069.17	32.52
1070.81	32.3956
1072.45	32.8442
1074.1	33.3002
1075.74	32.232
1077.38	31.4319
1079.02	30.6726
1080.66	29.6909
1082.3	29.5047
1083.94	28.0869
1085.58	28.2393
1087.22	28.9135
1088.86	29.148
1090.5	30.7051
1092.14	30.5983
1093.78	30.5214
1095.42	31.7908
1097.05	31.3547
1098.69	32.7873
1100.33	32.3948
1101.96	33.3411
1103.6	32.0939
1105.24	31.8507
1106.87	32.3004
1108.51	31.6463
1110.14	31.2336
1111.78	29.9998
1113.41	29.2301
1115.05	26.6792
1116.68	25.126
1118.31	23.8847
1119.95	23.5908
1121.58	22.2627
1123.21	22.1676
1124.85	20.4922
1126.48	18.6041
1128.11	17.5156
1129.74	16.1329
1131.37	14.5454
1133	13.2788
1134.63	12.0199
1136.26	10.3329
1137.89	9.84525
1139.52	8.94634
1141.15	9.18593
1142.78	8.06493
1144.41	7.04952
1146.04	6.85858
1147.66	7.07753
1149.29	5.98158
1150.92	6.26483
1152.55	5.96693
1154.17	5.61768
1155.8	4.95767
1157.43	3.96715
1159.05	3.53342
1160.68	2.12054
1162.3	0.964709
1163.93	0.480607
1165.55	-0.439496
1167.17	0.259141
1168.8	0.991072
1170.42	2.59894
1172.05	4.13994
1173.67	3.9503
1175.29	5.32262
1176.91	7.58115
1178.54	8.78765
1180.16	10.2203
1181.78	10.4356
1183.4	10.6428
1185.02	11.41
1186.64	13.2983
1188.26	14.5745
1189.88	15.6921
1191.5	16.2366
1193.12	16.7588
1194.74	17.8531
1196.36	19.3517
1197.97	23.2452
1199.59	27.4363
1201.21	30.3724
1202.83	33.1535
1204.44	35.4255
1206.06	37.8562
1207.68	41.8936
1209.29	46.7782
1210.91	51.0178
1212.52	54.6777
1214.14	60.1172
1215.75	64.1933
1217.37	68.3323
1218.98	73.5421
1220.59	78.3114
1222.21	81.7403
1223.82	84.5033
1225.43	88.0456
1227.05	91.7967
1228.66	94.2068
1230.27	95.9404
1231.88	99.7353
1233.49	102.034
1235.1	103.887
1236.72	105.484
1238.33	106.726
1239.94	107.465
1241.55	108.587
1243.16	109.783
1244.76	112.255
1246.37	114.397
1247.98	116.857
1249.59	118.617
1251.2	119.606
1252.8	118.841
1254.41	119.005
1256.02	118.83
1257.62	118.786
1259.23	117.811
1260.84	117.103
1262.44	117.079
1264.05	116.259
1265.66	117.74
1267.26	116.854
1268.86	117.136
1270.47	118.536
1272.07	119.025
1273.67	120.527
1275.28	122.267
1276.88	124.554
1278.48	127.586
1280.09	128.348
1281.69	129.598
1283.29	131.041
1284.89	131.675
1286.49	134.797
1288.09	137.452
1289.69	139.596
1291.29	141.823
1292.89	144.055
1294.49	144.851
1296.09	145.812
1297.69	147.407
1299.29	148.061
1300.89	147.972
1302.49	148.179
1304.08	150.153
1305.68	150.785
1307.28	152.032
1308.88	152.426
1310.47	153.583
1312.07	154.532
1313.66	154.763
1315.26	154.443
1316.85	154.926
1318.45	154.919
1320.04	155.388
1321.64	154.235
1323.23	153.621
1324.83	152.603
1326.42	151.136
1328.01	149.201
1329.61	146.6
1331.2	144.243
1332.79	140.984
1334.38	139.618
1335.97	136.994
1337.56	135.528
1339.16	132.997
1340.75	130.802
1342.34	129.844
1343.93	127.09
1345.52	125.58
1347.11	122.519
1348.7	121.624
1350.29	119.902
1351.87	116.45
1353.46	113.664
1355.05	111.388
1356.64	109.368
1358.22	106.718
1359.81	103.223
1361.4	100.81
1362.98	97.932
1364.57	96.7579
1366.16	94.0404
1367.74	91.1907
1369.33	89.6809
1370.91	86.7956
1372.5	82.7524
1374.08	79.0789
1375.67	77.4546
1377.25	75.2505
1378.83	74.2109
1380.41	73.2492
1382	72.6639
1383.58	71.9988
1385.16	70.8522
1386.74	71.2313
1388.33	69.8247
1389.91	68.9102
1391.49	68.2752
1393.07	68.7714
1394.65	68.38
1396.23	67.8181
1397.81	66.9448
1399.39	66.3547
1400.97	63.5809
1402.55	64.5906
1404.13	64.4468
1405.7	65.5688
1407.28	67.3994
1408.86	69.1674
1410.44	70.6626
1412.01	72.554
1413.59	76.0005
1415.17	79.2306
1416.74	83.9093
1418.32	87.7337
1419.89	92.563
1421.47	99.048
1423.04	103.793
1424.62	109.988
1426.19	116.607
1427.77	123.356
1429.34	129.212
1430.91	135.943
1432.49	142.494
1434.06	149.389
1435.63	154.664
1437.2	159.93
1438.78	164.665
1440.35	168.307
1441.92	171.296
1443.49	173.814
1445.06	175.675
1446.63	178.227
1448.2	178.684
1449.77	177.459
1451.34	176.525
1452.91	176.88
1454.48	175.882
1456.05	174.244
1457.62	171.378
1459.18	167.678
1460.75	163.522
1462.32	158.004
1463.89	151.852
1465.45	145.449
1467.02	138.165
1468.59	131.013
1470.15	124.278
1471.72	116.883
1473.28	107.775
1474.85	100.403
1476.41	92.0494
1477.98	83.522
1479.54	75.4829
1481.1	69.7046
1482.67	62.1906
1484.23	55.3691
1485.79	49.5851
1487.36	42.2076
1488.92	35.9324
1490.48	31.165
1492.04	27.9297
1493.61	25.0119
1495.17	22.773
1496.73	20.2084
1498.29	19.0684
1499.85	18.5272
1501.41	18.5477
1502.97	18.1048
1504.53	17.7476
1506.09	17.452
1507.65	16.956
1509.2	17.5434
1510.76	16.9312
1512.32	17.1442
1513.88	16.8163
1515.43	17.2778
1516.99	16.9071
1518.55	16.834
1520.1	18.3812
1521.66	19.7754
1523.22	21.4672
1524.77	23.1
1526.33	23.8102
1527.88	25.9281
1529.44	28.0593
1530.99	30.3098
1532.54	31.6264
1534.1	33.3104
1535.65	35.0341
1537.21	37.15
1538.76	39.3647
1540.31	40.5766
1541.86	43.4382
1543.42	45.6072
1544.97	47.4927
1546.52	50.5581
1548.07	53.2361
1549.62	55.3301
1551.17	57.3715
1552.72	59.4279
1554.27	60.5573
1555.82	63.3933
1557.37	65.636
1558.92	67.5086
1560.47	69.1262
1562.02	71.6929
1563.56	74.1525
1565.11	75.7303
1566.66	78.8347
1568.21	81.863
1569.75	85.5988
1571.3	89.1691
1572.85	92.6659
1574.39	95.662
1575.94	98.0781
1577.49	101.544
1579.03	104.975
1580.57	107.31
1582.12	110.597
1583.66	112.75
1585.21	115.634
1586.75	118.8
1588.3	121.785
1589.84	124.24
1591.38	126.213
1592.92	128.294
1594.47	129.83
1596.01	131.073
1597.55	132.365
1599.09	132.431
1600.63	132.648
1602.17	133.021
1603.71	133.538
1605.25	134.089
1606.79	134.575
1608.33	134.649
1609.87	134.9
1611.41	134.766
1612.95	134.295
1614.49	134.23
1616.03	134.169
1617.57	134.243
1619.1	134.64
1620.64	134.67
1622.18	134.966
1623.72	135.906
1625.25	136.813
1626.79	138.134
1628.32	141.015
1629.86	142.556
1631.39	144.082
1632.93	146.66
1634.46	148.183
1636	150.744
1637.53	153.172
1639.07	156.246
1640.6	160.712
1642.13	164.795
1643.67	168.87
1645.2	172.093
1646.73	176.705
1648.26	180.111
1649.8	182.544
1651.33	185.837
1652.86	188.404
1654.39	191.718
1655.92	193.982
1657.45	195.395
1658.98	197.267
1660.51	198.246
1662.04	199.215
1663.57	198.549
1665.1	197.13
1666.63	195.139
1668.16	192.967
1669.68	191.322
1671.21	187.699
1672.74	183.071
1674.27	179.068
1675.79	174.923
1677.32	170.363
1678.85	165.386
1680.37	160.508
1681.9	154.217
1683.42	147.498
1684.95	140.721
1686.47	133.645
1688	126.547
1689.52	119.587
1691.05	113.494
1692.57	106.916
1694.09	100.238
1695.62	94.4427
1697.14	88.9119
1698.66	83.4022
1700.18	79.7802
1701.71	75.0728
1703.23	69.8788
1704.75	65.3757
1706.27	60.3515
1707.79	55.9741
1709.31	53.0265
1710.83	49.1418
1712.35	46.3817
1713.87	43.3544
1715.39	40.8525
1716.91	38.7845
1718.43	36.0622
1719.95	33.6089
1721.47	31.3428
1722.99	29.9634
1724.5	28.0157
1726.02	26.5538
1727.54	25.915
1729.06	25.1376
1730.57	24.1619
1732.09	23.3048
1733.61	22.8765
1735.12	23.2298
1736.64	22.6562
1738.15	22.0069
1739.67	21.8431
1741.18	21.4143
1742.7	21.4267
1744.21	20.6265
1745.72	19.9012
1747.24	18.5392
1748.75	17.7518
1750.26	17.3184
1751.77	16.1396
1753.29	14.9316
1754.8	13.9889
1756.31	13.3217
1757.82	11.6214
1759.33	10.9237
1760.84	10.4693
1762.36	9.02384
1763.87	8.59772
1765.38	8.41576
1766.89	8.2742
1768.4	7.76435
1769.91	7.46204
1771.41	7.44884
1772.92	6.52581
1774.43	5.53154
1775.94	4.69043
1777.45	3.49816
1778.95	3.06978
1780.46	3.42913
1781.97	3.34607
1783.48	2.721
1784.98	2.70409
1786.49	2.62661
1787.99	2.2781
1789.5	2.01937
1791.01	2.27401
1792.51	2.09262
1794.01	1.67294
1795.52	1.19331
1797.02	0.904001
1798.53	0.0693948
1800.03	0.10408
1801.53	0.128393
1803.04	0.542882
1804.54	0.621827
1806.04	0.119845
1807.54	0.12739
1809.05	0.341985
1810.55	0.343294
1812.05	0.795293
1813.55	0.26228
1815.05	0.689053
1816.55	0.608286
1818.05	0.298185
1819.55	-0.224956
1821.05	-0.188465
1822.55	-0.20174
1824.05	-0.00301214
1825.55	-0.244157
1827.05	-0.146671
1828.55	-0.203779
1830.04	-0.212544
1831.54	-0.384151
1833.04	-0.959889
1834.54	-0.222248
1836.03	-0.502877
1837.53	-0.445554
1839.03	-0.0180146
1840.52	-0.219696
1842.02	-0.732361
1843.51	-0.586904
1845.01	-0.264195
1846.5	0.169004
1848	0.625955
1849.49	0.942218
1850.99	1.84559
1852.48	2.52448
1853.97	1.94647
1855.47	2.45868
1856.96	1.79078
1858.45	1.97975
1859.94	2.21563
1861.44	2.18351
1862.93	2.13449
1864.42	2.01284
1865.91	1.88812
1867.4	1.16338
1868.89	1.48882
1870.38	1.59387
1871.87	1.03582
1873.36	0.775374
1874.85	0.877771
1876.34	0.830568
1877.83	0.57451
1879.32	0.61679
1880.81	0.800552
1882.3	0.884036
1882.57	1.10159
1884.07	1.70099
1885.56	2.22904
1887.06	1.53297
1888.55	2.00044
1890.04	1.47057
1891.54	2.34556
1893.03	3.07855
1894.52	3.72158
1896.02	4.40263
1897.51	4.55726
1899	4.46702
1900.49	4.49854
1901.98	5.61591
1903.47	6.4642
1904.96	6.82587
1906.45	6.94342
1907.94	7.9268
1909.43	8.063
1910.92	7.90869
1912.41	8.1827
1913.9	8.45508
1915.39	8.16616
1916.88	9.02708
1918.37	9.64465
1919.85	9.93099
1921.34	10.2642
1922.83	10.582
1924.32	10.0823
1925.8	10.2734
1927.29	9.98745
1928.78	10.0505
1930.26	10.1578
1931.75	10.7978
1933.23	10.7633
1934.72	10.2555
1936.2	10.0878
1937.69	10.4976
1939.17	10.6562
1940.66	10.3806
1942.14	10.2122
1943.63	10.1295
1945.11	9.76852
1946.59	9.45173
1948.07	9.41182
1949.56	9.80617
1951.04	9.99212
1952.52	9.92991
1954	9.28919
1955.48	8.03492
1956.96	8.07139
1958.45	8.66878
1959.93	8.77704
1961.41	8.56539
1962.89	9.24594
1964.37	9.4585
1965.85	9.52934
1967.32	8.92735
1968.8	9.08581
1970.28	8.8338
1971.76	9.24851
1973.24	8.85166
1974.72	9.01979
1976.19	9.42689
1977.67	9.22139
1979.15	9.38626
1980.63	8.40194
1982.1	8.17909
1983.58	7.8413
1985.05	7.6197
1986.53	8.19375
1988	8.1384
1989.48	8.23359
1990.95	9.20256
1992.43	10.1375
1993.9	9.7831
1995.38	9.82183
1996.85	10.2842
1998.32	10.0982
1999.8	10.6075
2001.27	10.0275
2002.74	9.94788
2004.22	10.9999
2005.69	10.8312
2007.16	10.4932
2008.63	11.0723
2010.1	11.486
2011.57	11.7281
2013.04	11.3727
2014.51	11.3758
2015.98	11.5698
2017.45	12.0596
2018.92	12.4622
2020.39	12.4995
2021.86	13.0203
2023.33	13.1891
2024.8	13.6077
2026.27	13.3168
2027.74	13.8237
2029.2	14.9525
2030.67	15.5926
2032.14	16.1587
2033.61	15.6819
2035.07	15.5009
2036.54	15.6629
2038.01	16.0363
2039.47	15.9392
2040.94	16.4537
2042.4	16.4645
2043.87	16.5509
2045.33	17.0203
2046.8	17.2729
2048.26	17.8207
2049.72	18.5826
2051.19	18.6334
2052.65	18.6057
2054.12	18.7449
2055.58	19.5492
2057.04	20.2621
2058.5	20.6659
2059.97	21.2975
2061.43	21.7707
2062.89	21.9392
2064.35	22.0273
2065.81	22.2938
2067.27	22.3685
2068.73	23.1325
2070.19	23.3689
2071.65	23.0883
2073.11	23.9292
2074.57	24.4487
2076.03	25.0484
2077.49	25.3047
2078.95	25.7029
2080.41	25.4364
2081.87	25.8044
2083.32	25.7864
2084.78	25.6951
2086.24	26.3691
2087.7	26.5082
2089.15	26.6399
2090.61	27.5582
2092.07	27.9986
2093.52	27.7104
2094.98	28.1025
2096.43	28.352
2097.89	28.4596
2099.34	27.9332
2100.8	27.8999
2102.25	27.5676
2103.71	27.1761
2105.16	27.6468
2106.61	27.9617
2108.07	29.0307
2109.52	29.5629
2110.97	29.9988
2112.43	29.2691
2113.88	29.45
2115.33	29.3707
2116.78	29.8387
2118.23	30.3471
2119.68	31.2958
2121.13	31.3027
2122.59	31.9051
2124.04	31.6081
2125.49	32.4249
2126.94	32.784
2128.39	33.2907
2129.83	34.1853
2131.28	35.1238
2132.73	35.9268
2134.18	36.8231
2135.63	37.5218
2137.08	39.3036
2138.53	41.3872
2139.97	42.8357
2141.42	44.553
2142.87	45.7249
2144.31	47.372
2145.76	49.0202
2147.21	49.5903
2148.65	50.7484
2150.1	51.8042
2151.54	52.9866
2152.99	52.873
2154.43	54.3604
2155.88	55.6427
2157.32	56.9728
2158.77	58.4463
2160.21	59.8922
2161.65	60.8741
2163.1	62.8135
2164.54	62.9647
2165.98	63.6498
2167.43	64.5257
2168.87	65.9158
2170.31	66.8663
2171.75	67.6719
2173.19	68.6657
2174.64	69.7633
2176.07	71.077
2177.52	71.6739
2178.96	72.6128
2180.4	72.5322
2181.84	71.8172
2183.28	71.1059
2184.72	70.4216
2186.15	70.2247
2187.59	69.6257
2189.03	69.5153
2190.47	68.6925
2191.91	66.9918
2193.35	65.5797
2194.78	64.0669
2196.22	63.2683
2197.66	63.097
2199.09	61.7661
2200.53	61.2104
2201.97	59.4416
2203.4	57.9591
2204.84	56.5292
2206.27	55.6958
2207.71	54.4268
2209.14	53.1711
2210.58	52.0834
2212.01	50.8444
2213.45	49.6922
2214.88	47.4141
2216.31	45.6986
2217.75	44.0838
2219.18	42.8079
2220.61	42.0213
2222.05	40.5409
2223.48	39.0994
2224.91	38.2718
2226.34	37.6765
2227.78	36.1926
2229.21	35.8835
2230.64	34.6629
2232.07	33.9031
2233.5	32.7571
2234.93	32.8377
2236.36	32.371
2237.79	33.0714
2239.22	32.9074
2240.65	32.9612
2242.08	32.1223
2243.5	31.8937
2244.93	32.675
2246.36	33.1397
2247.79	33.2892
2249.22	33.4467
2250.64	33.8602
2252.07	33.7845
2253.5	33.8743
2254.92	34.0222
2256.35	34.513
2257.78	33.8707
2259.2	33.3618
2260.63	33.403
2262.05	32.5037
2263.48	31.8045
2264.9	32.3566
2266.33	31.909
2267.75	31.8393
2269.18	30.727
2270.6	29.7286
2272.02	29.0337
2273.45	28.1248
2274.87	28.1215
2276.29	27.5055
2277.71	27.2828
2279.14	26.51
2280.56	25.6989
2281.98	25.8228
2283.4	24.1635
2284.82	23.0379
2286.24	22.0143
2287.66	21.5376
2289.08	20.5914
2290.5	19.8309
2291.92	18.1445
2293.34	16.528
2294.76	15.2692
2296.18	15.2632
2297.6	14.957
2299.02	15.0543
2300.44	15.31
2301.86	15.0727
2303.27	15.0143
2304.69	15.1586
2306.11	15.4869
2307.53	15.3189
2308.94	15.3038
2310.36	15.8202
2311.78	16.232
2313.19	16.5706
2314.61	17.1973
2316.02	17.8955
2317.44	17.7439
2318.85	18.0068
2320.27	17.844
2321.68	17.6399
2323.1	18.0811
2324.51	18.0372
2325.92	17.6271
2327.34	17.4994
2328.75	16.8117
2330.16	16.5527
2331.58	16.1994
2332.99	15.1799
2334.4	14.5266
2335.81	13.9154
2337.23	13.51
2338.64	13.1712
2340.05	11.9734
2341.46	11.8292
2342.87	11.3324
2344.28	10.8664
2345.69	10.0325
2347.1	8.60293
2348.51	8.14052
2349.92	7.26663
2351.33	6.61135
2352.74	6.38848
2354.15	4.50867
2355.55	4.22784
2356.96	3.7617
2358.37	3.27915
2359.78	2.46778
2361.19	1.92606
2362.59	1.81045
2364	2.81271
2365.41	3.45223
2366.81	4.10779
2368.22	3.76356
2369.62	3.51071
2371.03	3.33723
2372.44	3.25619
2373.84	2.76394
2375.24	3.01445
2376.65	3.13222
2378.05	3.56176
2379.46	4.22305
2380.86	4.94326
2382.26	3.59058
2383.67	3.55929
2385.07	3.9394
2386.47	4.40843
2387.88	4.42505
2389.28	4.57824
2390.68	4.38783
2392.08	4.49342
2393.48	5.19934
2394.89	5.2138
2396.29	4.80068
2397.69	5.25946
2399.09	5.20882
2400.49	4.87439
2401.89	4.9891
2403.29	5.1162
2404.69	4.89192
2406.09	4.87092
2407.48	5.46602
2408.88	5.51208
2410.28	5.86212
2411.68	6.74336
2413.08	7.3489
2414.48	7.03825
2415.87	7.07992
2417.27	7.29217
2418.67	8.12808
2420.06	8.28731
2421.46	9.10889
2422.86	8.94938
2424.25	9.20008
2425.65	9.66436
2427.04	10.0849
2428.44	9.90117
2429.83	9.6292
2431.23	9.53169
2432.62	9.87457
2434.02	10.1121
2435.41	9.43368
2436.81	8.97944
2438.2	8.57958
2439.59	8.0762
2440.99	8.23355
2442.38	7.68104
2443.77	7.82272
2445.16	7.56676
2446.56	7.38059
2447.95	7.37619
2449.34	7.73519
2450.73	7.27291
2452.12	6.8141
2453.51	7.15823
2454.9	6.90157
2456.29	6.74794
2457.68	6.55587
2459.07	6.44345
2460.46	6.12588
2461.85	5.54153
2463.24	5.55396
2464.63	4.74672
2466.02	4.44938
2467.4	4.40019
2468.79	3.40151
2470.18	2.78373
2471.57	2.25579
2472.95	2.1316
2474.34	1.51999
2475.73	1.5524
2477.12	1.66309
2478.5	1.49488
2479.89	1.16353
2481.27	0.604197
2482.66	0.0994339
2484.04	-0.565363
2485.43	-0.480083
2486.81	0.254983
2488.2	0.143599
2489.58	-0.0882676
2490.97	0.0576414
2492.35	-0.471104
2493.73	-0.158588
2495.12	-0.553494
2496.5	-0.113143
2497.88	-0.527407
2499.27	-0.252331
2500.65	0.194977
2502.03	0.584431
2503.41	0.465536
2504.79	-0.597566
2506.17	-0.924076
2507.56	-1.29904
2508.94	-1.22865
2510.32	-0.459012
2511.7	-0.382373
2513.08	-0.141473
2514.46	-0.114844
2515.84	0.180967
2517.22	0.415485
2518.59	0.189301
2519.97	0.61967
2521.35	0.979581
2522.73	1.40404
2524.11	2.12684
2525.49	2.9117
2526.86	2.8094
2528.24	2.47173
2529.62	2.33364
2530.99	1.95467
2532.37	1.97709
2533.75	1.79569
2535.12	1.86053
2536.5	0.819737
2537.88	0.471253
2539.25	0.630394
2540.63	0.885155
2542	1.275
2543.38	1.46997
2544.75	2.11225
2546.12	2.11394
2547.5	1.7654
2548.87	1.47771
2550.24	1.74402
2551.62	2.25321
2552.99	2.92604
2554.36	3.47431
2555.74	3.5114
2557.11	2.9737
2558.48	3.10949
2559.85	3.48254
2561.22	3.77305
2562.59	4.09272
2563.96	4.51465
2565.34	4.40772
2566.71	4.18394
2568.08	4.63513
2569.45	4.75478
2570.82	4.75619
2572.18	4.06824
2573.55	3.89786
2574.92	4.06771
2576.29	3.76053
2577.66	4.31747
2579.03	5.70841
2580.4	5.68661
2581.77	5.41988
2583.13	5.22881
2584.5	5.10676
2585.87	4.95017
2587.23	5.00155
2588.6	5.40078
2589.97	5.29421
2591.33	5.75034
2592.7	5.64423
2594.06	5.51845
2595.43	4.64701
2596.79	4.51432
2598.16	4.12535
2599.52	3.26673
2600.89	3.06667
2602.25	2.57598
2603.62	2.43768
2604.98	2.25674
2606.34	2.50667
2607.71	2.29153
2609.07	2.70596
2610.43	2.58619
2611.79	2.52243
2613.16	1.61254
2614.52	1.24921
2615.88	1.13658
2617.24	1.6978
2618.6	2.25289
2619.96	2.30708
2621.32	2.21035
2622.68	2.22193
2624.04	2.076
2625.4	2.58132
2626.76	2.9178
2628.12	3.52805
2629.48	3.88912
2630.84	4.23645
2632.2	3.73151
2633.56	2.6563
2634.92	3.05356
2636.28	3.60514
2637.63	3.29384
2638.99	3.02524
2640.35	2.45937
2641.71	2.39083
2643.06	2.18449
2644.42	2.52718
2645.77	3.38939
2647.13	3.79445
2648.49	2.97112
2649.84	3.16941
2651.2	2.60634
2652.55	2.62955
2653.91	2.60437
2655.26	3.24804
2656.62	3.30963
2657.97	3.91927
2659.33	3.87661
2660.68	3.81215
2662.03	3.80203
2663.39	3.39915
2664.74	3.40713
2666.09	3.30406
2667.44	3.36759
2668.8	4.12739
2670.15	4.52133
2671.5	4.74501
2672.85	5.10816
2674.2	5.40021
2675.55	6.05956
2676.91	7.11712
2678.26	6.94985
2679.61	7.54556
2680.96	8.27843
2682.31	8.70666
2683.66	8.31
2685	9.063
2686.35	9.5296
2687.7	9.66817
2689.05	10.6594
2690.4	11.133
2691.75	11.5672
2693.1	12.1997
2694.44	12.362
2695.79	12.8813
2697.14	13.0514
2698.49	12.7539
2699.83	13.107
2701.18	14.191
2702.52	15.178
2703.87	16.1081
2705.22	15.8702
2706.56	16.5032
2707.91	17.3762
2709.25	17.8427
2710.6	18.8404
2711.94	19.878
2713.29	20.2484
2714.63	20.8127
2715.97	21.2848
2717.32	21.8629
2718.66	22.254
2720.01	23.0947
2721.35	23.1682
2722.69	23.6114
2724.03	23.818
2725.38	24.6916
2726.72	24.4419
2728.06	24.8352
2729.4	25.1526
2730.74	25.0176
2732.08	25.3031
2733.42	25.8708
2734.76	25.7465
2736.1	26.1923
2737.44	26.6034
2738.78	26.6274
2740.12	26.9299
2741.46	27.1343
2742.8	27.0844
2744.14	26.5717
2745.48	26.0407
2746.82	26.1058
2748.16	26.1438
2749.49	25.4141
2750.83	25.4845
2752.17	26.0729
2753.51	25.8167
2754.84	25.4042
2756.18	25.2116
2757.52	25.0631
2758.85	25.292
2760.19	25.486
2761.53	24.799
2762.86	24.4821
2764.2	24.1485
2765.53	23.8547
2766.87	23.9899
2768.2	23.2642
2769.54	22.346
2770.87	22.228
2772.2	21.5381
2773.54	21.4638
2774.87	21.8455
2776.2	20.9481
2777.54	20.7646
2778.87	20.1297
2780.2	19.7741
2781.53	19.4553
2782.87	19.3519
2784.2	19.4252
2785.53	19.1227
2786.86	18.5621
2788.19	18.4945
2789.52	18.0623
2790.85	17.7207
2792.18	17.4886
2793.51	16.7322
2794.84	17.3054
2796.17	17.221
2797.5	17.3151
2798.83	17.837
2800.16	17.862
2801.49	18.2441
2802.82	19.0695
2804.15	19.1027
2805.47	18.9572
2806.8	19.7042
2808.13	19.8539
2809.46	19.9653
2810.78	19.5043
2812.11	19.4154
2813.44	18.9733
2814.76	19.5379
2816.09	19.1435
2817.42	19.6276
2818.74	21.1716
2820.07	22.8691
2821.39	24.4086
2822.72	27.0976
2824.04	30.1745
2825.37	32.9649
2826.69	35.7471
2828.02	39.0573
2829.34	43.543
2830.66	48.1613
2831.99	53.1497
2833.31	58.037
2834.63	63.3308
2835.96	68.9623
2837.28	75.0782
2838.6	81.5946
2839.92	88.1935
2841.24	95.523
2842.57	102.662
2843.89	111.36
2845.21	121.129
2846.53	131.016
2847.85	142.135
2849.17	153.814
2850.49	164.66
2851.81	175.201
2853.13	186.294
2854.45	198.178
2855.77	210.295
2857.09	222.88
2858.41	234.787
2859.72	245.942
2861.04	257.42
2862.36	268.377
2863.68	279.279
2865	289.441
2866.31	299.329
2867.63	308.521
2868.95	316.607
2870.26	324.107
2871.58	332.27
2872.9	339.479
2874.21	344.532
2875.53	349.743
2876.84	355.17
2878.16	361.239
2879.47	366.615
2880.79	371.459
2882.1	376.109
2883.42	381.414
2884.73	385.923
2886.05	389.975
2887.36	393.615
2888.67	397.921
2889.99	401.276
2891.3	405.527
2892.61	409.656
2893.92	414.571
2895.24	419.064
2896.55	424.497
2897.86	431.164
2899.17	436.751
2900.48	443.269
2901.79	450.793
2903.11	458.751
2904.42	467.744
2905.73	477.979
2907.04	487.956
2908.35	499.704
2909.66	512.374
2910.97	525.287
2912.27	538.056
2913.58	551.876
2914.89	564.539
2916.2	576.349
2917.51	588.698
2918.82	600.232
2920.13	611.909
2921.43	622.223
2922.74	630.581
2924.05	638.595
2925.35	644.146
2926.66	650.159
2927.97	655.063
2929.27	657.822
2930.58	660.313
2931.89	659.945
2933.19	660.013
2934.5	658.392
2935.8	655.896
2937.11	651.972
2938.41	646.941
2939.72	640.881
2941.02	634.492
2942.32	627.417
2943.63	618.957
2944.93	608.888
2946.24	598.11
2947.54	587.388
2948.84	575.798
2950.14	563.604
2951.45	552.32
2952.75	539.946
2954.05	527.888
2955.35	515.397
2956.65	504.652
2957.95	492.673
2959.26	481.024
2960.56	469.218
2961.86	458.598
2963.16	447.497
2964.46	436.127
2965.76	425.897
2967.06	416.563
2968.36	407.291
2969.66	398.542
2970.96	389.357
2972.25	380.076
2973.55	372.57
2974.85	364.792
2976.15	355.983
2977.45	347.943
2978.74	339.551
2980.04	330.823
2981.34	320.996
2982.64	311.748
2983.93	302.26
2985.23	292.954
2986.52	283.539
2987.82	273.086
2989.12	262.799
2990.41	252.437
2991.71	243.352
2993	233.987
2994.3	223.687
2995.59	214.958
2996.89	205.165
2998.18	196.778
2999.48	186.502
3000.77	177.47
3002.06	168.414
3003.36	160.337
3004.65	151.807
3005.94	144.029
3007.23	136.763
3008.53	129.791
3009.82	122.677
3011.11	116.255
3012.4	110.605
3013.69	105.174
3014.99	100.38
3016.28	95.969
3017.57	92.0051
3018.86	88.3776
3020.15	84.791
3021.44	82.3962
3022.73	78.8535
3024.02	76.2603
3025.31	74.2155
3026.6	72.6339
3027.89	71.5735
3029.18	71.3121
3030.46	70.4619
3031.75	70.1315
3033.04	69.4202
3034.33	69.2203
3035.62	68.76
3036.9	68.9915
3038.19	70.0635
3039.48	70.7857
3040.76	71.343
3042.05	72.9748
3043.34	74.0411
3044.62	75.5171
3045.91	76.1546
3047.19	77.1499
3048.48	78.2144
3049.77	78.5932
3051.05	79.1717
3052.34	79.322
3053.62	79.5557
3054.9	80.1195
3056.19	79.396
3057.47	79.1052
3058.76	77.6303
3060.04	77.2606
3061.32	75.7908
3062.61	74.3935
3063.89	72.87
3065.17	71.1095
3066.45	68.9553
3067.74	67.0877
3069.02	65.2732
3070.3	63.1408
3071.58	61.0301
3072.86	58.6831
3074.14	56.4337
3075.42	53.8075
3076.7	51.0496
3077.99	48.6085
3079.26	46.2526
3080.54	43.3465
3081.82	40.8876
3083.1	37.7005
3084.38	35.2516
3085.66	32.9876
3086.94	30.5058
3088.22	28.3272
3089.5	26.1281
3090.78	24.4945
3092.05	22.9759
3093.33	21.4364
3094.61	19.5698
3095.89	18.2154
3097.16	17.2449
3098.44	16.2147
3099.72	15.4464
3100.99	14.933
3102.27	15.055
3103.54	13.9206
3104.82	13.445
3106.1	13.3108
3107.37	12.6103
3108.65	11.9412
3109.92	11.3609
3111.2	10.6643
3112.47	10.3387
3113.74	9.93188
3115.02	9.47579
3116.29	8.84978
3117.56	8.28279
3118.84	7.83912
3120.11	6.97633
3121.38	6.83789
3122.66	6.58065
3123.93	6.74066
3125.2	6.18439
3126.47	5.75484
3127.74	4.79037
3129.01	4.10153
3130.29	3.60281
3131.56	3.4027
3132.83	3.1697
3134.1	2.50396
3135.37	2.39324
3136.64	1.71288
3137.91	1.28338
3139.18	0.603578
3140.45	0.217776
3141.72	-0.0681215
3142.99	-0.654972
3144.26	-0.970193
3145.52	-1.34832
3146.79	-1.70888
3148.06	-2.3026
3149.33	-2.11222
