#Acq. time (s)=	45
#Accumulations=	2
#Range (cm-¹)=	200...3150
#Windows=	2
#Auto scanning=	Off
#Autofocus=	Off
#Macrospot=	Off
#AutoExposure=	Off
#Spike filter=	Multiple accum.
#Delay time (s)=	0
#Binning=	1
#Readout mode=	Signal
#DeNoise=	Off
#ICS correction=	On
#Dark correction=	Off
#Inst. Process=	Off
#Detector Gain=	Best Dynamic Range
#Detector ADC=	20 kHz       
#Detector temperature (°C)=	-69.85
#Instrument=	LabRAM HR Evol
#Detector=	Synapse
#Objective=	x100
#Grating=	600 gr/mm
#ND Filter=	100%
#Laser (nm)=	532 
#Hole=	100.021
#Range=	Auto
#Laser Pol.=	No
#Raman. Pol.=	No
#Laser Pol. (°)=	-0.0007625
#Raman Pol. (°)=	89.9995
#Collection=	Microscope
#StageXY=	Marzhauser
#StageZ=	Marzhauser
#X (µm)=	8982.7
#Y (µm)=	-3064.7
#Z (µm)=	-55.15
#Full time(mm:ss)=	3:18
#Project=	
#Sample=	
#Site=	
#Title=	Thy_00_07_29_2x_45s_532 nm_x100_100%_600 gr_mm
#Remark=	
#Date=	28.06.2022 12:14
#Acquired=	28.06.2022 12:14:12
#Base:Fit=	10.08.2022 10:07:56
#Base:Sub=	10.08.2022 10:08:40
#Filter:Polynom=	16.08.2022 10:26:06
#AxisType[0]=Intens
#AxisUnit[0]=Cnt
#AxisType[1]=Spectr
#AxisUnit[1]=1/cm
200.407	3.5203
202.221	4.61201
204.035	2.87644
205.849	2.42661
207.665	2.31708
209.478	2.21827
211.291	2.40101
213.104	1.5426
214.916	2.20122
216.73	1.79299
218.541	2.09853
220.352	1.27604
222.163	1.35763
223.973	0.382179
225.785	0.156331
227.595	0.139085
229.404	-0.0407459
231.213	-0.0832034
233.022	0.274459
234.83	1.3556
236.638	1.18745
238.448	0.296236
240.255	0.566094
242.062	0.482425
243.868	0.597272
245.675	0.465639
247.48	1.50142
249.286	1.22964
251.091	1.36873
252.896	1.30676
254.702	1.8687
256.506	1.89203
258.31	2.1351
260.113	3.70815
261.916	4.82428
263.719	5.61591
265.521	7.16966
267.323	7.24726
269.125	7.02375
270.926	8.1821
272.727	10.6837
274.527	11.4023
276.328	11.3718
278.127	12.1739
279.927	11.9769
281.726	12.2399
283.525	12.3761
285.323	12.7279
287.121	13.5823
288.919	14.7428
290.716	14.2709
292.513	14.7294
294.31	16.1287
296.104	17.2534
297.9	17.8619
299.696	18.9507
301.491	19.5234
303.286	20.1872
305.081	21.867
306.875	21.6409
308.669	21.4434
310.463	21.3819
312.256	22.1148
314.047	21.6332
315.839	22.3164
317.631	22.7814
319.423	22.563
321.215	22.3809
323.006	22.0618
324.794	21.2729
326.585	19.4257
328.375	18.1095
330.165	17.5158
331.954	17.1357
333.741	16.9643
335.53	15.8696
337.318	16.1011
339.106	14.9469
340.894	14.721
342.679	13.9785
344.466	13.9307
346.253	13.7218
348.039	14.1993
349.823	15.4035
351.608	14.8737
353.393	14.3895
355.176	12.9861
356.961	13.3091
358.745	12.6415
360.529	14.0757
362.31	14.0611
364.093	12.2142
365.876	12.1884
367.657	13.5716
369.439	13.7879
371.221	13.9297
373	15.3772
374.781	16.8207
376.56	17.596
378.34	19.1567
380.12	18.7908
381.898	19.8049
383.677	20.8778
385.456	21.2244
387.233	22.2023
389.011	22.9955
390.787	23.4443
392.565	24.4839
394.34	24.2311
396.117	24.023
397.894	23.529
399.668	22.9726
401.444	21.8609
403.217	20.8792
404.993	21.1159
406.766	20.2927
408.54	18.8855
410.312	17.8564
412.086	16.1574
413.858	14.8393
415.631	14.1074
417.402	13.0666
419.174	13.6963
420.944	13.2963
422.716	11.6901
424.486	11.0554
426.257	10.823
428.025	10.2808
429.794	8.41924
431.564	7.67724
433.332	7.3962
435.101	7.06672
436.868	5.38229
438.637	5.22619
440.403	4.12631
442.169	3.61026
443.937	4.04547
445.703	5.85935
447.468	5.03858
449.234	6.23962
450.999	6.14317
452.765	7.40834
454.528	7.85783
456.292	8.44786
458.057	8.12006
459.819	9.19108
461.582	9.93949
463.344	9.96034
465.107	10.3357
466.868	10.0586
468.629	10.6807
470.392	11.8748
472.152	12.4827
473.912	13.2978
475.672	15.3269
477.433	15.0818
479.192	15.2691
480.951	15.667
482.709	15.3327
484.469	15.9005
486.226	16.1525
487.984	16.6151
489.74	17.3555
491.499	17.7874
493.255	18.8299
495.011	18.456
496.767	18.618
498.522	18.6607
500.277	19.1878
502.033	19.7181
503.788	19.6917
505.541	19.5311
507.295	20.5069
509.048	19.9981
510.801	19.4615
512.553	19.9009
514.308	19.534
516.06	18.4601
517.811	16.8466
519.562	16.9402
521.313	17.6703
523.063	17.9894
524.814	17.3095
526.563	18.6874
528.313	18.3219
530.062	18.1389
531.811	18.2419
533.559	17.3906
535.308	16.3508
537.055	16.3618
538.803	15.3643
540.55	14.7043
542.297	14.6741
544.043	14.1343
545.789	13.052
547.535	12.5277
549.281	11.5728
551.026	11.9774
552.771	11.2485
554.515	11.4824
556.259	11.6857
558.003	10.8595
559.747	9.41256
561.49	10.1749
563.233	10.0638
564.975	9.09441
566.717	9.18818
568.459	9.45259
570.2	9.02568
571.942	9.11338
573.68	8.42958
575.421	7.76655
577.161	6.67229
578.901	6.39845
580.64	6.88092
582.379	6.23635
584.118	5.76958
585.855	5.79114
587.593	5.78855
589.331	4.97489
591.068	5.11804
592.805	5.17805
594.54	4.67271
596.277	3.70897
598.013	3.75218
599.749	4.01013
601.484	2.72003
603.217	1.8063
604.952	2.17246
606.687	2.49256
608.421	2.55401
610.153	1.95602
611.886	1.21799
613.619	1.90158
615.35	1.28616
617.083	1.99425
618.815	2.83699
620.547	2.34214
622.276	3.56172
624.008	3.62988
625.738	3.90313
627.467	3.9356
629.197	3.95541
630.927	3.50231
632.655	4.06041
634.384	4.1031
636.113	4.64261
637.839	4.71433
639.568	4.36682
641.293	3.97836
643.021	4.20821
644.748	4.41828
646.473	4.45632
648.2	6.20839
649.924	5.6714
651.65	6.3683
653.376	6.98626
655.099	7.57448
656.824	7.03342
658.546	7.17441
660.271	6.75095
661.993	7.0248
663.716	8.19553
665.438	9.16799
667.161	9.6729
668.881	9.3286
670.604	9.33694
672.324	10.4031
674.045	10.3247
675.765	10.5396
677.486	10.2018
679.204	10.4866
680.925	10.6747
682.643	10.5149
684.361	11.2745
686.08	10.1308
687.797	9.96488
689.516	11.5863
691.232	12.985
692.95	13.1204
694.666	14.3925
696.382	16.115
698.099	16.3722
699.813	17.495
701.528	17.8623
703.244	18.5979
704.958	18.7522
706.673	19.3683
708.387	21.0414
710.099	20.9202
711.814	22.1749
713.526	23.3888
715.238	25.1807
716.949	26.7133
718.663	27.815
720.374	28.5441
722.084	29.9031
723.796	30.884
725.506	32.6814
727.216	33.0734
728.925	35.6858
730.636	36.2329
732.345	38.1638
734.053	39.5097
735.761	40.7783
737.471	41.6523
739.178	41.7606
740.885	42.8574
742.592	42.8504
744.298	44.4268
746.006	46.8229
747.712	49.0216
749.417	51.3852
751.122	51.5917
752.827	52.7645
754.532	53.7994
756.236	55.3423
757.942	57.8989
759.645	58.0104
761.348	58.5976
763.051	59.4435
764.753	59.9727
766.456	59.8901
768.158	59.4942
769.859	60.309
771.56	60.5074
773.261	61.7799
774.964	61.5159
776.664	61.5472
778.364	60.8009
780.064	60.287
781.763	59.5161
783.462	59.0166
785.16	58.3932
786.859	57.9192
788.557	58.0816
790.255	58.8586
791.952	58.8398
793.649	58.1525
795.346	58.2129
797.042	58.2841
798.738	58.1606
800.434	57.7362
802.127	57.1607
803.823	56.0257
805.517	55.4417
807.212	54.6999
808.906	54.6373
810.6	53.3142
812.293	52.4084
813.987	51.75
815.68	50.7985
817.372	51.1588
819.064	50.5439
820.754	49.997
822.446	48.3292
824.137	48.3435
825.828	48.4345
827.519	48.5398
829.209	49.165
830.897	48.9428
832.587	48.2731
834.276	47.6066
835.966	46.4003
837.654	46.4383
839.341	46.0732
841.029	45.5322
842.717	44.812
844.404	42.4539
846.091	41.5032
847.776	39.9617
849.463	37.9939
851.149	37.1074
852.833	35.3557
854.519	34.9361
856.204	34.177
857.889	34.3584
859.572	32.4149
861.256	32.5876
862.94	31.2268
864.622	30.0739
866.305	30.1771
867.988	30.4101
869.669	28.4984
871.351	28.0955
873.033	27.3325
874.713	26.2908
876.395	25.0574
878.074	23.6045
879.755	23.6208
881.435	23.2464
883.114	22.8624
884.794	23.1255
886.471	22.8763
888.15	21.5905
889.829	21.2355
891.506	20.6492
893.184	19.8329
894.861	19.4788
896.538	19.6455
898.214	18.7567
899.891	19.346
901.566	19.7922
903.242	19.7704
904.916	19.0334
906.592	18.919
908.266	19.289
909.941	19.3896
911.614	18.8388
913.288	18.5798
914.961	17.9995
916.635	19.0892
918.306	18.828
919.979	18.2149
921.651	18.4638
923.321	17.9613
924.994	17.4961
926.664	16.7147
928.336	16.4672
930.005	15.9814
931.674	16.1524
933.345	16.092
935.014	15.9843
936.682	16.0846
938.352	17.25
940.019	18.4095
941.687	19.6112
943.356	18.5866
945.022	19.2654
946.689	19.6942
948.357	21.0978
950.022	21.2637
951.688	20.5047
953.355	19.1275
955.02	20.2228
956.684	19.5735
958.348	19.3059
960.014	17.793
961.678	17.4115
963.341	17.8964
965.004	18.2865
966.669	18.7034
968.331	20.0018
969.993	20.0504
971.655	20.7555
973.316	21.6466
974.979	23.0525
976.64	24.3119
978.3	26.0207
979.961	26.6645
981.62	26.7251
983.28	27.91
984.941	27.9368
986.6	28.3147
988.259	27.129
989.917	26.7356
991.575	27.2991
993.233	27.7409
994.89	27.8428
996.547	28.1841
998.204	28.0016
999.86	28.1799
1001.52	26.8058
1003.17	25.8123
1004.83	25.5401
1006.49	24.6985
1008.14	25.5921
1009.79	25.2791
1011.45	25.2446
1013.1	23.7407
1014.76	22.7657
1016.41	21.5911
1018.06	20.6848
1019.72	20.6522
1021.37	19.9821
1023.02	19.5656
1024.67	18.6713
1026.32	17.8858
1027.97	16.7416
1029.62	16.3357
1031.27	15.0656
1032.92	12.8409
1034.57	10.3271
1036.22	9.49255
1037.87	8.83887
1039.52	7.34863
1041.17	6.26293
1042.82	4.87858
1044.47	5.60159
1046.11	6.36396
1047.76	6.43454
1049.41	6.63847
1051.06	5.97504
1052.7	6.046
1054.35	5.58024
1055.99	5.28522
1057.64	5.52904
1059.28	5.09847
1060.93	4.56015
1062.57	3.84237
1064.22	2.90777
1065.86	3.43303
1067.5	3.02946
1069.15	4.06025
1070.79	4.20852
1072.43	4.91071
1074.08	6.76325
1075.72	6.59995
1077.36	6.89203
1079	7.46603
1080.64	6.93501
1082.28	6.19647
1083.92	7.24048
1085.56	7.03838
1087.2	7.52778
1088.84	8.53518
1090.48	9.8159
1092.12	9.71479
1093.76	9.03829
1095.39	9.16393
1097.03	10.9776
1098.67	13.2297
1100.31	13.9075
1101.94	15.4546
1103.58	16.3661
1105.22	17.8962
1106.85	17.9131
1108.49	17.9969
1110.12	17.5411
1111.76	18.8501
1113.39	18.4118
1115.03	18.0463
1116.66	18.0483
1118.29	18.9361
1119.93	18.4679
1121.56	18.2862
1123.19	18.0288
1124.82	17.6604
1126.46	16.7595
1128.09	16.0809
1129.72	14.4535
1131.35	14.2345
1132.98	13.2322
1134.61	13.8841
1136.24	13.3473
1137.87	13.6044
1139.5	13.2364
1141.13	13.6914
1142.76	13.8198
1144.39	13.1457
1146.01	14.3358
1147.64	15.1171
1149.27	15.1859
1150.9	15.485
1152.53	14.5536
1154.15	14.6608
1155.78	14.1609
1157.4	12.5219
1159.03	11.7859
1160.65	11.0618
1162.28	8.90593
1163.9	8.6951
1165.53	9.16687
1167.15	8.44156
1168.78	8.81987
1170.4	9.13039
1172.02	10.0434
1173.65	9.8988
1175.27	10.4859
1176.89	11.8009
1178.51	12.1458
1180.14	12.5464
1181.76	12.9293
1183.38	13.1218
1185	13.415
1186.62	13.7498
1188.24	13.8829
1189.86	14.8102
1191.48	15.1102
1193.1	15.8868
1194.71	16.1001
1196.33	16.9118
1197.95	17.3138
1199.57	17.5231
1201.19	18.346
1202.8	19.7533
1204.42	21.2929
1206.04	22.156
1207.65	24.1904
1209.27	26.1956
1210.88	28.5323
1212.5	30.4713
1214.12	33.3247
1215.73	36.1565
1217.35	38.8218
1218.96	41.2786
1220.57	44.3146
1222.19	46.9538
1223.8	49.7105
1225.41	52.4625
1227.03	56.207
1228.64	58.5536
1230.25	60.6416
1231.86	62.9602
1233.47	65.0995
1235.08	67.1077
1236.69	67.6536
1238.31	69.2035
1239.92	70.6499
1241.52	71.9571
1243.13	73.1346
1244.74	73.5207
1246.35	74.1118
1247.96	74.2871
1249.57	74.7815
1251.18	75.5863
1252.78	76.1263
1254.39	76.3443
1256	77.0513
1257.6	76.8269
1259.21	76.4056
1260.82	77.1972
1262.42	76.1859
1264.03	74.6183
1265.63	75.0412
1267.24	75.0657
1268.84	74.2505
1270.45	73.7221
1272.05	73.8596
1273.65	74.1073
1275.26	73.7775
1276.86	73.7914
1278.46	74.245
1280.06	75.5684
1281.67	77.6253
1283.27	79.7424
1284.87	80.8887
1286.47	82.6332
1288.07	84.9609
1289.67	87.0854
1291.27	89.5728
1292.87	89.9305
1294.47	91.8157
1296.07	93.0887
1297.67	95.3305
1299.27	97.1474
1300.87	100.287
1302.47	103.361
1304.06	106.411
1305.66	108.83
1307.26	111.582
1308.85	113.414
1310.45	115.725
1312.05	117.662
1313.64	118.432
1315.24	118.497
1316.83	119.49
1318.43	119.637
1320.02	120.213
1321.62	119.744
1323.21	120.072
1324.8	119.815
1326.4	120.064
1327.99	120.401
1329.59	119.951
1331.18	119.521
1332.77	118.309
1334.36	117.751
1335.95	115.951
1337.54	114.129
1339.14	113.301
1340.73	112.313
1342.32	110.808
1343.91	110.378
1345.5	109.661
1347.09	108.316
1348.67	107.647
1350.26	107.405
1351.85	106.458
1353.44	105.157
1355.03	104.513
1356.62	103.315
1358.2	102.411
1359.79	101.302
1361.38	100.183
1362.96	98.3456
1364.55	96.4886
1366.14	95.9089
1367.72	94.4227
1369.31	92.8573
1370.89	90.7058
1372.48	89.1805
1374.06	88.91
1375.64	88.4777
1377.23	88.5081
1378.81	88.8627
1380.39	89.4268
1381.98	88.6707
1383.56	87.5111
1385.14	86.9724
1386.72	85.8965
1388.3	84.4678
1389.89	84.2262
1391.47	82.1843
1393.05	80.4053
1394.63	79.2957
1396.21	78.6299
1397.79	77.3651
1399.37	76.9985
1400.95	75.9625
1402.52	75.1701
1404.1	74.6262
1405.68	73.4748
1407.26	73.3378
1408.84	73.0662
1410.42	74.1538
1411.99	74.6726
1413.57	75.6954
1415.15	76.6175
1416.72	78.5694
1418.3	80.9815
1419.87	82.9927
1421.45	85.7124
1423.02	89.5101
1424.6	92.2609
1426.17	96.569
1427.75	99.2084
1429.32	102.25
1430.89	104.545
1432.47	107.905
1434.04	110.008
1435.61	112.021
1437.18	115.202
1438.76	117.944
1440.33	119.825
1441.9	122.319
1443.47	124.892
1445.04	126.811
1446.61	127.777
1448.18	128.934
1449.75	129.283
1451.32	129.057
1452.89	128.628
1454.46	128.689
1456.03	128.678
1457.6	128.701
1459.16	127.967
1460.73	125.902
1462.3	123.588
1463.87	121.876
1465.43	118.847
1467	115.781
1468.56	112.454
1470.13	107.641
1471.7	102.924
1473.26	98.8785
1474.83	94.5699
1476.39	90.6085
1477.96	87.8777
1479.52	82.8885
1481.08	79.858
1482.65	76.8615
1484.21	73.6788
1485.77	70.5979
1487.34	68.5491
1488.9	66.4744
1490.46	63.7317
1492.02	62.2744
1493.58	60.4695
1495.15	58.6916
1496.71	57.3544
1498.27	57.2794
1499.83	57.3867
1501.39	57.3296
1502.95	56.1172
1504.51	56.0468
1506.07	54.8942
1507.63	55.2429
1509.18	54.2748
1510.74	53.9007
1512.3	54.0559
1513.86	54.8471
1515.41	55.3556
1516.97	54.9221
1518.53	54.9395
1520.08	56.3089
1521.64	56.4702
1523.2	57.3408
1524.75	58.4593
1526.31	59.7804
1527.86	60.7749
1529.42	61.4505
1530.97	63.6598
1532.52	64.9983
1534.08	67.073
1535.63	68.6156
1537.19	69.579
1538.74	69.2643
1540.29	70.5606
1541.84	71.8093
1543.4	73.187
1544.95	74.342
1546.5	75.9221
1548.05	77.8787
1549.6	80.1928
1551.15	83.9987
1552.7	86.8778
1554.25	90.5411
1555.8	94.5861
1557.35	96.8113
1558.9	100.534
1560.45	102.714
1562	106.159
1563.54	108.58
1565.09	111.294
1566.64	114
1568.19	115.855
1569.73	118.969
1571.28	120.45
1572.83	123.352
1574.37	127
1575.92	130.383
1577.47	132.98
1579.01	134.638
1580.56	135.502
1582.1	136.625
1583.64	137.821
1585.19	139.346
1586.73	140.14
1588.28	141.706
1589.82	142.882
1591.36	142.553
1592.9	142.23
1594.45	142.066
1595.99	141.824
1597.53	141.464
1599.07	139.321
1600.61	138.051
1602.15	136.141
1603.69	133.976
1605.23	132.144
1606.77	131.029
1608.31	129.456
1609.85	128.099
1611.39	126.441
1612.93	124.532
1614.47	122.626
1616.01	120.772
1617.55	120.585
1619.08	120.02
1620.62	119.299
1622.16	118.727
1623.7	118.516
1625.23	117.297
1626.77	117.618
1628.3	118.164
1629.84	117.82
1631.37	118.304
1632.91	118.531
1634.44	118.065
1635.98	117.275
1637.51	117.483
1639.05	118.196
1640.58	118.031
1642.11	118.821
1643.65	120.537
1645.18	121.029
1646.71	122.642
1648.24	122.973
1649.78	123.454
1651.31	123.247
1652.84	123.181
1654.37	123.013
1655.9	122.083
1657.43	121.141
1658.96	120.381
1660.49	119.039
1662.02	117.467
1663.55	114.969
1665.08	112.911
1666.61	110.397
1668.14	107.691
1669.66	104.906
1671.19	102.234
1672.72	99.1032
1674.25	96.2926
1675.77	92.088
1677.3	90.0457
1678.83	86.7363
1680.35	84.1829
1681.88	81.0936
1683.4	78.0758
1684.93	73.6435
1686.45	69.7922
1687.98	66.1056
1689.5	63.1302
1691.03	59.5126
1692.55	56.9041
1694.07	53.7501
1695.6	50.0726
1697.12	46.0193
1698.64	43.7149
1700.17	40.5971
1701.69	38.0842
1703.21	37.0396
1704.73	34.309
1706.25	31.8446
1707.77	30.2405
1709.29	28.6584
1710.81	27.2861
1712.33	25.7709
1713.85	24.5013
1715.37	23.3881
1716.89	22.1338
1718.41	21.9551
1719.93	21.6435
1721.45	20.4635
1722.97	19.5544
1724.49	18.4784
1726	18.1879
1727.52	18.0417
1729.04	18.1156
1730.55	17.3397
1732.07	16.8244
1733.59	16.4658
1735.1	15.1687
1736.62	15.0817
1738.13	15.0664
1739.65	14.7599
1741.16	15.0531
1742.68	14.9063
1744.19	14.1296
1745.7	13.7076
1747.22	13.564
1748.73	12.8854
1750.24	12.0417
1751.76	12.0123
1753.27	12.3499
1754.78	11.4532
1756.29	12.0298
1757.8	10.9393
1759.31	10.039
1760.83	9.73216
1762.34	10.0093
1763.85	10.0104
1765.36	9.01671
1766.87	8.36861
1768.38	7.99102
1769.89	7.08546
1771.39	6.98034
1772.9	7.15731
1774.41	7.71942
1775.92	7.44176
1777.43	7.86991
1778.94	7.91637
1780.44	7.7883
1781.95	7.79996
1783.46	7.77044
1784.96	7.84001
1786.47	7.60651
1787.97	6.71369
1789.48	5.70957
1790.99	5.96134
1792.49	6.10492
1794	6.29742
1795.5	6.12584
1797	5.60674
1798.51	6.03215
1800.01	5.83482
1801.51	5.58084
1803.02	5.02457
1804.52	4.78585
1806.02	4.3555
1807.53	4.28721
1809.03	3.96839
1810.53	3.67958
1812.03	3.68259
1813.53	3.40272
1815.03	2.95432
1816.53	3.03588
1818.03	2.75889
1819.53	2.91089
1821.03	3.01541
1822.53	3.15927
1824.03	3.33676
1825.53	3.98073
1827.03	3.97378
1828.53	3.36927
1830.02	2.85792
1831.52	3.18806
1833.02	2.67761
1834.52	2.87432
1836.01	3.58683
1837.51	3.09874
1839.01	2.3185
1840.5	2.57424
1842	2.64102
1843.49	3.2445
1844.99	3.19619
1846.48	3.06051
1847.98	2.81002
1849.47	2.59349
1850.97	2.343
1852.46	2.835
1853.95	2.57907
1855.45	1.75157
1856.94	1.48411
1858.43	1.14974
1859.93	1.37195
1861.42	1.15241
1862.91	0.952111
1864.4	0.767872
1865.89	0.708973
1867.38	0.530308
1868.87	0.634716
1870.36	-0.0284829
1871.85	-0.302586
1873.34	-0.11791
1874.83	-0.660286
1876.32	-0.0619181
1877.81	-0.297198
1879.3	0.00540809
1880.79	0.284205
1882.28	1.00046
1882.52	1.06173
1884.02	1.25334
1885.51	1.1127
1887.01	2.05247
1888.5	1.93961
1889.99	3.09111
1891.49	3.86104
1892.98	4.37183
1894.47	3.52822
1895.97	4.06149
1897.46	3.96457
1898.95	3.62708
1900.44	3.14152
1901.93	3.04519
1903.42	3.4294
1904.91	3.75952
1906.4	3.01012
1907.89	3.70936
1909.38	3.94661
1910.87	3.57905
1912.36	3.99199
1913.85	3.97997
1915.34	3.75931
1916.83	4.0029
1918.32	3.68238
1919.8	4.47125
1921.29	4.48068
1922.78	4.75917
1924.27	5.01198
1925.75	5.37507
1927.24	5.27448
1928.73	4.56367
1930.21	5.54525
1931.7	5.20187
1933.18	5.17529
1934.67	5.0726
1936.15	4.73915
1937.64	4.2445
1939.12	3.87144
1940.61	4.08907
1942.09	4.30568
1943.57	4.09199
1945.06	4.2145
1946.54	4.23658
1948.02	4.0358
1949.51	4.97665
1950.99	4.30383
1952.47	4.60223
1953.95	4.93625
1955.43	4.64914
1956.91	4.17729
1958.4	4.93156
1959.88	4.82527
1961.36	4.171
1962.84	3.22429
1964.32	4.01245
1965.8	3.40309
1967.27	2.81129
1968.75	2.10205
1970.23	2.57435
1971.71	2.95443
1973.19	3.17542
1974.67	3.3942
1976.14	3.21108
1977.62	3.40771
1979.1	3.46237
1980.58	4.20037
1982.05	5.19487
1983.53	5.77723
1985	6.37192
1986.48	6.7243
1987.95	6.72183
1989.43	7.33043
1990.9	7.8511
1992.38	7.88533
1993.85	8.1989
1995.33	7.40417
1996.8	7.76705
1998.27	7.91314
1999.75	8.01849
2001.22	7.9841
2002.69	7.8314
2004.16	8.60701
2005.64	7.77334
2007.11	7.64515
2008.58	7.52586
2010.05	6.85931
2011.52	6.44624
2012.99	6.0809
2014.46	5.86087
2015.93	5.69113
2017.4	4.54545
2018.87	3.84664
2020.34	3.59825
2021.81	3.31072
2023.28	3.67099
2024.75	2.78121
2026.22	2.82786
2027.69	2.46718
2029.15	2.46554
2030.62	2.39873
2032.09	3.01336
2033.56	2.29378
2035.02	2.70257
2036.49	3.17305
2037.96	3.81431
2039.42	3.18207
2040.89	3.3567
2042.35	3.4242
2043.82	3.99745
2045.28	4.66972
2046.75	4.46366
2048.21	4.18145
2049.67	3.89583
2051.14	4.54279
2052.6	4.97387
2054.07	5.63511
2055.53	5.84023
2056.99	6.31226
2058.45	6.81204
2059.92	6.86024
2061.38	6.81604
2062.84	7.25
2064.3	7.3714
2065.76	6.94372
2067.22	6.82506
2068.68	7.12723
2070.14	7.45535
2071.6	7.60872
2073.06	7.86857
2074.52	7.34706
2075.98	7.08345
2077.44	6.68433
2078.9	6.19715
2080.36	5.70352
2081.82	5.7433
2083.27	5.10011
2084.73	4.87033
2086.19	4.78712
2087.65	4.57069
2089.1	4.1663
2090.56	3.40027
2092.02	4.03035
2093.47	4.12672
2094.93	4.46548
2096.38	4.2012
2097.84	3.83991
2099.29	3.9908
2100.75	4.25369
2102.2	4.53573
2103.66	4.30369
2105.11	4.54288
2106.56	4.08558
2108.02	4.53904
2109.47	4.3799
2110.92	3.96546
2112.38	3.9153
2113.83	4.42241
2115.28	4.22643
2116.73	4.69335
2118.18	4.12997
2119.63	4.36182
2121.09	3.60589
2122.54	4.01802
2123.99	4.31971
2125.44	4.33206
2126.89	5.57754
2128.34	5.88788
2129.79	6.07614
2131.23	6.234
2132.68	5.71716
2134.13	5.43907
2135.58	5.98557
2137.03	5.71988
2138.48	4.9541
2139.92	5.27209
2141.37	5.32484
2142.82	5.17025
2144.27	5.58033
2145.71	5.33857
2147.16	4.80868
2148.6	4.48956
2150.05	4.51781
2151.49	4.45604
2152.94	4.37467
2154.38	4.28045
2155.83	3.82325
2157.27	4.45725
2158.72	4.8437
2160.16	4.36479
2161.6	4.35596
2163.05	4.31394
2164.49	4.74196
2165.93	5.05467
2167.38	4.67453
2168.82	4.19124
2170.26	4.7549
2171.7	5.54058
2173.14	6.45152
2174.58	6.51709
2176.03	6.97712
2177.47	7.23899
2178.91	7.76803
2180.35	8.34666
2181.79	7.93223
2183.23	7.49468
2184.67	7.86175
2186.1	7.85214
2187.54	7.5673
2188.98	7.28507
2190.42	6.96533
2191.86	7.18056
2193.3	6.81123
2194.73	6.62415
2196.17	6.28465
2197.61	6.30336
2199.05	6.76797
2200.48	5.93748
2201.92	5.83254
2203.35	5.61651
2204.79	5.42747
2206.22	5.2471
2207.66	4.89546
2209.1	4.68577
2210.53	4.12366
2211.97	4.60365
2213.4	3.88808
2214.83	3.94731
2216.27	3.19635
2217.7	2.54292
2219.13	2.41292
2220.57	2.10851
2222	2.10737
2223.43	2.01423
2224.86	2.24815
2226.29	2.31825
2227.72	3.18849
2229.16	3.64066
2230.59	3.38479
2232.02	3.03247
2233.45	3.86337
2234.88	4.20632
2236.31	4.57811
2237.74	4.97641
2239.17	4.92389
2240.6	5.77957
2242.03	6.19766
2243.45	6.88536
2244.88	7.15819
2246.31	6.85408
2247.74	7.12481
2249.17	7.5548
2250.59	7.57519
2252.02	7.75319
2253.45	7.76928
2254.87	7.83385
2256.3	8.25012
2257.73	8.46627
2259.15	8.88368
2260.58	9.2892
2262	9.49414
2263.43	9.26563
2264.85	8.71548
2266.28	8.02245
2267.7	8.21695
2269.13	8.68884
2270.55	8.77197
2271.97	8.52083
2273.4	8.59919
2274.82	8.39007
2276.24	8.61789
2277.67	7.98275
2279.09	7.37348
2280.51	7.1683
2281.93	6.49409
2283.35	6.57858
2284.77	6.13332
2286.2	6.88903
2287.62	6.64785
2289.04	7.18713
2290.46	6.746
2291.88	6.18357
2293.3	6.00028
2294.72	6.94343
2296.13	7.68198
2297.55	8.37829
2298.97	9.12233
2300.39	9.06522
2301.81	8.89041
2303.23	9.41745
2304.64	10.225
2306.06	10.6949
2307.48	11.3194
2308.89	11.3847
2310.31	11.4686
2311.73	12.0473
2313.14	11.9411
2314.56	12.596
2315.98	12.8426
2317.39	13.3472
2318.81	13.9067
2320.22	14.2035
2321.64	14.1228
2323.05	14.807
2324.46	14.5049
2325.88	14.4993
2327.29	15.4751
2328.7	15.6978
2330.12	15.2926
2331.53	14.2256
2332.94	13.0251
2334.35	11.9174
2335.77	10.7311
2337.18	10.3643
2338.59	10.1472
2340	10.3133
2341.41	9.77133
2342.82	9.10905
2344.23	8.24704
2345.64	7.75768
2347.05	6.47752
2348.46	5.00592
2349.87	4.43557
2351.28	4.04123
2352.69	3.89093
2354.1	3.66882
2355.51	3.49351
2356.91	2.69336
2358.32	1.52566
2359.73	1.17516
2361.14	0.563129
2362.54	0.310682
2363.95	0.642325
2365.36	1.25711
2366.76	0.990882
2368.17	0.68454
2369.58	0.173292
2370.98	-0.261435
2372.39	-0.342052
2373.79	0.668944
2375.2	1.45336
2376.6	1.38241
2378	0.799636
2379.41	0.368887
2380.81	0.293433
2382.22	0.0343767
2383.62	0.0300863
2385.02	0.430466
2386.43	0.32334
2387.83	0.286023
2389.23	0.417705
2390.63	0.579217
2392.03	0.037805
2393.44	0.296071
2394.84	0.385111
2396.24	0.734055
2397.64	0.885965
2399.04	0.432073
2400.44	0.0313041
2401.84	0.799809
2403.24	1.68818
2404.64	1.81814
2406.04	2.78681
2407.44	4.05522
2408.84	4.13046
2410.23	4.71036
2411.63	4.51211
2413.03	4.7647
2414.43	5.10014
2415.83	5.74169
2417.22	6.14685
2418.62	6.97778
2420.02	7.95061
2421.41	8.51834
2422.81	8.69017
2424.21	9.00246
2425.6	9.71755
2427	9.39263
2428.39	10.0633
2429.79	10.0195
2431.18	10.0207
2432.58	9.75959
2433.97	9.67057
2435.36	9.51677
2436.76	9.32799
2438.15	9.45402
2439.54	9.72222
2440.94	10.013
2442.33	9.94039
2443.72	9.55351
2445.12	8.96053
2446.51	7.8275
2447.9	7.49546
2449.29	7.6304
2450.68	7.3408
2452.07	6.99307
2453.46	7.07738
2454.85	6.697
2456.24	6.71441
2457.64	6.60029
2459.02	6.0659
2460.41	5.78197
2461.8	5.29145
2463.19	6.07143
2464.58	5.32602
2465.97	5.4097
2467.36	5.86445
2468.75	6.2395
2470.13	6.42692
2471.52	6.53107
2472.91	6.73475
2474.3	6.2254
2475.68	6.0265
2477.07	5.48919
2478.45	5.08041
2479.84	6.1061
2481.23	6.27484
2482.61	6.66065
2484	6.67431
2485.38	7.04787
2486.77	6.86402
2488.15	6.32924
2489.54	6.33131
2490.92	6.00105
2492.3	5.66783
2493.69	5.51296
2495.07	5.13659
2496.45	4.11966
2497.84	3.7695
2499.22	3.08307
2500.6	3.21337
2501.98	3.29884
2503.36	3.64567
2504.75	3.80889
2506.13	3.82219
2507.51	3.85988
2508.89	4.02344
2510.27	4.13103
2511.65	3.69479
2513.03	3.56535
2514.41	3.78114
2515.79	3.65249
2517.17	3.7428
2518.55	4.00022
2519.93	3.53833
2521.3	2.9543
2522.68	2.93657
2524.06	3.28789
2525.44	3.61628
2526.82	2.96236
2528.19	3.23469
2529.57	3.84642
2530.95	4.05972
2532.32	4.00356
2533.7	3.53031
2535.08	4.31252
2536.45	4.53033
2537.83	4.34204
2539.2	4.8107
2540.58	5.5923
2541.95	6.18364
2543.33	5.49623
2544.7	5.56774
2546.08	6.49755
2547.45	7.30396
2548.82	7.25219
2550.2	6.85239
2551.57	7.25059
2552.94	7.8324
2554.32	7.77847
2555.69	7.3976
2557.06	7.57321
2558.43	8.78947
2559.8	9.0258
2561.18	8.74688
2562.55	8.69558
2563.92	9.08221
2565.29	9.49425
2566.66	10.1173
2568.03	10.3379
2569.4	11.1755
2570.77	11.4179
2572.14	11.6035
2573.51	11.776
2574.88	11.7346
2576.25	11.5073
2577.61	11.7326
2578.98	11.3173
2580.35	11.0918
2581.72	11.3982
2583.09	11.4133
2584.45	11.7427
2585.82	12.0439
2587.19	12.123
2588.55	12.012
2589.92	11.8532
2591.29	12.3414
2592.65	12.8282
2594.02	12.6841
2595.38	12.313
2596.75	12.2162
2598.11	12.5381
2599.48	12.6555
2600.84	13.1003
2602.21	13.243
2603.57	13.6779
2604.93	13.4112
2606.3	13.7704
2607.66	14.0482
2609.02	13.7782
2610.39	13.5267
2611.75	13.229
2613.11	13.3618
2614.47	12.9758
2615.83	12.4479
2617.19	11.7292
2618.56	11.8279
2619.92	11.5475
2621.28	11.7434
2622.64	11.3016
2624	11.1182
2625.36	11.2583
2626.72	11.4134
2628.08	10.6739
2629.44	9.87809
2630.8	9.97214
2632.15	10.2394
2633.51	10.2153
2634.87	10.2313
2636.23	10.0199
2637.59	10.1038
2638.94	10.4438
2640.3	10.4711
2641.66	10.4809
2643.02	9.92548
2644.37	9.3268
2645.73	9.89639
2647.09	9.39823
2648.44	9.9665
2649.8	10.182
2651.15	10.0851
2652.51	9.9213
2653.86	9.73595
2655.22	9.49662
2656.57	9.67003
2657.93	9.4923
2659.28	10.1932
2660.63	10.7129
2661.99	10.3819
2663.34	10.5549
2664.69	10.8051
2666.05	11.865
2667.4	11.5982
2668.75	11.8248
2670.1	11.4179
2671.45	11.3023
2672.81	11.4405
2674.16	11.7608
2675.51	11.6571
2676.86	11.7223
2678.21	11.9857
2679.56	11.8746
2680.91	12.0448
2682.26	12.2192
2683.61	12.8265
2684.96	12.73
2686.31	13.0654
2687.66	12.846
2689	13.1986
2690.35	13.1003
2691.7	12.9875
2693.05	12.8129
2694.4	13.5523
2695.74	13.9782
2697.09	14.4551
2698.44	16.1032
2699.79	16.3505
2701.13	16.5162
2702.48	16.6763
2703.83	16.8114
2705.17	16.9379
2706.52	17.1713
2707.86	17.3006
2709.21	17.9222
2710.55	17.98
2711.9	18.0241
2713.24	19.0348
2714.58	19.2621
2715.93	20.2124
2717.27	19.923
2718.62	19.9263
2719.96	20.1185
2721.3	20.5575
2722.65	20.9435
2723.99	21.1798
2725.33	21.2401
2726.67	21.827
2728.01	21.649
2729.35	20.9522
2730.7	21.5812
2732.04	21.1417
2733.38	21.1579
2734.72	20.5063
2736.06	20.6174
2737.4	19.9962
2738.74	19.5242
2740.08	19.0897
2741.42	18.6209
2742.76	19.147
2744.1	19.0437
2745.43	18.978
2746.77	18.5494
2748.11	17.9625
2749.45	17.8702
2750.79	17.4877
2752.12	16.7737
2753.46	16.7046
2754.8	16.5714
2756.14	16.2044
2757.47	16.0852
2758.81	15.6678
2760.14	15.8383
2761.48	16.2298
2762.81	15.6648
2764.15	15.1426
2765.49	14.3627
2766.82	13.229
2768.16	12.3654
2769.49	11.7202
2770.82	11.1424
2772.16	10.3669
2773.49	9.95781
2774.82	9.95611
2776.16	9.60434
2777.49	9.08277
2778.82	8.91629
2780.16	8.82856
2781.49	8.32464
2782.82	7.65668
2784.15	6.95492
2785.48	6.58394
2786.82	5.74144
2788.15	5.78838
2789.48	5.85748
2790.81	5.32078
2792.14	5.13366
2793.47	4.94703
2794.8	4.48162
2796.13	4.24226
2797.46	4.18982
2798.79	3.70869
2800.12	3.75326
2801.44	3.38739
2802.77	2.72314
2804.1	2.89316
2805.43	3.50288
2806.76	3.9504
2808.08	4.2997
2809.41	4.53481
2810.74	4.1375
2812.07	4.02662
2813.39	4.35742
2814.72	4.84206
2816.05	6.14663
2817.37	6.98107
2818.7	8.01192
2820.02	9.77053
2821.35	10.6006
2822.67	11.9291
2824	13.7701
2825.32	14.9732
2826.65	16.9555
2827.97	18.5991
2829.3	20.3527
2830.62	21.7393
2831.94	23.5032
2833.26	26.8342
2834.59	29.6492
2835.91	32.7758
2837.23	35.5626
2838.56	38.2907
2839.88	42.4071
2841.2	46.6106
2842.52	50.9125
2843.84	55.6184
2845.16	60.6963
2846.48	65.326
2847.8	70.5262
2849.12	75.4379
2850.45	81.1558
2851.77	87.8408
2853.08	94.4455
2854.4	101.678
2855.72	107.763
2857.04	114.312
2858.36	120.889
2859.68	127.608
2861	133.71
2862.32	139.67
2863.63	145.22
2864.95	151.456
2866.27	156.831
2867.59	161.463
2868.9	166.903
2870.22	172.268
2871.54	175.81
2872.85	178.782
2874.17	181.755
2875.48	185.045
2876.8	188.107
2878.11	191.168
2879.43	194.366
2880.74	196.62
2882.06	199.561
2883.37	201.614
2884.69	204.426
2886	207.262
2887.31	208.747
2888.63	211.321
2889.94	213.349
2891.25	215.598
2892.57	217.495
2893.88	219.637
2895.19	221.618
2896.5	223.43
2897.82	226.596
2899.13	230.367
2900.44	233.261
2901.75	236.101
2903.06	240.468
2904.37	245.3
2905.68	251.44
2906.99	256.52
2908.3	262.229
2909.61	269.193
2910.92	275.861
2912.23	282.609
2913.54	289.905
2914.85	297.61
2916.16	305.379
2917.46	312.882
2918.77	319.036
2920.08	325.172
2921.39	330.367
2922.7	335.476
2924	339.697
2925.31	344.129
2926.62	347.077
2927.92	349.668
2929.23	352.133
2930.54	353.496
2931.84	353.44
2933.15	352.926
2934.45	352.415
2935.76	350.018
2937.06	347.57
2938.37	344.683
2939.67	342.214
2940.98	338.672
2942.28	334.559
2943.58	329.86
2944.89	324.489
2946.19	318.696
2947.49	313.368
2948.8	307.775
2950.1	302.532
2951.4	296.186
2952.7	289.799
2954.01	283.822
2955.31	277.451
2956.61	270.461
2957.91	263.705
2959.21	257.621
2960.51	251.086
2961.81	244.506
2963.11	239.294
2964.41	234.103
2965.71	228.824
2967.01	223.378
2968.31	218.742
2969.61	213.485
2970.91	208.964
2972.21	203.773
2973.51	199.478
2974.81	195.124
2976.1	190.213
2977.4	185.87
2978.7	180.755
2980	176.285
2981.29	170.208
2982.59	164.074
2983.89	158.176
2985.18	151.973
2986.48	145.3
2987.78	139.198
2989.07	133.9
2990.37	128.054
2991.66	121.39
2992.96	115.013
2994.25	108.699
2995.55	102.425
2996.84	96.3218
2998.14	90.5184
2999.43	84.6017
3000.73	78.9345
3002.02	73.5123
3003.31	67.8751
3004.61	62.9628
3005.9	57.1839
3007.19	52.3803
3008.48	47.6321
3009.77	43.3583
3011.07	39.853
3012.36	36.7952
3013.65	33.2467
3014.94	29.9355
3016.23	27.465
3017.52	25.2053
3018.81	22.976
3020.1	21.3017
3021.4	19.0898
3022.68	17.043
3023.97	15.4566
3025.26	14.8298
3026.55	13.8187
3027.84	13.4227
3029.13	12.7956
3030.42	11.9353
3031.71	11.351
3033	11.1066
3034.28	10.9063
3035.57	11.081
3036.86	11.0074
3038.15	11.8361
3039.43	11.9484
3040.72	12.8143
3042.01	14.0832
3043.29	14.0416
3044.58	15.1723
3045.87	15.7069
3047.15	16.5617
3048.44	17.6644
3049.72	18.1159
3051.01	18.6164
3052.29	19.5513
3053.58	20.5304
3054.86	20.2174
3056.15	20.2328
3057.43	20.4219
3058.71	20.1468
3060	20.5604
3061.28	19.7842
3062.56	19.6029
3063.84	18.7127
3065.13	18.1976
3066.41	17.1572
3067.69	16.835
3068.97	16.1823
3070.26	14.6697
3071.54	14.2026
3072.82	13.8647
3074.1	12.7303
3075.38	11.4433
3076.66	10.5592
3077.94	9.43747
3079.22	8.71719
3080.5	8.16572
3081.78	7.48066
3083.06	6.51869
3084.34	5.08339
3085.62	3.45566
3086.9	2.34606
3088.18	1.96801
3089.45	1.305
3090.73	0.443556
3092.01	-0.448303
3093.29	-0.758312
3094.56	-0.745016
3095.84	-0.738269
3097.12	-0.925279
3098.4	-0.624474
3099.67	-0.681785
3100.95	-0.257865
3102.22	-0.116171
3103.5	0.0954535
3104.78	1.07522
3106.05	1.40188
3107.33	1.47391
3108.6	2.58129
3109.88	3.14306
3111.15	3.58333
3112.43	3.88116
3113.7	4.22736
3114.97	4.50534
3116.25	5.43997
3117.52	6.07894
3118.79	6.5002
3120.07	7.44871
3121.34	7.96664
3122.61	8.38907
3123.88	9.37435
3125.16	9.70038
3126.43	10.4883
3127.7	11.1223
3128.97	12.2704
3130.24	12.9745
3131.51	14.2056
3132.79	14.6774
3134.06	15.7416
3135.33	17.5928
3136.6	18.7718
3137.87	19.1934
3139.14	20.6164
3140.41	22.1828
3141.67	23.152
3142.94	24.3051
3144.21	25.53
3145.48	26.7277
3146.75	28.548
3148.02	30.7388
3149.29	32.6022
