#Acq. time (s)=	45
#Accumulations=	2
#Range (cm-¹)=	200...3150
#Windows=	2
#Auto scanning=	Off
#Autofocus=	Off
#Macrospot=	Off
#AutoExposure=	Off
#Spike filter=	Multiple accum.
#Delay time (s)=	0
#Binning=	1
#Readout mode=	Signal
#DeNoise=	Off
#ICS correction=	On
#Dark correction=	Off
#Inst. Process=	Off
#Detector Gain=	Best Dynamic Range
#Detector ADC=	20 kHz       
#Detector temperature (°C)=	-69.85
#Instrument=	LabRAM HR Evol
#Detector=	Synapse
#Objective=	x100
#Grating=	600 gr/mm
#ND Filter=	100%
#Laser (nm)=	532 
#Hole=	100.021
#Range=	Auto
#Laser Pol.=	No
#Raman. Pol.=	No
#Laser Pol. (°)=	-0.0007625
#Raman Pol. (°)=	89.9995
#Collection=	Microscope
#StageXY=	Marzhauser
#StageZ=	Marzhauser
#X (µm)=	258.5
#Y (µm)=	1688
#Z (µm)=	427.4
#Full time(mm:ss)=	3:18
#Project=	
#Sample=	
#Site=	
#Title=	Thy_40_11_45_2x_45s_532 nm_x100_100%_600 gr_mm
#Remark=	
#Date=	05.07.2022 13:12
#Acquired=	05.07.2022 13:12:48
#Base:Fit=	10.08.2022 10:01:35
#Base:Sub=	10.08.2022 10:01:52
#Filter:Polynom=	16.08.2022 10:21:53
#AxisType[0]=Intens
#AxisUnit[0]=Cnt
#AxisType[1]=Spectr
#AxisUnit[1]=1/cm
200.43	11.477
202.244	10.7746
204.059	10.9768
205.873	10.9696
207.688	10.8459
209.501	10.7965
211.314	10.6321
213.127	10.4011
214.941	9.27392
216.753	8.6179
218.564	8.50731
220.375	8.26812
222.186	7.08132
223.999	6.5733
225.809	6.01867
227.618	6.91019
229.428	7.23081
231.236	7.65944
233.045	7.26438
234.855	7.22408
236.663	6.62815
238.471	6.46549
240.278	6.31637
242.085	6.11482
243.891	6.42676
245.698	6.63871
247.503	6.20886
249.309	5.91397
251.116	6.0362
252.921	5.61049
254.725	5.12403
256.529	3.71588
258.333	3.18089
260.136	2.73616
261.939	3.30681
263.742	3.35752
265.544	4.14799
267.346	3.89387
269.148	3.49461
270.949	2.61352
272.75	3.02339
274.55	2.68802
276.351	4.51976
278.15	4.90715
279.95	4.06554
281.749	4.33768
283.548	3.43556
285.346	3.55364
287.144	4.59429
288.942	4.75042
290.739	5.46884
292.536	5.41182
294.333	5.78288
296.129	4.95773
297.925	5.07365
299.721	5.73162
301.514	5.36437
303.309	5.7416
305.104	5.77902
306.898	7.15778
308.692	8.05835
310.486	8.76235
312.279	8.85712
314.072	10.0797
315.862	11.0569
317.654	12.2128
319.446	12.6221
321.238	13.6138
323.029	14.1205
324.819	14.685
326.608	14.7164
328.398	15.2108
330.188	16.0318
331.977	16.0142
333.766	17.034
335.553	16.6613
337.341	16.2719
339.129	16.6807
340.917	16.5768
342.704	15.9113
344.489	16.0779
346.275	15.5329
348.062	14.3169
349.845	14.3065
351.631	14.3631
353.416	14.6397
355.201	15.2712
356.984	14.3209
358.768	13.631
360.552	13.1327
362.333	13.5391
364.116	12.4137
365.899	11.8423
367.68	10.9764
369.462	9.38942
371.243	9.09579
373.023	8.9154
374.804	8.5531
376.585	8.62898
378.363	8.04914
380.143	7.74073
381.923	6.0763
383.7	4.92704
385.479	4.00807
387.256	4.92396
389.034	4.99319
390.812	4.37849
392.588	4.52019
394.365	5.15005
396.14	5.35617
397.916	4.87415
399.691	5.03007
401.467	4.7798
403.24	5.85708
405.015	5.94605
406.788	6.64901
408.563	7.24857
410.335	6.96289
412.109	6.83014
413.88	6.82742
415.654	6.57653
417.424	7.08178
419.197	7.59676
420.967	7.69088
422.739	8.45332
424.508	7.92064
426.279	9.54226
428.048	10.4262
429.819	10.2478
431.587	10.3073
433.356	10.1775
435.124	9.79069
436.891	10.2708
438.66	11.3216
440.426	11.922
442.194	12.2283
443.96	11.5864
445.725	12.2543
447.492	12.9395
449.257	13.2393
451.021	13.724
452.787	13.7195
454.551	13.9679
456.314	13.9419
458.079	13.4379
459.842	13.7671
461.604	13.9018
463.368	13.5301
465.13	14.0595
466.891	14.3745
468.654	14.3349
470.415	14.0717
472.175	14.5707
473.935	15.1175
475.696	14.9371
477.456	14.963
479.215	16.2619
480.973	17.2502
482.733	17.6813
484.491	17.4487
486.249	17.2247
488.006	17.7899
489.765	18.5486
491.522	18.9283
493.278	18.7313
495.034	19.4091
496.789	18.8809
498.544	18.688
500.301	19.4825
502.056	19.3316
503.81	19.763
505.564	20.2746
507.317	20.4188
509.071	20.6727
510.825	20.1206
512.578	20.7007
514.33	21.0677
516.082	20.3549
517.833	19.463
519.585	19.3931
521.335	19.9305
523.086	20.555
524.836	20.6614
526.586	21.3122
528.335	21.9111
530.085	21.3811
531.835	21.3542
533.584	22.2821
535.332	21.3153
537.08	19.905
538.827	19.268
540.574	18.3619
542.321	17.0783
544.068	16.447
545.814	16.5052
547.56	15.7226
549.305	15.3874
551.05	15.2513
552.795	14.365
554.54	13.9444
556.282	13.5138
558.025	12.0585
559.769	11.4965
561.512	11.422
563.255	11.1666
564.997	11.214
566.739	10.9554
568.481	8.71389
570.223	7.84313
571.964	6.82151
573.705	5.95786
575.443	6.73044
577.183	7.21069
578.923	5.905
580.663	5.27407
582.402	4.9252
584.141	4.50351
585.879	4.5263
587.615	4.5244
589.353	3.70199
591.09	3.61529
592.828	3.02571
594.564	2.34524
596.299	2.47944
598.035	1.92951
599.771	2.48951
601.506	2.57406
603.242	2.34993
604.974	2.47144
606.709	3.24891
608.443	3.98055
610.177	4.01007
611.908	3.99974
613.642	4.62191
615.374	4.8033
617.105	4.70331
618.837	5.08263
620.569	5.13715
622.3	4.10649
624.03	3.64844
625.761	3.49255
627.491	4.32802
629.219	4.25454
630.949	4.61486
632.677	5.62937
634.406	6.02075
636.135	7.19822
637.861	8.27355
639.59	8.27555
641.318	8.94148
643.043	8.99825
644.77	8.5296
646.495	9.72417
648.222	10.0858
649.948	9.46781
651.672	9.56062
653.398	10.0021
655.121	10.5067
656.846	11.9787
658.569	13.4292
660.293	14.9805
662.015	16.0418
663.738	16.0187
665.46	15.8554
667.183	16.5955
668.903	17.3782
670.626	17.2379
672.346	17.57
674.067	18.394
675.787	18.0155
677.508	18.3486
679.226	18.3838
680.947	18.1599
682.665	18.592
684.385	17.6464
686.102	18.0802
687.821	18.7781
689.538	19.1458
691.254	20.9048
692.972	22.2236
694.688	22.8929
696.406	23.4815
698.121	24.3871
699.835	24.7507
701.552	26.1034
703.266	27.0862
704.98	27.2964
706.695	28.8055
708.409	29.8051
710.121	30.7887
711.836	31.2757
713.548	33.4292
715.26	34.4183
716.973	35.7797
718.685	37.251
720.396	37.4087
722.108	38.0512
723.818	38.7408
725.528	39.2301
727.238	39.8593
728.949	40.6778
730.658	40.8368
732.367	41.5432
734.075	42.1163
735.785	42.6465
737.493	44.2489
739.2	45.9295
740.907	47.1071
742.614	48.672
744.322	50.2874
746.028	50.1552
747.734	51.009
749.439	52.0846
751.144	52.2207
752.849	52.4031
754.555	52.9868
756.26	53.5823
757.963	55.1758
759.667	55.9468
761.37	55.509
763.073	55.8172
764.775	56.4811
766.477	57.2142
768.179	57.9557
769.883	59.4067
771.584	61.6115
773.285	63.4286
774.986	64.5694
776.686	65.1213
778.386	66.4404
780.085	67.8471
781.785	69.4462
783.484	70.6688
785.182	72.0501
786.881	73.6969
788.579	74.1461
790.276	74.5104
791.974	75.9681
793.671	76.2833
795.367	76.7923
797.064	77.4913
798.76	78.9052
800.456	78.3682
802.151	78.3586
803.846	78.4883
805.541	78.6892
807.234	79.284
808.928	79.2139
810.622	79.623
812.315	79.0781
814.008	79.2591
815.701	79.374
817.394	80.1289
819.086	80.2865
820.778	79.9723
822.468	80.3221
824.159	81.035
825.85	80.0995
827.541	80.1947
829.231	78.8616
830.921	77.2884
832.609	76.0323
834.298	74.8046
835.987	73.8772
837.676	73.0192
839.364	73.0348
841.051	72.6
842.738	71.4675
844.426	70.2977
846.113	68.4573
847.798	67.7415
849.484	66.6329
851.171	66.185
852.857	65.0673
854.54	64.6477
856.226	63.8069
857.911	62.1131
859.593	61.0755
861.278	60.8717
862.961	61.2101
864.645	60.4918
866.327	59.6435
868.01	58.4222
869.692	57.7277
871.373	56.7806
873.055	55.557
874.735	54.9167
876.416	54.7156
878.097	53.4766
879.776	52.8906
881.457	52.5178
883.135	51.9205
884.815	50.7001
886.495	50.7519
888.172	50.4657
889.851	50.2623
891.528	49.6324
893.206	49.2546
894.882	48.6601
896.56	48.2938
898.237	48.1843
899.912	48.7495
901.589	47.9886
903.263	46.8638
904.94	46.884
906.614	46.5601
908.289	46.0799
909.962	44.8384
911.635	44.2534
913.31	44.1624
914.982	44.0409
916.656	44.2083
918.328	45.1241
920.001	44.1024
921.672	44.1877
923.345	44.7081
925.015	43.9323
926.685	42.8689
928.357	42.6286
930.026	41.6704
931.698	40.8904
933.366	39.8301
935.035	40.1368
936.705	39.6799
938.373	39.6053
940.041	38.9122
941.71	37.0088
943.377	36.3017
945.044	36.2909
946.712	35.1794
948.378	35.7467
950.044	35.7824
951.709	35.3149
953.376	35.26
955.041	35.2316
956.706	34.1706
958.372	34.6124
960.036	35.0757
961.699	34.7907
963.362	34.5695
965.027	34.4546
966.69	34.3558
968.352	34.8142
970.014	34.9941
971.676	35.2174
973.339	35.5875
975	35.6635
976.661	36.0208
978.322	36.5987
979.982	38.2333
981.642	38.9055
983.303	38.8296
984.962	38.2016
986.621	37.8462
988.28	38.6513
989.938	38.0032
991.596	37.9811
993.254	38.2194
994.911	38.1642
996.57	38.7417
998.227	37.8463
999.884	37.3551
1001.54	37.2821
1003.2	35.5248
1004.85	36.1244
1006.51	34.762
1008.16	33.3931
1009.82	32.0669
1011.47	31.2797
1013.12	30.4888
1014.78	30.053
1016.43	29.4572
1018.08	29.5441
1019.74	28.2784
1021.39	26.5684
1023.04	24.9346
1024.69	24.3702
1026.34	24.6762
1028	25.9903
1029.65	25.7666
1031.3	27.3307
1032.95	26.623
1034.6	26.1487
1036.25	25.004
1037.9	24.3465
1039.54	24.0889
1041.19	24.562
1042.84	24.3649
1044.49	24.4286
1046.14	24.1067
1047.78	24.8894
1049.43	24.8091
1051.08	24.519
1052.72	24.4917
1054.37	24.4423
1056.02	24.4453
1057.66	24.0758
1059.31	24.9456
1060.95	25.0844
1062.6	24.4147
1064.24	23.737
1065.88	22.8512
1067.53	22.8266
1069.17	22.4781
1070.81	22.3464
1072.45	21.2024
1074.1	20.8952
1075.74	21.1362
1077.38	20.5477
1079.02	19.7124
1080.66	18.2471
1082.3	17.5779
1083.94	17.0204
1085.58	15.8763
1087.22	16.8039
1088.86	16.2823
1090.5	16.2911
1092.14	16.8013
1093.78	16.6882
1095.42	16.657
1097.05	16.1734
1098.69	15.7469
1100.33	15.6189
1101.96	15.2703
1103.6	15.3553
1105.24	16.1028
1106.87	17.6532
1108.51	18.1196
1110.14	18.9049
1111.78	18.8811
1113.41	18.1788
1115.05	17.2038
1116.68	16.3989
1118.31	16.2082
1119.95	15.7451
1121.58	16.34
1123.21	16.1766
1124.85	16.3222
1126.48	16.4113
1128.11	15.2562
1129.74	14.5034
1131.37	14.0603
1133	13.7811
1134.63	13.69
1136.26	13.8295
1137.89	13.1811
1139.52	13.1886
1141.15	13.4481
1142.78	11.7533
1144.41	11.5513
1146.04	11.773
1147.66	10.9964
1149.29	9.5532
1150.92	8.4253
1152.55	7.23416
1154.17	6.18965
1155.8	6.34577
1157.43	6.2934
1159.05	4.74042
1160.68	3.55746
1162.3	3.54036
1163.93	4.02575
1165.55	4.72285
1167.17	4.83251
1168.8	4.79778
1170.42	4.99054
1172.05	4.138
1173.67	3.69989
1175.29	3.92717
1176.91	4.06782
1178.54	4.76057
1180.16	5.19193
1181.78	5.27908
1183.4	5.99842
1185.02	6.60158
1186.64	6.43923
1188.26	6.74462
1189.88	6.27546
1191.5	5.96161
1193.12	5.93622
1194.74	6.20923
1196.36	7.29122
1197.97	8.40719
1199.59	8.66782
1201.21	9.27045
1202.83	11.0973
1204.44	11.6875
1206.06	12.4459
1207.68	12.639
1209.29	13.5146
1210.91	14.8191
1212.52	16.9162
1214.14	19.2338
1215.75	20.6184
1217.37	22.1882
1218.98	22.5202
1220.59	24.3846
1222.21	25.5722
1223.82	26.6393
1225.43	28.3178
1227.05	29.3465
1228.66	30.1991
1230.27	31.293
1231.88	32.7294
1233.49	34.2319
1235.1	35.6818
1236.72	37.9976
1238.33	39.9527
1239.94	41.3177
1241.55	42.6548
1243.16	44.2257
1244.76	45.3377
1246.37	47.1887
1247.98	47.2984
1249.59	48.4882
1251.2	49.2345
1252.8	49.4119
1254.41	51.0121
1256.02	51.7872
1257.62	51.405
1259.23	51.3625
1260.84	51.8793
1262.44	52.2419
1264.05	52.5207
1265.66	53.3055
1267.26	52.8601
1268.86	54.0753
1270.47	54.5785
1272.07	55.6024
1273.67	56.6725
1275.28	58.0156
1276.88	58.4588
1278.48	59.5731
1280.09	60.5237
1281.69	61.9696
1283.29	62.5038
1284.89	62.9659
1286.49	63.423
1288.09	64.1694
1289.69	66.7346
1291.29	67.4721
1292.89	69.1055
1294.49	69.6933
1296.09	69.5142
1297.69	69.9749
1299.29	70.445
1300.89	71.1731
1302.49	71.7714
1304.08	73.246
1305.68	73.34
1307.28	74.421
1308.88	74.669
1310.47	74.8272
1312.07	75.3798
1313.66	75.7639
1315.26	76.2074
1316.85	76.7919
1318.45	76.9173
1320.04	75.9658
1321.64	75.3835
1323.23	75.1353
1324.83	75.0293
1326.42	74.4966
1328.01	73.7533
1329.61	72.6547
1331.2	71.6173
1332.79	70.4142
1334.38	69.5256
1335.97	68.1804
1337.56	67.4249
1339.16	65.9202
1340.75	65.5392
1342.34	63.5352
1343.93	60.984
1345.52	59.3095
1347.11	56.7245
1348.7	55.4846
1350.29	54.0877
1351.87	52.7872
1353.46	51.2687
1355.05	50.1088
1356.64	48.9044
1358.22	47.7269
1359.81	46.3282
1361.4	43.4796
1362.98	41.8645
1364.57	39.9437
1366.16	38.3548
1367.74	37.0204
1369.33	35.9168
1370.91	33.3617
1372.5	32.5375
1374.08	31.0054
1375.67	29.5529
1377.25	28.3032
1378.83	27.409
1380.41	26.2116
1382	24.6867
1383.58	25.0631
1385.16	23.5618
1386.74	24.1112
1388.33	22.5707
1389.91	22.1876
1391.49	21.9059
1393.07	21.0879
1394.65	21.6804
1396.23	22.2164
1397.81	22.057
1399.39	21.4299
1400.97	20.3709
1402.55	20.8513
1404.13	20.8153
1405.7	20.969
1407.28	20.94
1408.86	21.1209
1410.44	21.9719
1412.01	23.2556
1413.59	25.608
1415.17	26.1748
1416.74	27.4549
1418.32	28.0362
1419.89	28.9758
1421.47	29.4491
1423.04	30.7448
1424.62	33.939
1426.19	36.0348
1427.77	38.8451
1429.34	40.961
1430.91	43.2899
1432.49	45.9121
1434.06	48.2692
1435.63	51.1532
1437.2	53.0906
1438.78	54.4813
1440.35	55.8046
1441.92	57.8805
1443.49	58.9165
1445.06	60.4488
1446.63	61.0863
1448.2	61.694
1449.77	62.473
1451.34	62.8263
1452.91	62.2883
1454.48	61.7996
1456.05	61.6338
1457.62	60.9861
1459.18	60.1959
1460.75	59.7432
1462.32	58.9268
1463.89	56.6717
1465.45	54.6335
1467.02	52.2969
1468.59	50.8302
1470.15	49.0523
1471.72	47.0783
1473.28	45.1479
1474.85	42.3359
1476.41	39.2669
1477.98	37.0894
1479.54	35.072
1481.1	34.2353
1482.67	31.2936
1484.23	28.9283
1485.79	27.7784
1487.36	27.6572
1488.92	26.5179
1490.48	25.4464
1492.04	23.5458
1493.61	21.6396
1495.17	19.8922
1496.73	18.8001
1498.29	18.2719
1499.85	18.3576
1501.41	18.7018
1502.97	19.1065
1504.53	18.3402
1506.09	18.5771
1507.65	18.6262
1509.2	19.6043
1510.76	19.9039
1512.32	19.6214
1513.88	19.0357
1515.43	18.7544
1516.99	18.493
1518.55	18.7918
1520.1	19.7751
1521.66	19.3906
1523.22	19.9564
1524.77	19.7397
1526.33	19.9421
1527.88	20.5598
1529.44	20.7899
1530.99	21.3532
1532.54	21.1751
1534.1	21.9225
1535.65	22.1515
1537.21	23.2866
1538.76	23.7684
1540.31	24.5103
1541.86	25.2936
1543.42	26.6877
1544.97	28.0092
1546.52	29.1989
1548.07	30.3383
1549.62	31.8626
1551.17	33.1096
1552.72	34.6183
1554.27	36.4774
1555.82	38.3474
1557.37	39.5216
1558.92	40.2566
1560.47	40.1065
1562.02	41.1247
1563.56	42.6701
1565.11	43.2164
1566.66	43.5133
1568.21	44.5205
1569.75	45.7364
1571.3	46.9553
1572.85	48.2217
1574.39	50.516
1575.94	52.5828
1577.49	53.8823
1579.03	55.1857
1580.57	55.8869
1582.12	56.0484
1583.66	56.8085
1585.21	57.4945
1586.75	57.6478
1588.3	57.5333
1589.84	57.8621
1591.38	58.4943
1592.92	59.7889
1594.47	59.8433
1596.01	60.453
1597.55	61.0357
1599.09	60.263
1600.63	60.1535
1602.17	59.5208
1603.71	59.0528
1605.25	59.0027
1606.79	58.6243
1608.33	58.4962
1609.87	58.016
1611.41	59.1462
1612.95	59.5753
1614.49	60.1867
1616.03	60.1948
1617.57	60.7123
1619.1	60.7747
1620.64	62.2259
1622.18	62.2307
1623.72	62.6949
1625.25	64.0796
1626.79	65.1952
1628.32	66.2026
1629.86	67.6762
1631.39	68.3165
1632.93	68.7221
1634.46	68.8767
1636	69.2502
1637.53	70.5201
1639.07	72.8409
1640.6	74.3707
1642.13	76.5873
1643.67	78.7441
1645.2	80.8197
1646.73	82.1594
1648.26	83.5691
1649.8	85.2855
1651.33	87.14
1652.86	87.8355
1654.39	87.5074
1655.92	87.7847
1657.45	87.8205
1658.98	87.6718
1660.51	87.8684
1662.04	87.7605
1663.57	87.5903
1665.1	87.4198
1666.63	86.7526
1668.16	85.757
1669.68	83.9395
1671.21	82.6394
1672.74	80.1895
1674.27	77.3617
1675.79	74.0382
1677.32	71.411
1678.85	69.4771
1680.37	67.1636
1681.9	64.6047
1683.42	62.2954
1684.95	59.1848
1686.47	56.0201
1688	53.6471
1689.52	50.5435
1691.05	47.3814
1692.57	43.9198
1694.09	40.4412
1695.62	37.3603
1697.14	34.3013
1698.66	31.1989
1700.18	28.7729
1701.71	26.685
1703.23	23.7498
1704.75	21.4865
1706.27	18.9685
1707.79	16.2481
1709.31	14.5259
1710.83	12.8033
1712.35	11.7877
1713.87	11.4392
1715.39	10.6161
1716.91	9.23243
1718.43	8.52465
1719.95	7.98372
1721.47	6.86883
1722.99	5.9567
1724.5	5.67265
1726.02	5.9833
1727.54	5.94765
1729.06	5.47807
1730.57	5.11434
1732.09	5.18367
1733.61	5.41948
1735.12	5.21459
1736.64	5.85359
1738.15	6.09791
1739.67	6.72296
1741.18	6.49763
1742.7	6.14881
1744.21	6.10605
1745.72	5.86134
1747.24	6.05379
1748.75	5.36731
1750.26	5.4813
1751.77	5.42309
1753.29	5.64566
1754.8	5.81518
1756.31	5.11891
1757.82	4.70315
1759.33	4.185
1760.84	3.28527
1762.36	3.10785
1763.87	2.85324
1765.38	2.53231
1766.89	2.3563
1768.4	2.2196
1769.91	2.41703
1771.41	2.12797
1772.92	2.43392
1774.43	2.26468
1775.94	1.87357
1777.45	1.78613
1778.95	1.4956
1780.46	1.50919
1781.97	1.80008
1783.48	1.98329
1784.98	2.27022
1786.49	2.56734
1787.99	3.15827
1789.5	3.05507
1791.01	2.79847
1792.51	2.57951
1794.01	2.91767
1795.52	2.76837
1797.02	2.39828
1798.53	2.39266
1800.03	2.60028
1801.53	3.14171
1803.04	2.73215
1804.54	2.63449
1806.04	2.10036
1807.54	2.44652
1809.05	2.57547
1810.55	2.41205
1812.05	2.36808
1813.55	2.14908
1815.05	2.02891
1816.55	1.59361
1818.05	1.17206
1819.55	1.5481
1821.05	1.30575
1822.55	1.20823
1824.05	0.712791
1825.55	0.31761
1827.05	0.556615
1828.55	0.909895
1830.04	1.09055
1831.54	1.08952
1833.04	1.38491
1834.54	1.17185
1836.03	1.56824
1837.53	1.77978
1839.03	2.41001
1840.52	3.26535
1842.02	3.68064
1843.51	4.40608
1845.01	4.95106
1846.5	5.4697
1848	5.77536
1849.49	5.76515
1850.99	6.72832
1852.48	7.05574
1853.97	6.87699
1855.47	7.32655
1856.96	7.87242
1858.45	7.72817
1859.94	7.96671
1861.44	8.58053
1862.93	8.8019
1864.42	8.44404
1865.91	8.84665
1867.4	9.14394
1868.89	9.59809
1870.38	9.21051
1871.87	9.58376
1873.36	9.22227
1874.85	9.99342
1876.34	10.3067
1877.83	9.95783
1879.32	9.95183
1880.81	10.0107
1882.3	9.38499
1882.57	8.80338
1884.07	8.38058
1885.56	8.67127
1887.06	9.36416
1888.55	9.72221
1890.04	10.2297
1891.54	10.1388
1893.03	10.5449
1894.52	10.4001
1896.02	10.8783
1897.51	11.1577
1899	11.8249
1900.49	12.2814
1901.98	12.3762
1903.47	12.1496
1904.96	11.873
1906.45	12.3125
1907.94	12.48
1909.43	12.8539
1910.92	12.3482
1912.41	12.6771
1913.9	12.4985
1915.39	11.8352
1916.88	11.9277
1918.37	11.6186
1919.85	11.6442
1921.34	11.3001
1922.83	11.6398
1924.32	11.6386
1925.8	10.7264
1927.29	10.0122
1928.78	10.4417
1930.26	10.8185
1931.75	10.6322
1933.23	10.8627
1934.72	10.9714
1936.2	10.6266
1937.69	10.4287
1939.17	10.2159
1940.66	10.202
1942.14	9.74722
1943.63	9.25953
1945.11	9.53118
1946.59	9.6578
1948.07	10.4695
1949.56	9.65089
1951.04	9.71357
1952.52	9.90734
1954	9.90563
1955.48	9.5672
1956.96	10.432
1958.45	10.5202
1959.93	11.2937
1961.41	11.7565
1962.89	11.9686
1964.37	12.3058
1965.85	12.1091
1967.32	12.8004
1968.8	12.8685
1970.28	13.3539
1971.76	13.1476
1973.24	13.2801
1974.72	12.913
1976.19	12.2679
1977.67	12.3312
1979.15	11.3385
1980.63	11.4898
1982.1	10.8246
1983.58	9.70395
1985.05	9.11117
1986.53	9.21216
1988	8.45267
1989.48	8.13737
1990.95	8.65434
1992.43	8.53492
1993.9	8.35357
1995.38	7.65666
1996.85	7.33051
1998.32	7.58674
1999.8	7.57459
2001.27	7.90121
2002.74	8.94357
2004.22	8.76624
2005.69	8.57045
2007.16	8.32511
2008.63	8.55835
2010.1	8.23896
2011.57	8.35133
2013.04	8.55398
2014.51	9.02258
2015.98	9.84657
2017.45	10.0028
2018.92	10.5629
2020.39	10.8735
2021.86	10.8913
2023.33	10.6177
2024.8	11.2404
2026.27	11.4767
2027.74	11.3528
2029.2	11.3022
2030.67	11.6697
2032.14	12.4532
2033.61	13.2418
2035.07	13.3234
2036.54	13.4473
2038.01	13.5717
2039.47	13.3341
2040.94	13.4014
2042.4	12.8743
2043.87	13.0087
2045.33	13.1061
2046.8	13.0408
2048.26	12.7229
2049.72	12.5431
2051.19	12.9918
2052.65	12.9219
2054.12	13.8304
2055.58	14.0754
2057.04	13.833
2058.5	14.2921
2059.97	14.8979
2061.43	15.0466
2062.89	15.1301
2064.35	15.7396
2065.81	15.6252
2067.27	16.11
2068.73	17.2734
2070.19	17.9627
2071.65	18.9482
2073.11	19.8672
2074.57	20.1635
2076.03	20.9057
2077.49	20.8077
2078.95	20.9391
2080.41	21.5089
2081.87	22.6088
2083.32	22.5791
2084.78	23.0614
2086.24	23.489
2087.7	23.7248
2089.15	24.1991
2090.61	24.1417
2092.07	25.2502
2093.52	25.9775
2094.98	26.2134
2096.43	26.7949
2097.89	26.9065
2099.34	27.9865
2100.8	28.4498
2102.25	29.2459
2103.71	30.6216
2105.16	31.4266
2106.61	31.9271
2108.07	33.243
2109.52	35.1403
2110.97	36.3561
2112.43	37.1445
2113.88	38.2037
2115.33	39.6616
2116.78	41.9366
2118.23	43.2528
2119.68	45.4777
2121.13	47.6837
2122.59	49.9681
2124.04	52.7995
2125.49	54.8093
2126.94	56.6794
2128.39	58.4952
2129.83	60.1152
2131.28	62.4635
2132.73	65.1756
2134.18	66.6569
2135.63	68.5859
2137.08	71.276
2138.53	73.1014
2139.97	75.3566
2141.42	77.4205
2142.87	78.8796
2144.31	81.3617
2145.76	83.212
2147.21	84.4341
2148.65	86.3641
2150.1	88.0041
2151.54	89.3755
2152.99	90.9725
2154.43	91.9511
2155.88	92.9349
2157.32	94.2654
2158.77	95.675
2160.21	97.1537
2161.65	98.3495
2163.1	100.25
2164.54	100.875
2165.98	102.17
2167.43	102.542
2168.87	102.852
2170.31	102.642
2171.75	103.646
2173.19	103.882
2174.64	104.271
2176.07	104.139
2177.52	104.041
2178.96	103.977
2180.4	103.121
2181.84	101.99
2183.28	100.816
2184.72	99.6444
2186.15	98.6078
2187.59	98.4402
2189.03	97.7507
2190.47	95.8306
2191.91	94.8386
2193.35	92.9909
2194.78	91.5846
2196.22	89.7999
2197.66	87.1183
2199.09	85.41
2200.53	83.6911
2201.97	81.3589
2203.4	79.8472
2204.84	77.8885
2206.27	74.7016
2207.71	73.0728
2209.14	70.8279
2210.58	68.1243
2212.01	66.1407
2213.45	63.6434
2214.88	61.6454
2216.31	59.7743
2217.75	57.7032
2219.18	55.9968
2220.61	54.365
2222.05	52.9336
2223.48	50.7651
2224.91	49.5824
2226.34	47.8849
2227.78	47.0626
2229.21	45.397
2230.64	43.9182
2232.07	43.3601
2233.5	42.1401
2234.93	40.7729
2236.36	39.1802
2237.79	38.3191
2239.22	36.0869
2240.65	34.8767
2242.08	34.2188
2243.5	33.8338
2244.93	32.8941
2246.36	32.0216
2247.79	31.4634
2249.22	30.9898
2250.64	29.8179
2252.07	29.2377
2253.5	29.124
2254.92	28.8244
2256.35	28.0275
2257.78	27.8757
2259.2	27.517
2260.63	26.534
2262.05	25.7804
2263.48	25.2576
2264.9	24.6726
2266.33	24.4803
2267.75	23.6441
2269.18	23.5566
2270.6	23.6621
2272.02	22.8694
2273.45	21.9807
2274.87	22.0866
2276.29	21.2759
2277.71	20.3285
2279.14	20.0163
2280.56	18.8245
2281.98	18.9958
2283.4	18.8548
2284.82	18.1183
2286.24	18.1687
2287.66	18.3633
2289.08	17.5089
2290.5	16.9961
2291.92	16.1094
2293.34	14.949
2294.76	14.1314
2296.18	13.5025
2297.6	13.1193
2299.02	12.6532
2300.44	12.1337
2301.86	12.2022
2303.27	12.4938
2304.69	11.9879
2306.11	11.6905
2307.53	11.4142
2308.94	10.8662
2310.36	11.1373
2311.78	11.5074
2313.19	11.5931
2314.61	11.4032
2316.02	11.4488
2317.44	11.2198
2318.85	11.4745
2320.27	10.7019
2321.68	10.0346
2323.1	9.67982
2324.51	9.38382
2325.92	8.79318
2327.34	7.93622
2328.75	7.34455
2330.16	6.35608
2331.58	6.12488
2332.99	5.94943
2334.4	5.57199
2335.81	5.42532
2337.23	5.36111
2338.64	4.45783
2340.05	4.70913
2341.46	4.36639
2342.87	3.54314
2344.28	3.34496
2345.69	3.14714
2347.1	2.35636
2348.51	1.79947
2349.92	1.90382
2351.33	2.18134
2352.74	2.10395
2354.15	1.76974
2355.55	1.46113
2356.96	1.1439
2358.37	1.30136
2359.78	0.334298
2361.19	0.275343
2362.59	0.0902299
2364	0.860967
2365.41	1.91085
2366.81	2.19001
2368.22	2.4253
2369.62	2.08993
2371.03	2.50639
2372.44	2.74694
2373.84	2.85638
2375.24	2.97103
2376.65	3.10774
2378.05	2.80591
2379.46	3.59361
2380.86	4.18262
2382.26	3.89651
2383.67	4.1432
2385.07	4.23096
2386.47	4.45335
2387.88	4.24003
2389.28	4.09041
2390.68	3.63501
2392.08	3.48662
2393.48	3.61405
2394.89	4.01963
2396.29	3.78228
2397.69	4.04022
2399.09	3.9093
2400.49	4.63271
2401.89	5.05651
2403.29	4.61246
2404.69	4.19898
2406.09	3.60433
2407.48	3.61224
2408.88	3.25964
2410.28	3.28359
2411.68	2.976
2413.08	2.78384
2414.48	2.51108
2415.87	2.32318
2417.27	1.77008
2418.67	1.80141
2420.06	2.2118
2421.46	1.61732
2422.86	1.47611
2424.25	1.02292
2425.65	0.57028
2427.04	0.352293
2428.44	0.592323
2429.83	0.305443
2431.23	0.768121
2432.62	1.11657
2434.02	1.64709
2435.41	1.40824
2436.81	1.28845
2438.2	1.23765
2439.59	1.15221
2440.99	0.857361
2442.38	1.22145
2443.77	1.23576
2445.16	1.28281
2446.56	1.66636
2447.95	1.90163
2449.34	2.61536
2450.73	2.68685
2452.12	2.60897
2453.51	3.07709
2454.9	3.21205
2456.29	3.33074
2457.68	3.04921
2459.07	3.17399
2460.46	3.2989
2461.85	3.47867
2463.24	3.72348
2464.63	4.17142
2466.02	4.08438
2467.4	3.63229
2468.79	3.4901
2470.18	4.2555
2471.57	3.93822
2472.95	3.50031
2474.34	3.37969
2475.73	3.26015
2477.12	3.42026
2478.5	3.04106
2479.89	3.20373
2481.27	3.22099
2482.66	2.83589
2484.04	2.18415
2485.43	2.03874
2486.81	1.99413
2488.2	1.56503
2489.58	1.54152
2490.97	1.11951
2492.35	1.20918
2493.73	0.88291
2495.12	1.52585
2496.5	1.3521
2497.88	2.01875
2499.27	2.21599
2500.65	2.63
2502.03	2.07981
2503.41	1.65136
2504.79	0.879759
2506.17	0.807303
2507.56	0.547722
2508.94	0.0949025
2510.32	-0.261509
2511.7	0.019426
2513.08	0.0422079
2514.46	0.227545
2515.84	0.653131
2517.22	0.636576
2518.59	0.343735
2519.97	0.244254
2521.35	-0.30419
2522.73	-0.0357061
2524.11	-0.182142
2525.49	0.0227484
2526.86	-0.38169
2528.24	-0.219753
2529.62	-0.336664
2530.99	-0.0294535
2532.37	-0.258362
2533.75	-0.584166
2535.12	-0.795317
2536.5	-1.05069
2537.88	-0.406869
2539.25	0.175809
2540.63	-0.115478
2542	-0.13169
2543.38	0.41477
2544.75	0.81267
2546.12	0.968494
2547.5	0.925538
2548.87	1.07784
2550.24	1.17879
2551.62	1.47887
2552.99	1.5828
2554.36	2.07156
2555.74	2.25946
2557.11	2.50088
2558.48	3.60118
2559.85	4.34537
2561.22	4.52036
2562.59	4.31079
2563.96	4.56024
2565.34	4.35012
2566.71	4.95084
2568.08	5.01724
2569.45	4.93895
2570.82	4.36704
2572.18	4.43677
2573.55	4.44093
2574.92	4.72489
2576.29	4.79086
2577.66	4.44756
2579.03	4.494
2580.4	4.56595
2581.77	5.08142
2583.13	4.77409
2584.5	4.87587
2585.87	4.19973
2587.23	3.85791
2588.6	3.92213
2589.97	3.75142
2591.33	3.51454
2592.7	3.2851
2594.06	2.88864
2595.43	2.02833
2596.79	1.70493
2598.16	1.28866
2599.52	0.93411
2600.89	0.550059
2602.25	0.581225
2603.62	0.823909
2604.98	0.697993
2606.34	1.09315
2607.71	1.46348
2609.07	1.2004
2610.43	1.48975
2611.79	1.45747
2613.16	1.32184
2614.52	1.26262
2615.88	1.39371
2617.24	1.26084
2618.6	1.62204
2619.96	1.77252
2621.32	1.90096
2622.68	2.35995
2624.04	2.58148
2625.4	2.98082
2626.76	2.5555
2628.12	2.77217
2629.48	2.41791
2630.84	2.62203
2632.2	3.12823
2633.56	2.97909
2634.92	3.21945
2636.28	3.64952
2637.63	3.79914
2638.99	3.52444
2640.35	3.56054
2641.71	3.3286
2643.06	3.21236
2644.42	3.14072
2645.77	2.92245
2647.13	3.5046
2648.49	3.59512
2649.84	3.79239
2651.2	3.43383
2652.55	3.36282
2653.91	2.92087
2655.26	2.85862
2656.62	2.91044
2657.97	2.74215
2659.33	2.54831
2660.68	3.45389
2662.03	3.34658
2663.39	3.33277
2664.74	3.57487
2666.09	3.3754
2667.44	3.45856
2668.8	3.89396
2670.15	3.90775
2671.5	3.78558
2672.85	3.55648
2674.2	3.91768
2675.55	3.66482
2676.91	3.74616
2678.26	3.97138
2679.61	4.05428
2680.96	4.00333
2682.31	3.85553
2683.66	3.69982
2685	3.56161
2686.35	4.04852
2687.7	4.40831
2689.05	4.89155
2690.4	4.71957
2691.75	4.72466
2693.1	4.54555
2694.44	4.20837
2695.79	4.91301
2697.14	4.63813
2698.49	4.68294
2699.83	4.41662
2701.18	4.39965
2702.52	4.48485
2703.87	4.89591
2705.22	4.47558
2706.56	3.60055
2707.91	3.5539
2709.25	3.20024
2710.6	3.40436
2711.94	3.66115
2713.29	4.19065
2714.63	4.357
2715.97	4.43897
2717.32	3.98884
2718.66	4.09443
2720.01	4.39572
2721.35	4.88201
2722.69	5.0928
2724.03	5.55651
2725.38	5.74193
2726.72	6.41614
2728.06	7.00068
2729.4	6.13896
2730.74	6.03322
2732.08	6.49318
2733.42	6.58772
2734.76	7.12209
2736.1	7.39263
2737.44	6.88761
2738.78	7.06155
2740.12	6.77914
2741.46	6.78553
2742.8	6.66579
2744.14	7.07249
2745.48	6.95915
2746.82	6.60349
2748.16	6.54787
2749.49	6.32805
2750.83	6.45578
2752.17	6.54136
2753.51	6.5802
2754.84	6.23487
2756.18	5.34254
2757.52	4.62891
2758.85	4.29902
2760.19	4.04974
2761.53	3.47956
2762.86	3.22648
2764.2	2.86135
2765.53	2.39949
2766.87	2.10108
2768.2	1.61416
2769.54	0.80263
2770.87	0.606589
2772.2	0.211239
2773.54	0.18769
2774.87	0.414622
2776.2	0.309883
2777.54	0.931446
2778.87	0.464987
2780.2	0.648005
2781.53	0.180376
2782.87	0.346166
2784.2	0.382396
2785.53	1.32411
2786.86	1.97609
2788.19	2.13553
2789.52	2.0345
2790.85	2.21566
2792.18	2.19951
2793.51	2.42671
2794.84	2.28492
2796.17	2.03441
2797.5	2.46651
2798.83	2.79375
2800.16	2.39108
2801.49	2.14705
2802.82	1.75274
2804.15	1.15197
2805.47	1.1474
2806.8	0.610443
2808.13	0.692889
2809.46	0.988462
2810.78	0.659603
2812.11	-0.0670258
2813.44	0.0532231
2814.76	-0.0146547
2816.09	-0.353101
2817.42	-0.0772234
2818.74	-0.517321
2820.07	-0.168818
2821.39	0.244801
2822.72	1.54922
2824.04	3.09565
2825.37	4.71804
2826.69	6.20744
2828.02	7.6732
2829.34	9.89319
2830.66	12.1697
2831.99	14.0413
2833.31	16.4054
2834.63	18.4129
2835.96	21.0256
2837.28	23.8091
2838.6	26.5803
2839.92	29.0521
2841.24	31.7674
2842.57	34.7342
2843.89	38.1089
2845.21	41.5285
2846.53	45.5536
2847.85	49.4122
2849.17	53.7985
2850.49	58.6419
2851.81	62.5858
2853.13	67.036
2854.45	70.7727
2855.77	75.4238
2857.09	79.8565
2858.41	84.2005
2859.72	88.3672
2861.04	92.7784
2862.36	97.207
2863.68	100.809
2865	105.201
2866.31	108.795
2867.63	111.861
2868.95	115.58
2870.26	118.429
2871.58	121.914
2872.9	124.628
2874.21	127.543
2875.53	129.686
2876.84	131.439
2878.16	133.631
2879.47	136.066
2880.79	137.811
2882.1	140.098
2883.42	142.155
2884.73	144.093
2886.05	147.261
2887.36	149.858
2888.67	152.574
2889.99	154.992
2891.3	157.131
2892.61	159.288
2893.92	161.495
2895.24	164.279
2896.55	166.28
2897.86	168.91
2899.17	171.321
2900.48	173.802
2901.79	176.506
2903.11	179.994
2904.42	183.813
2905.73	187.712
2907.04	191.958
2908.35	197.129
2909.66	202.135
2910.97	207.76
2912.27	213.223
2913.58	218.472
2914.89	224.133
2916.2	229.659
2917.51	234.665
2918.82	239.942
2920.13	244.546
2921.43	249.716
2922.74	253.517
2924.05	257.32
2925.35	260.688
2926.66	263.546
2927.97	265.997
2929.27	267.05
2930.58	268.744
2931.89	270.011
2933.19	269.777
2934.5	270.778
2935.8	270.246
2937.11	269.128
2938.41	267.472
2939.72	265.313
2941.02	262.47
2942.32	259.458
2943.63	256.425
2944.93	252.671
2946.24	248.728
2947.54	244.689
2948.84	240.14
2950.14	235.806
2951.45	231.351
2952.75	226.312
2954.05	221.111
2955.35	215.996
2956.65	209.846
2957.95	204.563
2959.26	198.89
2960.56	193.303
2961.86	187.096
2963.16	181.782
2964.46	175.962
2965.76	170.853
2967.06	165.689
2968.36	161.264
2969.66	156.033
2970.96	150.846
2972.25	146.197
2973.55	142.063
2974.85	137.318
2976.15	133.123
2977.45	128.559
2978.74	124.163
2980.04	119.32
2981.34	115
2982.64	110.479
2983.93	105.786
2985.23	101.193
2986.52	96.2717
2987.82	91.1031
2989.12	86.5285
2990.41	81.6359
2991.71	77.1478
2993	72.7327
2994.3	68.4
2995.59	64.935
2996.89	61.0879
2998.18	57.15
2999.48	54.1547
3000.77	49.9314
3002.06	45.8378
3003.36	43.0147
3004.65	39.5464
3005.94	36.5414
3007.23	33.7626
3008.53	31.778
3009.82	29.3847
3011.11	27.6149
3012.4	25.4847
3013.69	23.3831
3014.99	22.0724
3016.28	20.5109
3017.57	19.2472
3018.86	17.6447
3020.15	16.4852
3021.44	15.3145
3022.73	14.4859
3024.02	13.5087
3025.31	13.2007
3026.6	12.7736
3027.89	13.0637
3029.18	12.7267
3030.46	12.7495
3031.75	13.0162
3033.04	13.4099
3034.33	13.4987
3035.62	14.0905
3036.9	14.8918
3038.19	15.9162
3039.48	16.739
3040.76	17.3716
3042.05	17.7383
3043.34	18.439
3044.62	18.6683
3045.91	19.5156
3047.19	19.5069
3048.48	19.6754
3049.77	19.4592
3051.05	19.1706
3052.34	18.6907
3053.62	19.1471
3054.9	18.5031
3056.19	18.0755
3057.47	17.2474
3058.76	16.9113
3060.04	16.0883
3061.32	15.7004
3062.61	15.6472
3063.89	14.5735
3065.17	13.4904
3066.45	12.7603
3067.74	12.2291
3069.02	11.0836
3070.3	10.3436
3071.58	9.8055
3072.86	8.9107
3074.14	7.7644
3075.42	7.01158
3076.7	5.85636
3077.99	5.30889
3079.26	5.26071
3080.54	4.30247
3081.82	3.55984
3083.1	3.01207
3084.38	2.41642
3085.66	2.038
3086.94	1.56599
3088.22	1.66832
3089.5	1.40054
3090.78	0.891438
3092.05	0.884688
3093.33	0.479889
3094.61	0.989907
3095.89	1.02888
3097.16	1.19714
3098.44	1.1421
3099.72	1.25652
3100.99	1.71828
3102.27	2.11749
3103.54	2.09123
3104.82	2.14672
3106.1	2.20561
3107.37	2.17552
3108.65	2.48344
3109.92	2.46567
3111.2	2.20162
3112.47	1.7395
3113.74	0.999763
3115.02	1.11775
3116.29	1.42306
3117.56	1.7685
3118.84	1.11247
3120.11	1.17071
3121.38	1.21096
3122.66	1.3398
3123.93	1.5286
3125.2	1.99651
3126.47	2.04903
3127.74	1.71683
3129.01	1.56484
3130.29	1.86313
3131.56	2.00991
3132.83	1.99566
3134.1	2.6393
3135.37	2.99843
3136.64	3.14248
3137.91	3.77426
3139.18	4.21195
3140.45	4.63342
3141.72	5.02757
3142.99	5.24914
3144.26	5.40963
3145.52	5.67598
3146.79	5.91057
3148.06	6.38416
3149.33	6.22913
