#Acq. time (s)=	45
#Accumulations=	2
#Range (cm-¹)=	200...3150
#Windows=	2
#Auto scanning=	Off
#Autofocus=	Off
#Macrospot=	Off
#AutoExposure=	Off
#Spike filter=	Multiple accum.
#Delay time (s)=	0
#Binning=	1
#Readout mode=	Signal
#DeNoise=	Off
#ICS correction=	On
#Dark correction=	Off
#Inst. Process=	Off
#Detector Gain=	Best Dynamic Range
#Detector ADC=	20 kHz       
#Detector temperature (°C)=	-69.85
#Instrument=	LabRAM HR Evol
#Detector=	Synapse
#Objective=	x100
#Grating=	600 gr/mm
#ND Filter=	100%
#Laser (nm)=	532 
#Hole=	100.021
#Range=	Auto
#Laser Pol.=	No
#Raman. Pol.=	No
#Laser Pol. (°)=	-0.0007625
#Raman Pol. (°)=	89.9995
#Collection=	Microscope
#StageXY=	Marzhauser
#StageZ=	Marzhauser
#X (µm)=	-5108.9
#Y (µm)=	1501.7
#Z (µm)=	63.1
#Full time(mm:ss)=	3:18
#Project=	
#Sample=	
#Site=	
#Title=	Thy_50_12_07_2x_45s_532 nm_x100_100%_600 gr_mm
#Remark=	
#Date=	07.07.2022 09:44
#Acquired=	07.07.2022 09:44:53
#Base:Fit=	10.08.2022 10:03:08
#Base:Fit=	10.08.2022 10:03:15
#Base:Fit=	10.08.2022 10:03:19
#Base:Fit=	10.08.2022 10:04:29
#Base:Sub=	10.08.2022 10:04:45
#Filter:Polynom=	16.08.2022 10:20:24
#AxisType[0]=Intens
#AxisUnit[0]=Cnt
#AxisType[1]=Spectr
#AxisUnit[1]=1/cm
200.43	68.3583
202.246	63.7421
204.061	59.3483
205.875	53.9632
207.688	48.9726
209.501	43.8799
211.316	39.4244
213.129	35.1607
214.941	32.148
216.753	28.929
218.566	25.6547
220.377	23.5749
222.188	22.2789
223.999	19.713
225.809	15.7865
227.618	15.2835
229.43	12.6044
231.239	11.0626
233.047	9.4371
234.855	7.99704
236.663	7.08671
238.471	7.66925
240.278	6.82436
242.087	6.88628
243.894	7.2429
245.7	6.99516
247.506	6.81729
249.311	6.16077
251.116	5.81573
252.921	5.49674
254.725	5.0349
256.529	5.90323
258.333	7.93924
260.136	9.57046
261.939	11.0047
263.744	10.5551
265.546	11.1279
267.348	11.3249
269.15	10.435
270.951	10.1387
272.752	9.72873
274.552	9.29806
276.353	11.6002
278.152	12.9199
279.952	13.202
281.751	14.1878
283.55	12.565
285.348	12.0343
287.146	11.9897
288.942	11.8704
290.739	12.8374
292.536	12.8687
294.333	13.1808
296.129	13.7164
297.925	14.3702
299.721	14.5569
301.516	16.0619
303.311	16.6994
305.106	17.2144
306.9	17.1885
308.694	17.7308
310.486	17.9796
312.279	17.6939
314.072	15.8691
315.864	14.3537
317.656	15.5401
319.448	15.2699
321.24	16.2648
323.029	16.8028
324.819	17.3303
326.61	17.8257
328.4	17.4025
330.19	16.3372
331.977	17.1187
333.766	16.0049
335.555	15.4844
337.343	14.477
339.131	13.612
340.917	13.9435
342.704	13.9162
344.491	13.8634
346.277	13.7786
348.062	14.4694
349.848	14.0592
351.633	13.4511
353.416	12.218
355.201	12.0778
356.986	11.2952
358.77	10.3966
360.552	9.97891
362.335	9.78989
364.118	9.21383
365.899	8.86203
367.682	6.58944
369.464	7.24291
371.243	7.3688
373.025	6.5851
374.806	7.9626
376.585	8.91608
378.365	8.94117
380.143	10.0286
381.923	9.90827
383.702	9.03519
385.479	8.12478
387.258	8.60206
389.034	7.73152
390.812	7.34112
392.59	7.1351
394.365	6.90772
396.142	7.1401
397.916	6.50939
399.693	6.32467
401.467	5.83148
403.242	5.81254
405.015	6.71089
406.79	8.01467
408.565	8.34234
410.337	8.08367
412.111	7.94577
413.882	7.82017
415.656	8.36394
417.426	8.36575
419.197	8.44281
420.969	9.23625
422.739	9.59314
424.51	10.6318
426.279	11.0898
428.05	12.2583
429.819	13.1218
431.589	13.2764
433.356	14.3148
435.124	14.769
436.893	14.5281
438.66	14.2223
440.428	14.5242
442.194	15.0077
443.96	15.511
445.727	17.1766
447.492	16.9705
449.259	17.3403
451.023	18.0801
452.787	18.3761
454.553	19.3219
456.316	19.5595
458.079	20.7978
459.844	20.5938
461.606	21.1813
463.368	22.2342
465.132	22.1313
466.893	22.6516
468.654	23.7725
470.415	24.239
472.177	23.6961
473.937	24.8846
475.696	26.1476
477.456	26.4674
479.217	27.6867
480.975	29.2748
482.733	30.1416
484.491	30.5388
486.251	30.5716
488.008	31.0127
489.765	30.8806
491.522	31.8365
493.278	32.203
495.036	31.5071
496.791	31.3146
498.546	31.3251
500.301	31.0673
502.056	31.7642
503.81	32.1291
505.566	31.6311
507.319	32.059
509.073	33.744
510.825	34.3993
512.578	34.4041
514.33	35.1691
516.082	35.6169
517.833	35.5701
519.587	35.9308
521.337	36.7869
523.088	36.3538
524.838	36.8154
526.588	38.1067
528.337	39.1999
530.087	38.5061
531.835	37.9474
533.584	38.2684
535.332	37.2893
537.08	36.724
538.827	37.2912
540.574	36.2623
542.321	36.3911
544.068	35.8907
545.814	35.8006
547.56	35.5738
549.305	36.0318
551.05	35.4843
552.795	35.0507
554.54	34.4039
556.284	34.3113
558.027	32.6509
559.771	32.5779
561.514	31.4483
563.257	30.7503
564.999	28.4773
566.742	27.0901
568.481	24.7945
570.223	22.2298
571.964	20.2867
573.705	18.5079
575.445	17.182
577.185	15.8512
578.925	15.3361
580.665	13.6874
582.402	11.6024
584.141	9.86426
585.879	9.78104
587.617	9.19259
589.355	9.00283
591.092	8.36212
592.828	7.79595
594.564	6.51994
596.301	6.54944
598.037	5.78632
599.773	5.89333
601.506	6.99035
603.242	7.5058
604.976	7.93882
606.711	8.76734
608.443	9.18051
610.177	8.68085
611.91	9.14052
613.644	9.332
615.374	8.98069
617.107	8.58466
618.839	9.05339
620.569	9.20842
622.3	8.23964
624.032	7.70152
625.761	8.47373
627.491	9.07607
629.221	10.4742
630.949	10.9268
632.679	10.5576
634.408	10.9663
636.135	11.3616
637.863	11.0496
639.592	10.6302
641.318	10.9769
643.045	12.4117
644.77	12.0681
646.497	12.385
648.224	11.6227
649.948	11.8754
651.674	10.9513
653.398	11.464
655.123	11.2503
656.846	11.4016
658.57	11.9725
660.293	12.3378
662.017	12.165
663.738	11.818
665.462	12.7428
667.185	12.021
668.905	11.4953
670.628	11.8616
672.348	12.6135
674.067	12.8404
675.789	13.7255
677.508	14.2167
679.228	13.7713
680.947	14.069
682.667	16.3336
684.385	17.01
686.104	18.0883
687.821	19.8589
689.538	20.8279
691.256	21.7072
692.972	21.9212
694.69	23.27
696.406	23.8553
698.121	24.0522
699.837	25.3674
701.552	26.319
703.268	27.5296
704.982	29.3007
706.695	30.8174
708.41	31.5915
710.123	32.9836
711.836	35.0243
713.55	36.6864
715.262	37.5402
716.973	38.4329
718.685	39.377
720.398	41.2741
722.108	42.1352
723.818	42.3827
725.53	43.9373
727.24	45.2796
728.949	46.4813
730.658	47.1289
732.369	47.9828
734.077	48.5462
735.785	48.7533
737.493	48.7331
739.2	48.1976
740.909	49.6921
742.616	49.7211
744.322	50.0635
746.028	50.4402
747.734	50.5453
749.441	50.8346
751.146	51.6643
752.851	51.7359
754.555	52.1026
756.26	53.3006
757.963	53.9295
759.667	55.368
761.372	55.1505
763.075	54.2859
764.777	54.5065
766.479	56.4755
768.181	57.5168
769.883	57.5372
771.584	58.9842
773.285	59.7862
774.986	59.9982
776.686	59.4488
778.386	60.062
780.085	60.2733
781.785	60.725
783.484	60.8619
785.182	61.7467
786.881	62.4237
788.579	63.5776
790.276	64.0752
791.974	64.7166
793.671	64.7883
795.367	66.5046
797.064	68.4943
798.76	70.4693
800.456	70.9361
802.151	71.823
803.846	73.6957
805.541	74.3012
807.236	74.3683
808.93	75.5826
810.624	78.0598
812.317	78.716
814.01	79.943
815.703	81.3089
817.394	81.6283
819.086	82.2551
820.778	83.8155
822.47	84.0227
824.161	85.8868
825.852	87.9113
827.543	87.7947
829.231	87.4369
830.921	87.465
832.611	86.6852
834.3	87.3652
835.989	87.9262
837.676	87.5651
839.364	87.2662
841.053	87.0721
842.74	85.6835
844.426	84.4751
846.113	83.716
847.8	83.7105
849.486	83.6818
851.171	81.7818
852.857	79.9685
854.542	79.0538
856.227	79.054
857.911	77.6579
859.595	77.6761
861.279	76.6433
862.961	76.1358
864.645	75.2897
866.329	75.0831
868.01	73.2912
869.692	73.8642
871.375	74.8766
873.055	74.2837
874.737	73.1862
876.418	73.1606
878.097	71.7838
879.778	71.4129
881.457	70.3018
883.137	69.2274
884.817	67.6195
886.495	66.6576
888.174	66.3195
889.851	64.8115
891.53	62.9042
893.206	61.9436
894.884	61.5773
896.562	61.055
898.237	60.3087
899.914	59.714
901.589	58.5315
903.265	57.2584
904.94	56.4049
906.615	54.9588
908.289	53.3771
909.964	50.8563
911.637	49.1325
913.31	46.5233
914.984	46.2924
916.656	45.5672
918.33	45.4163
920.001	43.8821
921.674	42.4053
923.345	40.9245
925.015	40.1167
926.687	38.2473
928.357	37.5785
930.028	36.6191
931.698	34.2855
933.366	32.212
935.037	30.2986
936.705	30.7722
938.373	31.3894
940.043	32.3283
941.71	31.6406
943.379	31.2403
945.046	29.0753
946.712	29.2648
948.378	28.8833
950.046	29.026
951.711	29.1386
953.376	30.8735
955.043	30.9648
956.708	31.1202
958.372	30.3609
960.036	29.4357
961.701	29.6211
963.364	31.4929
965.027	33.5977
966.69	35.59
968.354	38.3962
970.016	40.3817
971.678	42.9062
973.339	44.4884
975	44.9586
976.661	47.8473
978.324	51.3148
979.984	53.6539
981.644	54.8797
983.303	56.9629
984.962	57.3981
986.621	58.5244
988.282	60.3084
989.94	61.2302
991.598	62.3214
993.256	63.8013
994.913	65.5774
996.57	66.1842
998.227	68.1276
999.884	67.6816
1001.54	68.6623
1003.2	68.4812
1004.85	68.5477
1006.51	67.9757
1008.16	68.3684
1009.82	68.8152
1011.47	69.6734
1013.12	69.9947
1014.78	70.9847
1016.43	72.8323
1018.08	73.6335
1019.74	76.1813
1021.39	76.9701
1023.04	77.6255
1024.69	77.4366
1026.34	77.1829
1028	77.6903
1029.65	79.4679
1031.3	80.3301
1032.95	81.0703
1034.6	81.1354
1036.25	82.1414
1037.9	81.7098
1039.55	80.3535
1041.19	80.4663
1042.84	81.4174
1044.49	83.1006
1046.14	84.677
1047.79	84.1019
1049.43	83.4753
1051.08	82.9903
1052.73	81.0852
1054.37	78.9232
1056.02	76.6418
1057.66	74.3517
1059.31	73.2834
1060.95	71.6308
1062.6	68.9667
1064.24	67.1399
1065.88	64.3791
1067.53	60.5821
1069.17	59.1565
1070.81	56.9373
1072.46	54.5128
1074.1	52.9073
1075.74	49.8579
1077.38	47.2922
1079.02	44.4115
1080.66	42.2369
1082.3	39.3448
1083.94	38.5128
1085.58	36.4135
1087.22	35.823
1088.86	35.0393
1090.5	35.4643
1092.14	36.0405
1093.78	35.1062
1095.42	35.5334
1097.05	36.9816
1098.69	37.8795
1100.33	38.083
1101.97	39.2722
1103.6	39.2855
1105.24	40.6966
1106.87	40.7894
1108.51	39.7465
1110.15	41.357
1111.78	41.4063
1113.41	41.148
1115.05	40.7742
1116.68	40.8691
1118.31	40.7003
1119.95	39.5325
1121.58	39.3462
1123.21	40.2878
1124.85	39.1374
1126.48	38.1145
1128.11	37.3704
1129.74	35.0698
1131.37	33.9986
1133	33.799
1134.63	31.6035
1136.26	31.4321
1137.89	29.8513
1139.52	28.508
1141.15	27.2058
1142.78	25.4736
1144.41	23.9697
1146.04	22.5936
1147.66	21.4759
1149.29	19.2924
1150.92	17.5274
1152.55	15.1278
1154.17	12.9082
1155.8	10.8341
1157.43	7.42225
1159.05	6.39513
1160.68	4.64257
1162.3	3.07647
1163.93	1.3342
1165.55	0.48351
1167.17	1.06729
1168.8	1.10751
1170.42	0.359561
1172.05	0.882781
1173.67	0.736985
1175.29	1.4156
1176.91	2.53447
1178.54	3.30331
1180.16	3.15752
1181.78	2.81169
1183.4	3.22251
1185.02	3.30297
1186.64	3.35512
1188.26	3.6831
1189.88	4.59265
1191.5	6.01298
1193.12	5.96351
1194.74	5.90898
1196.36	7.77376
1197.97	8.25426
1199.59	9.15295
1201.21	10.0976
1202.83	12.1627
1204.44	14.2992
1206.06	16.7983
1207.68	18.9648
1209.29	21.6132
1210.91	23.8534
1212.52	27.069
1214.14	31.0754
1215.75	34.0249
1217.37	37.2096
1218.98	39.5111
1220.6	42.0823
1222.21	44.6806
1223.82	48.3531
1225.44	52.0278
1227.05	54.6954
1228.66	57.3872
1230.27	59.6074
1231.88	63.3557
1233.49	66.9864
1235.1	71.1789
1236.72	73.7212
1238.33	77.5587
1239.94	81.6343
1241.55	84.6598
1243.16	88.1288
1244.76	91.8384
1246.37	96.1431
1247.98	100.449
1249.59	102.921
1251.2	105.521
1252.8	108.509
1254.41	111.447
1256.02	114.145
1257.63	117.305
1259.23	120.794
1260.84	123.054
1262.44	126.176
1264.05	129.811
1265.66	132.972
1267.26	137.303
1268.87	140.586
1270.47	143.52
1272.07	145.493
1273.68	147.568
1275.28	151.248
1276.88	154.133
1278.48	156.777
1280.09	159.941
1281.69	162.249
1283.29	164.022
1284.89	167.321
1286.49	168.531
1288.09	168.785
1289.69	170.09
1291.3	170.823
1292.9	171.757
1294.49	172.18
1296.09	171.518
1297.69	170.616
1299.29	169.616
1300.89	168.149
1302.49	167.788
1304.09	167.033
1305.68	164.937
1307.28	162.964
1308.88	161.271
1310.47	160.915
1312.07	159.288
1313.66	157.706
1315.26	156.686
1316.86	154.112
1318.45	152.655
1320.05	149.286
1321.64	147.758
1323.23	144.451
1324.83	141.235
1326.42	139.151
1328.01	135.693
1329.61	132.283
1331.2	128.753
1332.79	125.319
1334.38	122.748
1335.98	119.807
1337.57	118.175
1339.16	116.012
1340.75	112.693
1342.34	110.267
1343.93	107.571
1345.52	104.253
1347.11	102.32
1348.7	99.2566
1350.29	96.3963
1351.87	93.3515
1353.46	91.4157
1355.05	89.3339
1356.64	85.6817
1358.23	83.2202
1359.81	80.6253
1361.4	78.753
1362.99	76.7952
1364.57	75.8432
1366.16	72.825
1367.74	71.8718
1369.33	71.048
1370.91	68.9265
1372.5	67.3073
1374.08	66.5258
1375.67	65.5036
1377.25	64.9689
1378.83	62.937
1380.42	63.0211
1382	62.1832
1383.58	61.9344
1385.16	61.4836
1386.75	61.6705
1388.33	62.4733
1389.91	64.0315
1391.49	64.4195
1393.07	65.8396
1394.65	65.8202
1396.23	65.3594
1397.81	64.8745
1399.39	65.7465
1400.97	67.8393
1402.55	68.817
1404.13	71.2012
1405.7	72.2449
1407.28	73.7871
1408.86	77.113
1410.44	80.2496
1412.01	83.9491
1413.59	88.6599
1415.17	93.2569
1416.74	97.9236
1418.32	102.825
1419.89	107.688
1421.47	113.885
1423.05	120.901
1424.62	126.913
1426.19	135.651
1427.77	142.181
1429.34	147.926
1430.92	155.198
1432.49	161.479
1434.06	167.53
1435.63	173.768
1437.2	180.159
1438.78	186.477
1440.35	191.166
1441.92	194.887
1443.49	198.613
1445.06	201.074
1446.63	202.907
1448.2	202.939
1449.77	203.216
1451.34	202.194
1452.91	201.663
1454.48	198.255
1456.05	195.002
1457.62	190.479
1459.18	186.695
1460.75	180.933
1462.32	174.929
1463.89	168.131
1465.45	161.803
1467.02	154.408
1468.59	146.557
1470.15	138.243
1471.72	130.729
1473.28	121.489
1474.85	112.559
1476.41	104.25
1477.98	97.2557
1479.54	89.4438
1481.11	82.0863
1482.67	74.158
1484.23	66.7569
1485.8	61.8711
1487.36	56.2162
1488.92	50.3039
1490.48	46.8325
1492.05	42.4591
1493.61	39.179
1495.17	36.3976
1496.73	34.0782
1498.29	32.4615
1499.85	31.6234
1501.41	30.7928
1502.97	30.7059
1504.53	31.0486
1506.09	29.5018
1507.65	28.9434
1509.2	29.5312
1510.76	29.8303
1512.32	31.509
1513.88	32.43
1515.44	33.9671
1516.99	35.7224
1518.55	37.4272
1520.1	39.4425
1521.66	40.2875
1523.22	42.1426
1524.77	44.6786
1526.33	46.4416
1527.88	48.1196
1529.44	48.4125
1530.99	51.4013
1532.55	52.6096
1534.1	54.2219
1535.65	55.1648
1537.21	57.5805
1538.76	59.1355
1540.31	61.433
1541.86	64.0931
1543.42	65.9763
1544.97	68.4174
1546.52	70.622
1548.07	72.2101
1549.62	73.9142
1551.17	74.8687
1552.72	77.0986
1554.27	79.4339
1555.82	80.8776
1557.37	82.0913
1558.92	83.9512
1560.47	84.9052
1562.02	86.8479
1563.57	88.1023
1565.11	90.35
1566.66	94.1667
1568.21	97.4654
1569.75	99.07
1571.3	102.44
1572.85	104.274
1574.39	106.901
1575.94	109.66
1577.49	112.436
1579.03	114.776
1580.58	116.866
1582.12	117.787
1583.67	119.433
1585.21	122.525
1586.75	124.502
1588.3	126.681
1589.84	128.666
1591.38	130.29
1592.93	132.041
1594.47	134.565
1596.01	134.865
1597.55	134.7
1599.09	135.662
1600.63	136.614
1602.18	136.58
1603.72	135.219
1605.26	134.965
1606.8	135.521
1608.34	136.539
1609.87	136.201
1611.41	136.069
1612.95	137.476
1614.49	139.235
1616.03	139.668
1617.57	140.468
1619.11	141.486
1620.64	142.688
1622.18	143.971
1623.72	144.758
1625.25	146.075
1626.79	147.669
1628.32	150.163
1629.86	151.536
1631.4	152.998
1632.93	154.54
1634.47	156.809
1636	160.26
1637.53	163.756
1639.07	167.19
1640.6	170.825
1642.14	176.089
1643.67	179.569
1645.2	181.883
1646.73	184.779
1648.27	186.718
1649.8	187.431
1651.33	189.39
1652.86	190.387
1654.39	191.92
1655.92	192.132
1657.45	192.274
1658.98	192.351
1660.51	191.187
1662.04	189.746
1663.57	186.797
1665.1	183.876
1666.63	181.468
1668.16	177.291
1669.69	173.532
1671.21	168.82
1672.74	162.454
1674.27	156.908
1675.79	152.4
1677.32	146.009
1678.85	139.819
1680.37	133.538
1681.9	126.775
1683.42	120.467
1684.95	114.265
1686.47	108.141
1688	101.978
1689.52	96.2978
1691.05	90.0626
1692.57	84.0957
1694.1	79.2463
1695.62	73.7921
1697.14	68.7409
1698.66	63.5356
1700.19	58.6181
1701.71	54.3663
1703.23	50.9667
1704.75	47.4326
1706.27	44.1072
1707.79	42.0061
1709.32	39.24
1710.83	36.9525
1712.35	35.3405
1713.88	33.0571
1715.39	31.4628
1716.91	30.8497
1718.43	30.0539
1719.95	28.3438
1721.47	27.9468
1722.99	27.0589
1724.5	25.8301
1726.02	25.7548
1727.54	25.4711
1729.06	25.271
1730.57	25.2226
1732.09	24.3251
1733.61	23.9732
1735.12	23.2663
1736.64	21.9055
1738.15	21.3538
1739.67	20.0387
1741.18	19.0273
1742.7	19.2364
1744.21	17.4651
1745.72	16.6985
1747.24	15.1376
1748.75	14.1111
1750.26	13.2117
1751.78	12.3815
1753.29	10.8992
1754.8	10.3099
1756.31	9.25172
1757.82	7.88797
1759.34	7.88225
1760.85	7.17812
1762.36	6.1865
1763.87	5.66527
1765.38	5.33662
1766.89	5.09625
1768.4	4.76538
1769.91	4.38624
1771.41	2.96002
1772.92	3.03165
1774.43	2.26342
1775.94	2.46608
1777.45	2.97101
1778.96	3.02239
1780.46	2.45861
1781.97	2.45156
1783.48	2.27238
1784.98	2.62722
1786.49	2.50154
1788	2.93939
1789.5	3.15075
1791.01	3.75454
1792.51	3.96204
1794.01	4.21816
1795.52	3.91378
1797.02	3.97901
1798.53	3.7045
1800.03	3.68311
1801.54	3.76359
1803.04	3.40523
1804.54	3.82722
1806.04	3.19975
1807.54	3.01842
1809.05	2.5814
1810.55	2.50227
1812.05	1.97023
1813.55	1.62688
1815.05	1.20929
1816.55	1.67346
1818.05	1.22208
1819.55	0.562615
1821.05	0.587521
1822.55	0.733831
1824.05	0.528763
1825.55	0.270377
1827.05	0.0309893
1828.55	-0.21249
1830.04	-0.192397
1831.54	-0.162933
1833.04	-0.016374
1834.54	-0.421022
1836.03	-0.740251
1837.53	-0.575371
1839.03	-0.0936406
1840.52	0.108548
1842.02	0.732593
1843.51	0.548909
1845.01	0.360885
1846.5	0.252656
1848	0.929278
1849.49	1.02526
1850.99	0.861862
1852.48	0.95061
1853.97	1.38813
1855.47	1.05399
1856.96	0.955722
1858.45	1.02784
1859.94	0.911814
1861.44	0.288634
1862.93	0.309509
1864.42	0.913031
1865.91	1.16644
1867.4	1.50391
1868.89	1.93754
1870.38	0.853622
1871.87	0.735812
1873.36	0.736567
1874.85	0.765819
1876.34	0.337738
1877.83	0.704058
1879.32	0.409914
1880.81	0.378536
1882.3	0.846937
1882.56	1.2334
1884.06	0.935137
1885.55	0.577445
1887.04	1.07491
1888.54	0.895994
1890.03	0.0414097
1891.52	-0.349969
1893.02	0.396173
1894.51	0.263371
1896	0.718328
1897.49	0.277835
1898.99	0.418729
1900.48	0.332446
1901.97	0.0807902
1903.46	1.2218
1904.95	1.48222
1906.44	1.85854
1907.93	2.24249
1909.42	2.1396
1910.91	2.0628
1912.4	1.93557
1913.89	1.43236
1915.38	1.81965
1916.86	1.61883
1918.35	1.48553
1919.84	1.73445
1921.33	1.60401
1922.82	1.02181
1924.3	0.958124
1925.79	1.57831
1927.28	1.82156
1928.76	1.32445
1930.25	1.47318
1931.74	1.74145
1933.22	2.40042
1934.71	2.01643
1936.19	2.4315
1937.67	3.31135
1939.16	3.08498
1940.64	2.76646
1942.13	2.50417
1943.61	1.96882
1945.09	1.64987
1946.58	1.73421
1948.06	1.7662
1949.54	2.08057
1951.03	2.59792
1952.51	2.66372
1953.99	2.50186
1955.47	1.31796
1956.95	1.05994
1958.43	-0.0734976
1959.91	0.532538
1961.39	0.803641
1962.87	0.162485
1964.35	0.267369
1965.83	0.600336
1967.31	0.872454
1968.79	0.279739
1970.27	1.04914
1971.75	-0.0809307
1973.22	0.501486
1974.7	0.290543
1976.18	1.08801
1977.66	1.44167
1979.13	0.788545
1980.61	1.14635
1982.09	0.447874
1983.56	0.39109
1985.04	0.495719
1986.52	1.03461
1987.99	0.799001
1989.47	1.48677
1990.94	0.974554
1992.41	0.755842
1993.89	0.951917
1995.36	0.839662
1996.84	1.35778
1998.31	2.16033
1999.78	2.57078
2001.26	3.47069
2002.73	3.48372
2004.2	4.09891
2005.67	4.58881
2007.15	4.89028
2008.62	4.65309
2010.09	5.38997
2011.56	5.90491
2013.03	5.74011
2014.5	4.78028
2015.97	4.12371
2017.44	3.64478
2018.91	3.26054
2020.38	3.56005
2021.85	3.9185
2023.32	4.56039
2024.79	4.7352
2026.25	4.48567
2027.72	3.84376
2029.19	3.94687
2030.66	4.45195
2032.13	4.71065
2033.59	5.60106
2035.06	5.96713
2036.53	6.51638
2037.99	6.7028
2039.46	6.45081
2040.92	7.32616
2042.39	8.16982
2043.85	9.57205
2045.32	9.67391
2046.78	11.1505
2048.25	11.5535
2049.71	12.7723
2051.18	12.8493
2052.64	13.5274
2054.1	14.7129
2055.56	14.9235
2057.03	16.4855
2058.49	16.4644
2059.95	17.6276
2061.42	18.7653
2062.88	20.1804
2064.34	21.1184
2065.8	22.8705
2067.26	24.7672
2068.72	26.6504
2070.18	28.8411
2071.64	30.6199
2073.1	32.0535
2074.56	33.5386
2076.02	34.6398
2077.48	36.592
2078.94	37.3251
2080.39	38.8148
2081.85	40.1632
2083.31	41.6142
2084.77	43.4768
2086.22	45.1203
2087.68	46.8277
2089.14	49.0287
2090.6	51.6718
2092.05	55.0238
2093.51	58.0455
2094.96	60.5857
2096.42	63.5099
2097.87	66.6045
2099.33	68.6994
2100.78	70.6623
2102.24	74.289
2103.69	77.7513
2105.15	81.3933
2106.6	84.9867
2108.05	88.3068
2109.51	91.1572
2110.96	93.8836
2112.41	97.8325
2113.86	101.255
2115.32	105.664
2116.77	108.984
2118.22	112.629
2119.67	116.704
2121.12	120.524
2122.57	124.848
2124.02	127.44
2125.47	131.817
2126.92	135.22
2128.37	139.514
2129.82	144.59
2131.27	148.824
2132.72	153.091
2134.17	156.25
2135.62	159.869
2137.06	163.294
2138.51	166.727
2139.96	170.521
2141.41	173.177
2142.85	177.368
2144.3	180.448
2145.75	183.003
2147.19	185.507
2148.64	188.653
2150.09	191.682
2151.53	193.838
2152.97	197.414
2154.42	199.754
2155.86	202.722
2157.31	205.616
2158.75	208.235
2160.2	210.012
2161.64	210.849
2163.08	213.189
2164.53	214.748
2165.97	214.892
2167.41	215.137
2168.86	216.33
2170.3	215.758
2171.74	214.518
2173.18	214.613
2174.62	214.903
2176.06	213.152
2177.5	211.634
2178.94	210.75
2180.38	209.393
2181.82	207.259
2183.26	205.76
2184.7	204.054
2186.14	200.78
2187.58	199.412
2189.02	196.522
2190.46	193.776
2191.89	190.812
2193.33	187.104
2194.77	183.014
2196.21	179.178
2197.64	176.215
2199.08	171.468
2200.52	168.523
2201.95	164.386
2203.39	160.498
2204.83	156.158
2206.26	152.044
2207.7	148.525
2209.13	143.868
2210.57	140.653
2212	137.934
2213.43	133.636
2214.87	130.406
2216.3	125.224
2217.73	121.643
2219.17	117.744
2220.6	114.384
2222.03	110.918
2223.47	107.493
2224.9	104.041
2226.33	101.264
2227.76	98.5857
2229.19	95.9754
2230.62	92.5386
2232.05	89.3099
2233.49	86.1049
2234.91	84.5994
2236.34	82.0301
2237.77	79.6606
2239.2	76.9651
2240.63	75.0315
2242.06	72.7096
2243.49	71.4041
2244.92	69.5355
2246.35	67.7559
2247.78	65.9423
2249.2	64.67
2250.63	63.0997
2252.06	60.8906
2253.48	59.4778
2254.91	58.0279
2256.34	56.4841
2257.76	54.6869
2259.19	53.7697
2260.61	52.095
2262.04	50.8566
2263.46	50.2113
2264.89	48.7542
2266.31	47.0401
2267.74	46.2507
2269.16	45.0082
2270.59	44.0256
2272.01	43.7525
2273.43	43.1811
2274.85	42.2141
2276.28	40.8527
2277.7	39.0246
2279.12	37.586
2280.54	36.8471
2281.97	36.0669
2283.39	33.9703
2284.81	32.4151
2286.23	30.9783
2287.65	29.6661
2289.07	28.9171
2290.49	26.436
2291.91	25.0556
2293.33	23.7994
2294.75	22.7115
2296.17	22.2652
2297.59	21.9164
2299.01	20.9752
2300.42	20.1942
2301.84	19.6047
2303.26	18.9722
2304.68	18.0076
2306.1	17.9703
2307.51	17.2174
2308.93	16.0173
2310.35	15.3926
2311.76	15.4385
2313.18	15.3712
2314.59	14.5247
2316.01	13.5055
2317.43	13.1835
2318.84	12.1491
2320.26	11.58
2321.67	10.9274
2323.08	10.8668
2324.5	10.5628
2325.91	9.6272
2327.33	9.44825
2328.74	8.93724
2330.15	8.8549
2331.56	8.69614
2332.98	8.74487
2334.39	8.16623
2335.8	7.49836
2337.21	7.0721
2338.62	6.99141
2340.04	6.75635
2341.45	6.60073
2342.86	6.29087
2344.27	5.57185
2345.68	4.92756
2347.09	5.15206
2348.5	4.63508
2349.91	4.77417
2351.31	4.46259
2352.72	3.25014
2354.13	2.9627
2355.54	3.10166
2356.95	2.41469
2358.36	1.87316
2359.76	1.79647
2361.17	1.63065
2362.58	1.92963
2363.98	2.19122
2365.39	2.95263
2366.8	3.15664
2368.21	2.92905
2369.61	3.46051
2371.02	3.208
2372.42	3.48346
2373.83	2.8629
2375.23	2.93163
2376.64	3.47728
2378.04	3.65368
2379.44	4.25213
2380.85	4.5455
2382.25	4.04826
2383.66	3.99242
2385.06	3.74321
2386.46	3.61613
2387.86	3.5131
2389.26	3.0792
2390.67	3.33525
2392.07	3.65653
2393.47	4.49917
2394.87	4.62163
2396.27	4.72395
2397.67	4.69782
2399.07	5.03209
2400.47	5.24291
2401.87	5.34064
2403.27	5.24668
2404.67	5.71272
2406.07	5.89607
2407.47	5.92008
2408.87	6.2244
2410.27	6.72894
2411.67	6.99069
2413.07	6.96615
2414.46	6.99047
2415.86	7.7208
2417.26	8.04265
2418.66	7.97874
2420.05	8.33362
2421.45	8.2793
2422.84	8.87303
2424.24	9.3053
2425.64	9.62539
2427.03	9.85738
2428.43	10.4192
2429.82	11.6264
2431.22	12.2308
2432.61	13.0476
2434.01	13.3585
2435.4	13.575
2436.79	13.2866
2438.19	13.9799
2439.58	14.2464
2440.97	14.3875
2442.37	14.0162
2443.76	14.2206
2445.15	14.2676
2446.54	14.4216
2447.93	14.2789
2449.33	14.0063
2450.72	13.7312
2452.11	13.86
2453.5	13.9284
2454.89	13.477
2456.28	12.7809
2457.67	12.7557
2459.06	12.5968
2460.45	12.432
2461.84	12.1939
2463.23	12.4879
2464.62	11.3892
2466	10.9109
2467.39	10.2321
2468.78	9.89628
2470.17	9.03542
2471.55	8.1222
2472.94	7.02727
2474.33	7.00389
2475.72	5.94356
2477.1	4.8147
2478.49	5.08013
2479.87	4.77116
2481.26	4.16246
2482.65	4.04805
2484.03	4.39561
2485.42	3.53717
2486.8	2.98561
2488.19	2.62975
2489.57	2.16107
2490.95	1.10743
2492.34	0.997157
2493.72	0.748884
2495.1	1.01717
2496.49	1.55094
2497.87	1.88946
2499.25	1.2599
2500.63	0.250383
2502.02	-0.219776
2503.4	-1.42754
2504.78	-1.60938
2506.16	-1.26112
2507.54	-0.798594
2508.92	-1.71538
2510.3	-2.05036
2511.68	-2.91889
2513.06	-2.0751
2514.44	-2.3798
2515.82	-2.6185
2517.2	-2.21793
2518.58	-1.96645
2519.96	-1.89624
2521.34	-2.6369
2522.72	-2.51376
2524.1	-1.34334
2525.47	-0.764465
2526.85	0.221867
2528.23	0.774677
2529.6	1.10448
2530.98	1.90787
2532.36	1.81929
2533.74	0.999713
2535.11	0.9583
2536.49	1.17629
2537.86	1.76331
2539.24	2.2411
2540.61	3.12953
2541.99	3.87407
2543.36	4.84355
2544.74	5.34649
2546.11	6.10159
2547.49	7.30817
2548.86	7.57383
2550.23	7.53753
2551.61	7.82761
2552.98	7.22279
2554.35	6.72829
2555.72	7.46136
2557.09	7.24276
2558.47	7.5533
2559.84	7.27203
2561.21	7.78561
2562.58	7.85506
2563.95	7.94269
2565.32	7.86521
2566.69	6.86799
2568.06	6.68646
2569.43	7.03128
2570.8	7.3073
2572.17	7.67091
2573.54	7.96358
2574.91	8.09353
2576.28	7.35554
2577.65	6.52285
2579.02	6.6429
2580.39	6.68461
2581.75	7.07165
2583.12	6.37374
2584.49	6.37443
2585.85	6.64929
2587.22	6.56732
2588.59	6.13063
2589.95	6.55462
2591.32	7.2206
2592.68	7.35998
2594.05	6.92927
2595.42	7.09857
2596.78	7.07791
2598.15	6.61542
2599.51	6.23846
2600.88	5.76282
2602.24	5.65441
2603.6	6.22418
2604.97	6.87673
2606.33	6.35642
2607.69	6.39787
2609.06	6.59424
2610.42	6.12284
2611.78	5.41884
2613.14	5.06057
2614.51	4.52723
2615.87	4.06629
2617.23	4.27041
2618.59	3.70599
2619.95	3.96158
2621.31	3.73459
2622.67	3.79362
2624.03	3.34049
2625.39	3.46411
2626.75	3.57233
2628.11	3.09375
2629.47	3.46245
2630.83	3.45423
2632.19	3.59375
2633.55	3.78105
2634.91	3.77572
2636.26	4.07433
2637.62	4.19959
2638.98	4.44314
2640.34	4.83422
2641.69	4.67311
2643.05	5.01897
2644.41	4.79796
2645.76	4.60181
2647.12	5.10243
2648.48	4.68855
2649.83	4.82762
2651.19	4.59202
2652.54	4.53525
2653.9	4.75538
2655.25	4.41268
2656.6	4.1698
2657.96	4.52222
2659.31	4.45579
2660.67	4.86768
2662.02	4.97416
2663.37	4.87452
2664.73	4.83663
2666.08	4.38493
2667.43	4.24239
2668.78	3.84694
2670.14	4.32813
2671.49	5.01677
2672.84	4.72064
2674.19	4.76014
2675.54	4.85453
2676.89	5.09652
2678.24	4.72012
2679.59	4.48457
2680.94	4.89505
2682.29	5.25952
2683.64	5.37305
2684.99	5.93967
2686.34	6.09964
2687.69	6.64035
2689.04	6.3513
2690.39	6.64025
2691.74	7.96507
2693.08	8.76831
2694.43	9.08738
2695.78	9.73244
2697.13	10.1903
2698.47	10.2959
2699.82	11.1422
2701.17	11.6014
2702.51	11.6439
2703.86	12.8175
2705.21	13.2977
2706.55	14.2438
2707.9	14.6448
2709.24	15.2039
2710.58	15.8065
2711.93	16.1124
2713.27	17.0004
2714.62	18.0394
2715.96	18.1028
2717.3	18.776
2718.65	18.4912
2719.99	19.3816
2721.33	20.0988
2722.68	20.4269
2724.02	20.6343
2725.36	21.4318
2726.71	21.6253
2728.05	21.8694
2729.39	21.6935
2730.73	21.91
2732.07	21.6492
2733.41	21.3008
2734.75	20.2539
2736.09	20.3748
2737.43	20.9049
2738.77	20.4985
2740.11	19.6424
2741.45	19.4616
2742.79	18.7931
2744.13	18.1353
2745.47	17.7312
2746.81	17.4032
2748.14	17.1133
2749.48	16.9573
2750.82	17.0854
2752.16	17.4138
2753.49	17.5174
2754.83	16.8045
2756.17	15.7666
2757.5	15.4295
2758.84	15.3892
2760.18	13.5772
2761.51	12.5469
2762.85	10.8672
2764.18	10.1167
2765.52	9.69768
2766.85	9.78389
2768.19	9.20542
2769.52	8.71666
2770.86	8.2158
2772.19	7.39276
2773.52	7.19571
2774.86	6.69504
2776.19	6.18917
2777.52	6.01106
2778.86	5.67284
2780.19	5.83943
2781.52	4.81476
2782.85	4.3029
2784.19	4.36507
2785.52	4.27171
2786.85	4.35544
2788.18	3.55409
2789.51	3.19263
2790.84	2.97036
2792.17	2.8379
2793.5	1.98779
2794.83	1.41009
2796.16	1.42302
2797.49	0.625641
2798.82	0.132505
2800.15	0.0378219
2801.48	0.640785
2802.81	1.41461
2804.13	0.825538
2805.46	0.708086
2806.79	0.764257
2808.12	0.932813
2809.45	0.152859
2810.77	0.0391718
2812.1	0.953582
2813.43	0.593783
2814.75	1.4824
2816.08	2.09063
2817.41	4.24668
2818.73	5.52023
2820.06	8.10852
2821.38	11.3186
2822.71	15.8718
2824.03	20.7604
2825.36	25.9987
2826.68	30.7062
2828	36.3463
2829.33	42.2444
2830.65	49.0237
2831.98	55.866
2833.3	62.0595
2834.62	67.6641
2835.94	74.4721
2837.27	81.3561
2838.59	88.6213
2839.91	96.2956
2841.23	104.144
2842.55	112.271
2843.87	121.434
2845.2	130.436
2846.52	139.596
2847.84	149.085
2849.16	159.5
2850.48	170.165
2851.8	180.615
2853.12	190.73
2854.44	202.002
2855.76	212.77
2857.08	223.521
2858.39	233.91
2859.71	243.485
2861.03	252.878
2862.35	262.527
2863.67	270.604
2864.98	279.15
2866.3	286.338
2867.62	293.134
2868.94	298.866
2870.25	304.851
2871.57	310.24
2872.88	313.731
2874.2	318.016
2875.52	321.94
2876.83	326.193
2878.15	330.779
2879.46	334.352
2880.78	338.922
2882.09	343.91
2883.41	349.469
2884.72	353.054
2886.03	358.477
2887.35	362.722
2888.66	366.35
2889.97	370.227
2891.29	374.188
2892.6	377.162
2893.91	380.933
2895.22	386.014
2896.54	389.487
2897.85	393.909
2899.16	398.166
2900.47	403.921
2901.78	410.257
2903.09	417.193
2904.4	424.172
2905.71	431.986
2907.02	440.591
2908.33	449.681
2909.64	459.841
2910.95	469.694
2912.26	479.744
2913.57	490.675
2914.88	501.022
2916.19	510.691
2917.5	519.934
2918.81	528.564
2920.11	537.766
2921.42	544.342
2922.73	550.706
2924.04	555.496
2925.34	559.307
2926.65	562.74
2927.96	565.098
2929.26	564.937
2930.57	565.16
2931.87	564.307
2933.18	562.89
2934.49	560.085
2935.79	556.674
2937.1	551.315
2938.4	545.482
2939.7	539.432
2941.01	532.639
2942.31	524.906
2943.62	516.869
2944.92	507.933
2946.22	499.204
2947.53	490.417
2948.83	479.059
2950.13	468.455
2951.43	457.544
2952.74	446.175
2954.04	435.247
2955.34	424.681
2956.64	412.996
2957.94	401.64
2959.24	391.251
2960.54	380.48
2961.84	369.25
2963.15	359.763
2964.45	350.504
2965.75	341.253
2967.05	331.903
2968.34	323.199
2969.64	313.391
2970.94	305.087
2972.24	296.792
2973.54	288.396
2974.84	279.647
2976.14	270.517
2977.43	261.887
2978.73	252.87
2980.03	243.541
2981.33	234.055
2982.62	225.488
2983.92	216.339
2985.22	207.06
2986.51	197.593
2987.81	188.548
2989.11	178.885
2990.4	169.827
2991.7	160.005
2992.99	151.193
2994.29	141.835
2995.58	134.371
2996.88	126.567
2998.17	118.509
2999.46	110.895
3000.76	103.293
3002.05	95.9327
3003.34	89.6432
3004.64	82.9497
3005.93	77.5908
3007.22	71.2878
3008.52	66.0465
3009.81	60.9549
3011.1	56.2877
3012.39	51.2802
3013.68	46.6226
3014.97	43.2131
3016.27	39.7724
3017.56	37.088
3018.85	34.6949
3020.14	31.8705
3021.43	29.7051
3022.72	28.1455
3024.01	26.1011
3025.3	24.7024
3026.59	24.1164
3027.88	23.6515
3029.16	23.1479
3030.45	22.5567
3031.74	22.1285
3033.03	22.2956
3034.32	22.0951
3035.6	22.6099
3036.89	22.498
3038.18	23.4715
3039.47	23.3592
3040.75	24.5784
3042.04	25.5194
3043.33	25.9408
3044.61	27.2605
3045.9	28.62
3047.18	29.9007
3048.47	30.4352
3049.75	31.0103
3051.04	31.4289
3052.32	31.0658
3053.61	31.1267
3054.89	31.5312
3056.18	31.7027
3057.46	32.2855
3058.74	32.3834
3060.03	32.7178
3061.31	32.1728
3062.59	30.9193
3063.88	30.1357
3065.16	29.0551
3066.44	27.8309
3067.72	26.4057
3069	24.5334
3070.29	23.4534
3071.57	21.8872
3072.85	20.9351
3074.13	19.3492
3075.41	18.0266
3076.69	16.5026
3077.97	14.9961
3079.25	13.5651
3080.53	11.679
3081.81	9.5043
3083.09	8.83868
3084.37	7.62874
3085.65	6.88123
3086.93	6.09982
3088.21	4.83431
3089.49	4.53526
3090.76	4.10659
3092.04	3.54352
3093.32	3.17655
3094.6	3.13589
3095.87	3.02974
3097.15	3.57689
3098.43	3.6896
3099.7	4.13778
3100.98	5.10576
3102.26	5.91845
3103.53	6.28059
3104.81	7.81701
3106.08	9.07091
3107.36	10.0319
3108.63	10.9925
3109.91	11.9716
3111.18	12.7543
3112.46	13.6293
3113.73	14.79
3115	16.5345
3116.28	18.4116
3117.55	20.3639
3118.83	21.8154
3120.1	23.1209
3121.37	24.3871
3122.64	25.6342
3123.92	26.3379
3125.19	27.2006
3126.46	28.349
3127.73	29.9879
3129	31.32
3130.27	32.389
3131.55	34.0169
3132.82	35.2761
3134.09	36.4635
3135.36	37.3379
3136.63	38.4782
3137.9	39.1417
3139.17	40.1985
3140.44	41.4515
3141.71	42.4515
3142.98	43.5535
3144.24	44.3636
3145.51	44.7245
3146.78	43.8307
3148.05	43.6505
3149.32	43.9687
