#Acq. time (s)=	45
#Accumulations=	2
#Range (cm-¹)=	200...3150
#Windows=	2
#Auto scanning=	Off
#Autofocus=	Off
#Macrospot=	Off
#AutoExposure=	Off
#Spike filter=	Multiple accum.
#Delay time (s)=	0
#Binning=	1
#Readout mode=	Signal
#DeNoise=	Off
#ICS correction=	On
#Dark correction=	Off
#Inst. Process=	Off
#Detector Gain=	Best Dynamic Range
#Detector ADC=	20 kHz       
#Detector temperature (°C)=	-69.85
#Instrument=	LabRAM HR Evol
#Detector=	Synapse
#Objective=	x100
#Grating=	600 gr/mm
#ND Filter=	100%
#Laser (nm)=	532 
#Hole=	100.021
#Range=	Auto
#Laser Pol.=	No
#Raman. Pol.=	No
#Laser Pol. (°)=	-0.0007625
#Raman Pol. (°)=	89.9995
#Collection=	Microscope
#StageXY=	Marzhauser
#StageZ=	Marzhauser
#X (µm)=	4734.5
#Y (µm)=	-7694.2
#Z (µm)=	584.4
#Full time(mm:ss)=	3:18
#Project=	
#Sample=	
#Site=	
#Title=	Thy_30_10_50_2x_45s_532 nm_x100_100%_600 gr_mm
#Remark=	
#Date=	30.06.2022 14:58
#Acquired=	30.06.2022 14:58:33
#Base:Fit=	10.08.2022 09:58:11
#Base:Sub=	10.08.2022 09:58:44
#Filter:Polynom=	16.08.2022 10:22:53
#AxisType[0]=Intens
#AxisUnit[0]=Cnt
#AxisType[1]=Spectr
#AxisUnit[1]=1/cm
200.533	8.87413
202.348	8.60999
204.162	9.26765
205.976	9.58881
207.792	9.04122
209.605	8.73238
211.418	7.93877
213.23	8.13922
215.044	8.3435
216.856	8.20032
218.667	7.87652
220.478	7.72646
222.289	8.01294
224.102	7.55254
225.912	7.61325
227.721	8.80605
229.531	9.38946
231.34	9.0669
233.148	9.83887
234.956	10.3382
236.766	9.80906
238.574	10.7713
240.381	11.0246
242.188	11.8965
243.994	12.3503
245.801	12.4664
247.606	12.5009
249.412	12.5561
251.217	13.0887
253.024	12.3723
254.828	12.5151
256.632	12.0127
258.436	12.69
260.239	13.7
262.042	14.3753
263.845	14.4345
265.647	15.7285
267.449	15.5183
269.25	16.9866
271.052	17.7152
272.852	15.9852
274.653	16.6966
276.453	16.9
278.253	17.8782
280.052	17.5266
281.852	17.9354
283.65	17.7244
285.449	18.0948
287.247	17.7036
289.044	17.5561
290.842	16.6119
292.639	17.4219
294.436	17.4425
296.232	18.0517
298.028	19.1202
299.821	19.4125
301.617	19.5069
303.412	20.5673
305.206	20.7501
307	20.2293
308.794	20.3843
310.588	21.0823
312.381	21.7031
314.172	21.7989
315.964	23.0254
317.756	24.5572
319.548	23.7852
321.34	23.51
323.131	24.6777
324.921	24.72
326.71	23.8274
328.5	24.5301
330.29	24.4603
332.079	24.9254
333.868	24.6602
335.654	24.0466
337.443	23.6034
339.231	23.6714
341.018	22.9296
342.804	22.1975
344.591	22.2915
346.377	22.1718
348.163	22.896
349.947	23.0973
351.733	22.2715
353.518	21.9059
355.303	21.5043
357.085	21.0881
358.869	21.2226
360.653	20.0125
362.435	19.3194
364.218	19.8695
366.001	18.7255
367.781	17.9395
369.563	16.5632
371.345	16.5134
373.124	16.4527
374.905	15.7907
376.686	15.6104
378.464	15.2116
380.244	14.9087
382.022	14.8931
383.801	14.571
385.58	13.8472
387.357	13.2765
389.135	13.506
390.911	12.5482
392.689	12.5697
394.466	12.8496
396.241	12.7366
398.018	13.3877
399.792	14.333
401.568	14.2916
403.341	14.5186
405.117	14.7449
406.889	14.815
408.664	14.1274
410.436	14.6142
412.21	14.9843
413.981	14.1197
415.755	14.4044
417.525	14.8293
419.298	15.2832
421.068	15.8474
422.84	15.1795
424.609	14.8399
426.38	15.7311
428.149	16.4218
429.919	16.7642
431.688	17.0207
433.455	16.9241
435.225	15.8599
436.992	15.6446
438.76	15.5206
440.527	14.1879
442.293	13.0688
444.06	12.8197
445.826	12.4745
447.593	11.4832
449.357	11.4232
451.122	11.811
452.888	10.5847
454.651	9.5175
456.415	9.63362
458.18	9.80696
459.942	10.9483
461.705	10.1278
463.469	9.3568
465.23	9.78184
466.991	9.89178
468.752	9.98062
470.515	9.90134
472.275	10.3714
474.035	11.1624
475.797	12.6194
477.556	13.9669
479.315	14.0944
481.073	16.008
482.834	17.2533
484.592	18.0531
486.349	18.621
488.106	18.9933
489.863	18.5063
491.622	19.6506
493.378	19.6357
495.134	20.7097
496.889	21.0814
498.645	20.6262
500.401	21.2504
502.156	21.9166
503.91	22.8869
505.664	22.6782
507.417	23.195
509.171	23.5643
510.923	23.828
512.678	25.0859
514.43	25.9679
516.182	25.4714
517.933	24.7818
519.684	23.7319
521.435	22.8577
523.186	22.0507
524.936	22.889
526.686	21.6494
528.435	20.3137
530.184	20.372
531.933	20.7061
533.682	20.3169
535.43	19.8407
537.18	19.0878
538.927	17.8455
540.674	16.7679
542.421	15.7037
544.167	14.9651
545.913	14.7385
547.659	14.4167
549.403	13.1353
551.148	13.4807
552.893	13.5689
554.637	13.8566
556.381	14.1805
558.125	12.9912
559.868	12.5049
561.611	12.1538
563.354	11.6337
565.097	10.6584
566.839	9.64197
568.581	8.68267
570.322	7.64756
572.063	6.69457
573.802	6.06489
575.542	4.92212
577.283	4.41379
579.022	4.93338
580.762	3.96258
582.501	4.26764
584.24	4.04754
585.976	3.92006
587.714	4.08922
589.452	4.66496
591.19	4.85747
592.927	4.79962
594.663	4.96052
596.398	5.1384
598.134	5.17938
599.87	5.34087
601.605	5.33968
603.338	4.57653
605.073	4.4107
606.808	4.8432
608.542	4.92502
610.274	5.35556
612.007	5.99714
613.74	5.25798
615.473	5.33799
617.204	5.43998
618.936	5.79412
620.668	6.09597
622.397	6.13258
624.128	6.36924
625.859	7.1945
627.588	7.29385
629.318	7.48637
631.048	8.72386
632.775	10.2502
634.505	11.0913
636.233	12.4535
637.96	13.3493
639.688	13.9265
641.416	14.3449
643.142	14.5157
644.869	14.0519
646.594	14.7999
648.32	15.7181
650.045	15.7133
651.771	16.6225
653.496	17.868
655.219	19.0953
656.944	20.7092
658.667	20.4298
660.391	21.3701
662.113	20.9604
663.837	21.8224
665.558	22.3978
667.281	22.7946
669.002	22.9301
670.724	22.4569
672.444	22.6708
674.166	23.6578
675.885	25.0912
677.606	24.4795
679.325	24.5121
681.045	25.4618
682.763	25.4648
684.483	25.6005
686.2	25.8563
687.917	26.1232
689.636	25.8091
691.352	26.7505
693.07	27.1751
694.786	27.9353
696.501	27.5258
698.219	28.3548
699.933	27.831
701.65	27.6163
703.364	28.7079
705.078	29.1033
706.793	29.5074
708.506	29.8502
710.219	30.5954
711.934	30.8947
713.646	31.4698
715.358	32.905
717.071	33.8707
718.782	34.4578
720.493	35.0697
722.204	35.5003
723.916	36.0471
725.626	36.5613
727.336	38.016
729.045	39.0471
730.756	39.4376
732.464	40.5376
734.173	41.532
735.881	41.7778
737.59	43.3972
739.297	43.9282
741.004	44.2266
742.711	44.6164
744.417	45.011
746.125	47.2994
747.831	47.8272
749.537	49.8294
751.242	50.2022
752.946	52.0554
754.651	53.018
756.357	55.0871
758.061	56.7661
759.764	57.3485
761.467	57.6333
763.17	57.5855
764.872	59.7202
766.575	60.7296
768.276	61.2243
769.978	62.0153
771.679	63.4234
773.382	65.2581
775.083	66.3492
776.783	67.5131
778.483	67.7364
780.182	69.456
781.882	69.3339
783.581	70.2309
785.279	70.699
786.978	71.5167
788.676	73.0063
790.373	72.7525
792.071	73.5674
793.768	74.264
795.464	75.0165
797.161	75.2636
798.857	75.9612
800.552	76.0796
802.248	76.4383
803.941	76.695
805.636	77.1748
807.33	77.5212
809.024	78.0075
810.718	77.8665
812.412	78.2753
814.105	77.1902
815.798	76.5754
817.49	77.2875
819.183	76.992
820.873	76.9296
822.564	77.2098
824.256	77.3101
825.947	77.8923
827.637	78.0366
829.328	77.6972
831.016	77.8625
832.705	76.3662
834.395	76.2051
836.084	74.3372
837.772	74.6022
839.459	72.5725
841.147	71.1512
842.835	69.203
844.522	68.7386
846.209	68.1746
847.894	67.1576
849.581	67.5294
851.267	66.052
852.953	65.0743
854.637	63.6045
856.322	62.7548
858.007	61.9765
859.689	61.2887
861.374	61.0514
863.058	60.6635
864.739	60.5266
866.423	58.9004
868.106	57.8568
869.787	56.8877
871.469	55.6449
873.151	54.183
874.831	52.8016
876.512	52.8752
878.193	52.8836
879.872	52.722
881.553	51.6439
883.231	51.7841
884.911	51.4121
886.591	51.7815
888.268	51.1991
889.947	50.9457
891.623	51.2452
893.302	50.8152
894.978	50.0768
896.656	49.9427
898.331	49.4178
900.008	50.2021
901.683	50.22
903.359	49.5425
905.033	49.6037
906.709	48.9979
908.383	48.8969
910.058	48.4452
911.731	48.063
913.405	47.7425
915.078	47.8883
916.752	46.2961
918.423	46.194
920.096	45.4536
921.768	45.8448
923.438	45.1618
925.111	45.2137
926.781	45.2219
928.452	44.0879
930.122	42.8783
931.791	42.0551
933.462	41.5779
935.13	40.2725
936.799	39.6674
938.468	39.0021
940.136	38.4762
941.803	38.2062
943.472	37.535
945.139	36.2744
946.805	33.6118
948.473	32.457
950.139	31.2227
951.804	29.6686
953.471	29.1413
955.136	29.0366
956.801	27.9401
958.465	28.3077
960.131	27.4619
961.794	27.2281
963.458	26.9274
965.12	26.789
966.785	27.3852
968.447	25.8093
970.109	25.6011
971.771	25.8128
973.432	25.7213
975.095	25.8832
976.756	24.6702
978.417	24.5896
980.077	24.6666
981.737	24.2469
983.396	24.9409
985.057	24.1425
986.716	24.7173
988.375	24.6541
990.033	24.2967
991.691	24.5384
993.349	25.0408
995.006	25.3872
996.663	24.6516
998.32	24.521
999.976	24.4314
1001.63	25.2281
1003.29	25.4282
1004.95	25.6869
1006.6	25.8977
1008.26	25.6605
1009.91	25.5558
1011.56	25.0008
1013.22	25.0998
1014.87	25.0674
1016.53	24.9536
1018.18	24.6752
1019.83	24.3279
1021.48	23.7648
1023.14	22.8153
1024.79	22.1295
1026.44	21.487
1028.09	20.8063
1029.74	20.5303
1031.39	21.4772
1033.04	21.2703
1034.69	20.9487
1036.34	20.8635
1037.99	20.5338
1039.64	20.0118
1041.29	19.8765
1042.94	19.961
1044.58	20.2918
1046.23	19.5902
1047.88	18.6096
1049.52	18.2443
1051.17	18.2994
1052.82	18.7431
1054.46	18.1979
1056.11	17.0158
1057.75	16.8968
1059.4	15.885
1061.04	16.232
1062.69	16.5749
1064.33	17.0218
1065.98	16.9098
1067.62	16.1643
1069.26	16.3154
1070.9	15.9147
1072.55	15.3876
1074.19	15.862
1075.83	16.4169
1077.47	15.8746
1079.11	15.1548
1080.76	14.4791
1082.4	14.1453
1084.04	14.0916
1085.68	14.1432
1087.32	14.4214
1088.95	13.4894
1090.59	13.2775
1092.23	12.5803
1093.87	12.1247
1095.51	10.9235
1097.15	11.066
1098.78	10.4456
1100.42	10.1676
1102.06	9.36413
1103.69	9.20355
1105.33	9.04832
1106.97	8.82528
1108.6	8.29721
1110.24	7.82987
1111.87	8.49536
1113.51	8.72043
1115.14	7.50911
1116.77	7.14143
1118.41	6.07699
1120.04	6.29435
1121.67	5.86677
1123.31	5.49189
1124.94	5.27117
1126.57	4.1649
1128.2	3.74029
1129.83	4.44958
1131.47	5.20207
1133.1	5.38463
1134.72	5.15011
1136.36	4.64103
1137.98	5.53856
1139.62	5.75738
1141.24	5.47557
1142.87	7.18309
1144.5	7.67341
1146.13	7.46421
1147.76	7.0516
1149.38	6.83082
1151.01	7.25314
1152.64	7.45079
1154.27	6.95837
1155.89	6.86052
1157.52	6.31715
1159.14	5.61845
1160.77	5.17645
1162.39	4.35913
1164.02	4.69331
1165.64	4.79632
1167.27	4.63652
1168.89	4.45394
1170.51	3.69536
1172.14	3.85979
1173.76	3.41149
1175.38	3.91004
1177	3.22524
1178.63	3.68607
1180.25	3.21291
1181.87	2.71196
1183.49	2.09339
1185.11	3.00287
1186.73	2.54866
1188.35	2.3802
1189.97	2.25164
1191.59	3.55925
1193.21	3.38757
1194.83	2.72229
1196.45	2.48633
1198.07	3.64657
1199.68	3.48169
1201.3	5.20655
1202.92	4.8422
1204.53	5.41972
1206.15	6.3435
1207.77	7.03138
1209.38	7.92414
1211	9.13444
1212.62	9.91925
1214.23	11.277
1215.84	12.3989
1217.46	13.6187
1219.07	15.2516
1220.69	16.4974
1222.3	18.3167
1223.91	20.1109
1225.53	20.2881
1227.14	21.2813
1228.75	22.444
1230.36	23.3952
1231.97	24.9341
1233.59	25.8535
1235.2	26.7905
1236.81	27.7641
1238.42	28.952
1240.03	29.726
1241.64	30.0642
1243.25	30.7569
1244.85	31.608
1246.46	32.6437
1248.07	32.9408
1249.68	33.6719
1251.29	34.7329
1252.9	35.5935
1254.5	36.7683
1256.11	36.501
1257.72	36.258
1259.32	37.0711
1260.93	37.2354
1262.54	37.9793
1264.14	38.2394
1265.75	38.884
1267.35	38.4375
1268.96	38.5348
1270.56	38.5848
1272.16	38.84
1273.77	38.7099
1275.37	40.2543
1276.97	41.2203
1278.57	41.7008
1280.18	41.7273
1281.78	42.0697
1283.38	41.3576
1284.98	41.8029
1286.58	41.6201
1288.18	41.7475
1289.78	42.4981
1291.38	43.0432
1292.99	43.5076
1294.58	44.408
1296.18	44.7367
1297.78	44.9647
1299.38	45.0307
1300.98	45.6546
1302.58	45.3071
1304.17	45.4047
1305.77	45.5473
1307.37	45.725
1308.97	45.4153
1310.56	45.7998
1312.16	46.8149
1313.76	47.1838
1315.35	47.225
1316.95	47.7391
1318.54	47.8138
1320.14	47.7519
1321.73	47.1197
1323.32	47.5167
1324.92	47.1126
1326.51	47.0876
1328.1	46.6696
1329.7	46.9821
1331.29	46.0784
1332.88	45.6619
1334.47	44.8674
1336.07	43.4268
1337.66	43.1975
1339.25	42.6274
1340.84	41.4447
1342.43	40.7654
1344.02	38.9659
1345.61	38.2827
1347.2	36.9424
1348.79	35.687
1350.37	34.8903
1351.96	33.5752
1353.55	33.2635
1355.14	32.2802
1356.73	30.6224
1358.31	29.2146
1359.9	27.9452
1361.49	27.1279
1363.07	26.4044
1364.66	25.5315
1366.25	24.9142
1367.83	24.8654
1369.42	24.7386
1371	24.1046
1372.59	23.804
1374.17	24.141
1375.75	23.4404
1377.34	22.6798
1378.92	22.6538
1380.5	21.8787
1382.09	21.2653
1383.67	21.6544
1385.25	21.6176
1386.83	21.6987
1388.42	22.2411
1390	22.4876
1391.58	21.6788
1393.16	20.6616
1394.74	20.4657
1396.32	20.1012
1397.9	19.3986
1399.48	19.3697
1401.06	18.7815
1402.64	18.954
1404.21	19.402
1405.79	19.4918
1407.37	19.3173
1408.95	19.7721
1410.53	20.0546
1412.1	20.8428
1413.68	20.5272
1415.26	20.8855
1416.83	21.5904
1418.41	21.8259
1419.98	22.6265
1421.56	23.8646
1423.13	24.4875
1424.71	25.5457
1426.28	27.283
1427.86	28.6723
1429.43	30.9192
1431	33.0991
1432.58	35.0827
1434.15	37.3821
1435.72	39.5615
1437.29	41.8753
1438.87	43.8229
1440.44	45.7618
1442.01	46.5337
1443.58	47.6194
1445.15	49.0401
1446.72	51.3426
1448.29	53.1952
1449.86	53.6261
1451.43	54.33
1453	53.9964
1454.57	52.915
1456.14	53.1639
1457.71	52.6673
1459.27	51.1089
1460.84	50.5038
1462.41	49.3428
1463.98	47.8989
1465.54	46.5944
1467.11	44.1625
1468.67	41.2324
1470.24	39.1504
1471.81	37.4861
1473.37	36.0126
1474.94	32.9515
1476.5	30.6256
1478.07	28.5684
1479.63	25.8167
1481.19	23.9305
1482.76	21.6758
1484.32	18.9048
1485.88	16.137
1487.45	14.3224
1489.01	12.2028
1490.57	10.2626
1492.13	8.54613
1493.69	7.62007
1495.26	6.76643
1496.82	5.86742
1498.38	5.34356
1499.94	4.5619
1501.5	3.97105
1503.06	3.72464
1504.62	3.98093
1506.17	3.23415
1507.73	3.32623
1509.29	3.50216
1510.85	3.88742
1512.41	4.59236
1513.97	4.27641
1515.52	4.82414
1517.08	4.99608
1518.64	5.51001
1520.19	6.72554
1521.75	8.11085
1523.31	9.23698
1524.86	10.6509
1526.42	10.6683
1527.97	11.4677
1529.52	12.161
1531.08	12.1686
1532.63	13.4865
1534.19	14.649
1535.74	14.0032
1537.29	14.6247
1538.85	15.7497
1540.4	16.1422
1541.95	17.3816
1543.5	17.4133
1545.06	17.0396
1546.61	17.8617
1548.16	18.2606
1549.71	19.1168
1551.26	19.6492
1552.81	19.6581
1554.36	21.0012
1555.91	21.9317
1557.46	22.5277
1559.01	23.2337
1560.56	23.3228
1562.11	23.8316
1563.65	24.2717
1565.2	25.0176
1566.75	25.2532
1568.29	25.9977
1569.84	27.9122
1571.39	29.5496
1572.94	30.1511
1574.48	30.8246
1576.03	31.7915
1577.57	32.3773
1579.12	32.8967
1580.66	33.6202
1582.21	34.3123
1583.75	34.6299
1585.3	35.1505
1586.84	36.6746
1588.38	36.7768
1589.93	36.884
1591.47	37.3696
1593.01	37.6939
1594.55	37.9036
1596.1	38.5591
1597.64	39.6724
1599.18	39.5556
1600.72	40.1746
1602.26	40.7325
1603.8	40.2994
1605.34	40.6269
1606.88	40.3337
1608.42	40.1643
1609.96	40.7353
1611.5	40.9266
1613.04	40.8475
1614.58	41.0112
1616.12	41.0247
1617.65	40.4449
1619.19	40.5848
1620.73	39.5741
1622.27	39.4727
1623.8	40.124
1625.34	40.0682
1626.87	40.93
1628.41	40.7638
1629.95	41.584
1631.48	42.1958
1633.02	42.569
1634.55	42.8364
1636.09	43.6454
1637.62	44.5885
1639.15	45.5908
1640.69	46.4949
1642.22	47.4295
1643.76	48.8708
1645.29	49.9915
1646.82	50.5586
1648.35	50.9091
1649.88	51.18
1651.42	51.6746
1652.95	52.2625
1654.48	52.2824
1656.01	51.8885
1657.54	51.9105
1659.07	50.7062
1660.6	49.6116
1662.13	48.9202
1663.66	47.9802
1665.19	46.6292
1666.72	45.3991
1668.24	44.5001
1669.77	44.1087
1671.3	42.5568
1672.83	41.4412
1674.35	40.0578
1675.88	38.3579
1677.41	37.1931
1678.93	35.5166
1680.46	33.6915
1681.99	32.7152
1683.51	31.0601
1685.04	28.7537
1686.56	27.3271
1688.09	24.8921
1689.61	22.3055
1691.13	19.5455
1692.66	17.6274
1694.18	14.6449
1695.71	13.3341
1697.23	10.6979
1698.75	9.66903
1700.27	8.99715
1701.8	7.57327
1703.32	6.43589
1704.84	4.87693
1706.36	4.44909
1707.88	3.5672
1709.4	2.73937
1710.92	2.70845
1712.44	2.85873
1713.96	2.11792
1715.48	1.37885
1717	0.822514
1718.52	0.860124
1720.04	1.00679
1721.56	0.984892
1723.07	1.57666
1724.59	2.28716
1726.11	2.52827
1727.63	2.31876
1729.14	2.27163
1730.66	2.05594
1732.18	1.84319
1733.69	1.7887
1735.21	1.24197
1736.72	1.81532
1738.24	2.13725
1739.75	2.07229
1741.27	2.79128
1742.78	2.78955
1744.3	3.34094
1745.81	3.54819
1747.32	2.85706
1748.84	3.45889
1750.35	3.43742
1751.86	3.91024
1753.37	3.87228
1754.89	4.07657
1756.4	3.7926
1757.91	3.35945
1759.42	2.74497
1760.93	2.46089
1762.44	2.74056
1763.95	2.54695
1765.46	2.10016
1766.97	2.01424
1768.48	2.00637
1769.99	1.61899
1771.5	2.32957
1773.01	1.82185
1774.52	1.66587
1776.03	1.0967
1777.53	0.31908
1779.04	0.00419265
1780.55	0.332612
1782.06	0.562142
1783.56	0.547255
1785.07	0.72442
1786.57	1.5623
1788.08	1.41386
1789.59	1.27452
1791.09	1.50221
1792.6	2.34687
1794.1	2.60159
1795.6	2.6041
1797.11	2.5266
1798.61	2.71705
1800.12	2.50707
1801.62	2.81776
1803.12	2.49835
1804.63	2.9841
1806.13	2.91905
1807.63	2.49694
1809.13	2.0239
1810.63	2.32459
1812.14	2.58402
1813.64	2.64708
1815.14	2.62264
1816.64	3.13566
1818.14	3.0464
1819.64	2.89253
1821.14	3.12933
1822.64	3.1089
1824.14	2.84636
1825.63	3.34569
1827.13	4.03453
1828.63	4.05784
1830.13	4.71615
1831.63	4.41699
1833.12	4.5324
1834.62	5.08547
1836.12	5.15438
1837.62	5.68249
1839.11	5.70175
1840.61	5.44386
1842.1	5.78781
1843.6	5.54432
1845.09	5.25224
1846.59	5.12142
1848.08	4.85544
1849.58	4.90468
1851.07	5.50991
1852.57	5.73367
1854.06	6.2396
1855.55	6.75764
1857.04	6.45974
1858.54	7.0778
1860.03	7.30697
1861.52	7.27116
1863.01	7.25069
1864.5	7.53378
1866	8.21399
1867.49	8.2936
1868.98	7.93111
1870.47	7.88821
1871.96	7.28691
1873.45	6.98183
1874.94	6.29198
1876.43	5.79072
1877.92	5.2416
1879.41	5.24824
1880.89	5.04484
1882.38	5.04776
1882.48	5.02577
1883.97	4.68535
1885.47	4.42324
1886.96	4.35775
1888.46	4.06636
1889.95	3.99834
1891.44	3.94581
1892.94	3.52331
1894.43	3.76918
1895.92	3.97055
1897.41	4.29652
1898.9	5.37005
1900.4	5.17197
1901.89	4.65324
1903.38	4.81077
1904.87	4.87707
1906.36	5.76051
1907.85	5.9587
1909.34	6.37002
1910.83	7.00827
1912.32	6.97024
1913.81	7.29085
1915.29	7.62507
1916.78	7.71633
1918.27	7.86743
1919.76	8.27072
1921.25	8.6318
1922.74	9.10889
1924.22	9.27644
1925.71	9.01386
1927.2	9.35905
1928.68	8.90458
1930.17	8.94807
1931.65	9.45019
1933.14	8.98468
1934.63	9.15679
1936.11	8.84674
1937.59	8.71986
1939.08	8.46871
1940.56	7.53598
1942.05	6.54442
1943.53	6.09191
1945.01	5.544
1946.5	5.6241
1947.98	5.69449
1949.46	5.2114
1950.94	5.46253
1952.43	5.51982
1953.91	5.41145
1955.39	4.52449
1956.87	4.10965
1958.35	4.13627
1959.83	4.60009
1961.31	4.91059
1962.79	5.11712
1964.27	5.59016
1965.75	5.3283
1967.23	5.63158
1968.71	6.326
1970.19	6.56261
1971.67	7.44159
1973.14	7.47832
1974.62	7.50413
1976.1	7.88141
1977.58	9.15353
1979.05	9.74093
1980.53	10.2025
1982.01	9.96214
1983.48	10.5113
1984.96	10.678
1986.43	11.0303
1987.91	11.3621
1989.38	11.1592
1990.86	10.9625
1992.33	11.1417
1993.81	11.106
1995.28	11.3961
1996.76	11.215
1998.23	11.1528
1999.7	10.6614
2001.18	11.0022
2002.65	11.0899
2004.12	11.3196
2005.59	10.8192
2007.06	10.5018
2008.54	11.106
2010.01	11.1325
2011.48	11.807
2012.95	11.4468
2014.42	10.7842
2015.89	10.9249
2017.36	11.8156
2018.83	11.8589
2020.3	12.1092
2021.77	11.8163
2023.24	11.4834
2024.71	11.8351
2026.17	12.103
2027.64	11.7652
2029.11	11.3786
2030.58	12.2545
2032.04	12.3127
2033.51	12.7767
2034.98	13.2525
2036.45	13.0688
2037.91	13.0523
2039.38	12.7521
2040.84	13.4393
2042.31	13.1217
2043.77	12.9795
2045.24	13.6404
2046.7	13.6017
2048.17	14.0961
2049.63	13.5646
2051.1	13.8732
2052.56	13.5323
2054.02	13.9561
2055.48	14.0826
2056.95	14.1979
2058.41	14.3272
2059.87	14.4332
2061.33	14.6226
2062.8	14.3144
2064.26	14.6159
2065.72	15.4729
2067.18	15.9515
2068.64	16.2487
2070.1	16.4034
2071.56	16.7721
2073.02	17.3145
2074.48	17.378
2075.94	17.0329
2077.4	17.1557
2078.86	17.0354
2080.31	17.5697
2081.77	17.9786
2083.23	17.7249
2084.69	18.1567
2086.14	18.4342
2087.6	18.8444
2089.06	19.7328
2090.52	20.2354
2091.97	20.5164
2093.43	20.7214
2094.88	20.6493
2096.34	21.1536
2097.79	21.2965
2099.25	21.3012
2100.7	20.8237
2102.16	21.6349
2103.61	22.0982
2105.07	22.1259
2106.52	22.8266
2107.97	23.096
2109.43	22.8855
2110.88	23.6833
2112.33	24.3521
2113.78	25.2082
2115.24	25.9645
2116.69	27.1081
2118.14	28.0414
2119.59	28.9332
2121.04	29.1569
2122.49	30.0645
2123.94	31.425
2125.39	32.169
2126.84	32.6837
2128.29	33.4222
2129.74	34.8313
2131.19	35.9508
2132.64	37.2398
2134.09	38.1437
2135.54	38.4722
2136.98	39.6006
2138.43	40.5115
2139.88	40.6899
2141.33	41.1719
2142.77	41.5711
2144.22	41.8567
2145.67	42.5647
2147.11	42.4141
2148.56	43.2633
2150.01	44.7281
2151.45	45.2109
2152.9	46.024
2154.34	47.2273
2155.79	48.5799
2157.23	49.9949
2158.67	50.6276
2160.12	51.4734
2161.56	51.8375
2163	52.2367
2164.45	52.7572
2165.89	52.8873
2167.33	52.9121
2168.78	53.2656
2170.22	53.3836
2171.66	53.6232
2173.1	53.8107
2174.54	54.4972
2175.98	54.5508
2177.42	54.8302
2178.86	55.3625
2180.3	55.7752
2181.74	56.0742
2183.18	55.9145
2184.62	56.1553
2186.06	56.2596
2187.5	56.347
2188.94	55.8446
2190.38	55.7537
2191.82	55.671
2193.25	55.0792
2194.69	54.6609
2196.13	53.8283
2197.57	53.014
2199	52.1625
2200.44	51.7766
2201.88	50.8351
2203.31	49.0654
2204.75	47.99
2206.18	46.205
2207.62	44.5747
2209.05	43.5532
2210.49	41.6768
2211.92	40.2287
2213.36	38.5469
2214.79	36.9295
2216.22	35.9356
2217.66	34.7225
2219.09	33.8504
2220.52	32.744
2221.96	31.7126
2223.39	29.9988
2224.82	29.3087
2226.25	28.9554
2227.68	27.5339
2229.11	26.6903
2230.55	26.0733
2231.98	24.9712
2233.41	24.1011
2234.84	23.5029
2236.27	22.6188
2237.7	21.9818
2239.12	21.2236
2240.55	20.4892
2241.98	20.0861
2243.41	19.6508
2244.84	19.8854
2246.27	19.6759
2247.7	19.3991
2249.12	19.0246
2250.55	19.0011
2251.98	18.9278
2253.41	19.0184
2254.83	18.672
2256.26	19.0158
2257.68	18.5971
2259.11	18.4993
2260.54	18.1864
2261.96	18.447
2263.39	18.0963
2264.81	18.1598
2266.24	17.4713
2267.66	17.6341
2269.08	17.0004
2270.51	16.1389
2271.93	16.0591
2273.35	15.8973
2274.78	15.3736
2276.2	14.7145
2277.62	14.0014
2279.04	13.6643
2280.47	13.0752
2281.89	12.0854
2283.31	12.2321
2284.73	11.8265
2286.15	11.6879
2287.57	11.5999
2288.99	10.841
2290.41	10.6736
2291.83	9.64376
2293.25	9.72765
2294.67	9.34952
2296.09	9.97412
2297.51	10.0723
2298.93	10.4596
2300.35	11.0361
2301.76	11.3594
2303.18	11.4819
2304.6	11.5634
2306.02	11.4883
2307.44	11.5969
2308.85	12.3073
2310.27	12.6391
2311.69	13.2455
2313.1	13.5876
2314.52	13.2663
2315.93	13.5866
2317.35	13.2091
2318.76	13.6902
2320.18	14.0933
2321.59	14.4421
2323.01	15.0576
2324.42	14.627
2325.83	13.9941
2327.25	13.8167
2328.66	13.797
2330.07	13.966
2331.49	13.8651
2332.9	13.6515
2334.31	13.6863
2335.72	13.5514
2337.13	12.5841
2338.55	12.4236
2339.96	11.5785
2341.37	11.0637
2342.78	10.6147
2344.19	10.2892
2345.6	9.68405
2347.01	8.91335
2348.42	8.51968
2349.83	8.06476
2351.24	7.31319
2352.65	6.84386
2354.05	6.51187
2355.46	5.69347
2356.87	4.79998
2358.28	4.25239
2359.69	3.69536
2361.09	3.73332
2362.5	3.18361
2363.91	3.33885
2365.31	3.26639
2366.72	3.48264
2368.13	3.31652
2369.53	3.65369
2370.94	3.25334
2372.34	3.30612
2373.75	3.27281
2375.15	3.31405
2376.56	4.10512
2377.96	4.4539
2379.37	4.73332
2380.77	4.20678
2382.17	3.39937
2383.58	3.07243
2384.98	3.02749
2386.38	3.25152
2387.79	3.52701
2389.19	3.70832
2390.59	3.52026
2391.99	3.29786
2393.39	3.55978
2394.8	3.30955
2396.2	3.85046
2397.6	3.74422
2399	4.22732
2400.4	4.50332
2401.8	4.57681
2403.2	4.583
2404.6	4.95863
2406	4.8497
2407.4	4.84645
2408.79	4.93302
2410.19	4.90393
2411.59	5.692
2412.99	6.26427
2414.39	6.36305
2415.78	6.24262
2417.18	5.65783
2418.58	6.07922
2419.98	6.63113
2421.37	6.6823
2422.77	7.09186
2424.16	7.36824
2425.56	7.01271
2426.96	6.82156
2428.35	7.14488
2429.74	6.80708
2431.14	6.43513
2432.53	6.17294
2433.93	6.53584
2435.32	6.65507
2436.72	6.65987
2438.11	6.95149
2439.5	7.59635
2440.9	7.10794
2442.29	7.58721
2443.68	8.17229
2445.07	8.38915
2446.47	7.86125
2447.86	7.05968
2449.25	6.76832
2450.64	6.28281
2452.03	6.52847
2453.42	6.71622
2454.81	6.06958
2456.2	5.96295
2457.59	6.35935
2458.98	6.17224
2460.37	6.15428
2461.76	6.46367
2463.15	6.21066
2464.54	6.25321
2465.93	6.22707
2467.32	5.9322
2468.7	6.11039
2470.09	5.46233
2471.48	5.43558
2472.87	5.27877
2474.25	5.30301
2475.64	4.62617
2477.03	4.5099
2478.41	4.31211
2479.8	4.57491
2481.18	4.80617
2482.57	3.95948
2483.95	3.47645
2485.34	3.46286
2486.72	2.85103
2488.11	2.9602
2489.49	2.54936
2490.88	2.15398
2492.26	1.7308
2493.65	0.883814
2495.03	0.439415
2496.41	0.470195
2497.79	0.192936
2499.18	-0.00838205
2500.56	0.192014
2501.94	0.0140303
2503.32	0.31573
2504.7	0.254069
2506.09	0.834618
2507.47	1.10524
2508.85	1.3308
2510.23	1.22903
2511.61	1.41685
2512.99	1.33958
2514.37	1.21513
2515.75	1.55051
2517.13	2.16244
2518.51	2.81528
2519.89	2.8228
2521.26	2.36687
2522.64	2.00515
2524.02	2.32728
2525.4	2.89479
2526.78	3.06024
2528.15	2.92276
2529.53	3.02479
2530.91	2.96466
2532.28	3.20407
2533.66	3.90675
2535.04	3.98938
2536.41	4.52509
2537.79	4.61275
2539.16	4.48808
2540.54	4.66639
2541.91	4.61485
2543.29	4.56657
2544.66	4.66116
2546.04	5.06936
2547.41	5.20641
2548.78	5.24781
2550.16	5.56999
2551.53	5.12222
2552.9	5.03275
2554.27	4.81429
2555.65	4.81873
2557.02	4.68731
2558.39	4.46566
2559.76	4.39997
2561.13	4.04923
2562.51	3.87085
2563.88	3.72497
2565.25	3.48102
2566.62	3.0076
2567.99	2.84251
2569.36	2.68335
2570.73	2.3678
2572.1	2.8119
2573.47	3.00446
2574.84	2.61837
2576.2	2.32119
2577.57	2.24513
2578.94	2.0205
2580.31	1.60921
2581.68	1.82483
2583.05	1.72527
2584.41	1.11651
2585.78	0.97982
2587.15	0.460915
2588.51	0.453478
2589.88	-0.0979814
2591.24	0.0562052
2592.61	0.151564
2593.98	0.173534
2595.34	0.545442
2596.71	0.828588
2598.07	0.843879
2599.44	1.08968
2600.8	1.65122
2602.16	1.31227
2603.53	1.1972
2604.89	1.28996
2606.26	1.00123
2607.62	1.27512
2608.98	1.25514
2610.34	1.36289
2611.71	1.52794
2613.07	1.88892
2614.43	1.76112
2615.79	1.87674
2617.15	2.07443
2618.52	2.05963
2619.88	1.22493
2621.24	1.19183
2622.6	1.34495
2623.96	1.28298
2625.32	1.31428
2626.68	0.838261
2628.04	0.863243
2629.4	0.811452
2630.75	0.669664
2632.11	0.824998
2633.47	1.04219
2634.83	0.400952
2636.19	0.609116
2637.55	0.5699
2638.9	1.08816
2640.26	0.760527
2641.62	0.828722
2642.98	0.70366
2644.33	1.152
2645.69	0.910732
2647.04	0.732671
2648.4	0.85758
2649.76	1.06987
2651.11	1.11229
2652.47	1.11421
2653.82	1.60961
2655.18	1.667
2656.53	1.88077
2657.88	1.48115
2659.24	1.67014
2660.59	2.39249
2661.95	3.17843
2663.3	3.54802
2664.65	3.37147
2666	3.76799
2667.36	4.08258
2668.71	4.09962
2670.06	3.94844
2671.41	4.68132
2672.76	4.83577
2674.12	5.3377
2675.47	5.84469
2676.82	5.53859
2678.17	5.74079
2679.52	5.60622
2680.87	5.50557
2682.22	5.15453
2683.57	5.11665
2684.92	5.28315
2686.27	5.26015
2687.62	5.54142
2688.97	6.02873
2690.31	5.89664
2691.66	5.34323
2693.01	4.87567
2694.36	3.95764
2695.71	4.02793
2697.05	3.55796
2698.4	3.08469
2699.75	2.55161
2701.09	1.79401
2702.44	1.73782
2703.78	2.13967
2705.13	1.91356
2706.48	2.25103
2707.82	1.23383
2709.17	1.44431
2710.51	1.30769
2711.86	0.754221
2713.2	0.19982
2714.54	0.353301
2715.89	0.522062
2717.23	0.454135
2718.57	0.274666
2719.92	-0.0912002
2721.26	-0.0874176
2722.6	0.401057
2723.95	0.294198
2725.29	0.803028
2726.63	1.52226
2727.97	1.63163
2729.31	1.9633
2730.65	2.35597
2732	2.55908
2733.34	2.87777
2734.68	2.80406
2736.02	3.49269
2737.36	4.22118
2738.7	4.9372
2740.04	5.30709
2741.38	5.6184
2742.72	5.7655
2744.05	5.77408
2745.39	5.87154
2746.73	6.07239
2748.07	6.62147
2749.41	6.63258
2750.75	6.85367
2752.08	7.76802
2753.42	8.04873
2754.76	8.38772
2756.09	8.23285
2757.43	7.52052
2758.77	7.22669
2760.1	7.29262
2761.44	7.26751
2762.78	7.58502
2764.11	6.91612
2765.44	6.81824
2766.78	6.58198
2768.11	6.81835
2769.45	7.04097
2770.78	6.50177
2772.12	6.02688
2773.45	5.71438
2774.78	5.04349
2776.12	4.92598
2777.45	4.60767
2778.78	4.26165
2780.12	4.25434
2781.45	4.57838
2782.78	3.98488
2784.11	3.95391
2785.44	3.57487
2786.78	3.32745
2788.11	2.8859
2789.44	2.77008
2790.77	2.72635
2792.1	2.55519
2793.43	2.61616
2794.76	2.27608
2796.09	2.76
2797.42	2.79965
2798.75	2.65558
2800.08	2.89447
2801.4	3.19121
2802.73	3.32236
2804.06	3.17329
2805.39	3.27671
2806.72	3.33698
2808.05	2.99562
2809.37	3.20958
2810.7	2.97247
2812.03	2.63164
2813.35	2.73133
2814.68	2.74909
2816.01	3.36408
2817.33	4.06701
2818.66	5.46291
2819.98	6.08557
2821.31	6.40798
2822.63	6.88114
2823.96	7.92004
2825.28	9.24857
2826.61	10.4267
2827.93	11.6282
2829.25	13.0213
2830.58	13.9454
2831.9	15.7775
2833.23	17.3744
2834.55	19.1436
2835.87	20.7621
2837.19	22.787
2838.52	24.1043
2839.84	25.9169
2841.16	27.7289
2842.48	30.3068
2843.8	32.4459
2845.12	34.9583
2846.44	37.0514
2847.77	39.8738
2849.08	42.6746
2850.4	45.8033
2851.73	48.4176
2853.05	51.5462
2854.36	54.8518
2855.68	57.9081
2857	61.7351
2858.32	64.7762
2859.64	67.8235
2860.96	70.2878
2862.28	73.641
2863.59	76.2918
2864.91	78.8769
2866.23	81.5544
2867.55	83.946
2868.86	85.6461
2870.18	87.5183
2871.5	89.3141
2872.81	90.9617
2874.13	92.353
2875.44	93.5022
2876.76	94.4281
2878.07	95.8622
2879.39	97.184
2880.7	98.5596
2882.02	99.9029
2883.33	101.34
2884.65	103.085
2885.96	103.987
2887.28	104.763
2888.59	106.552
2889.9	107.65
2891.21	108.833
2892.53	110.374
2893.84	112.226
2895.15	113.102
2896.46	114.386
2897.78	115.736
2899.09	116.488
2900.4	118.631
2901.71	120.83
2903.02	122.918
2904.33	124.687
2905.64	127.673
2906.95	130.672
2908.26	134.365
2909.57	137.451
2910.88	141.08
2912.19	144.666
2913.5	148.983
2914.81	152.394
2916.12	156.135
2917.43	159.494
2918.73	163.042
2920.04	165.572
2921.35	168.453
2922.66	171.994
2923.96	173.766
2925.27	175.872
2926.58	177.895
2927.88	179.564
2929.19	179.631
2930.5	180.775
2931.8	181.699
2933.11	181.195
2934.41	180.478
2935.72	179.9
2937.02	178.654
2938.33	177.767
2939.63	176.942
2940.94	175.031
2942.24	172.953
2943.54	171.363
2944.85	169.129
2946.15	166.959
2947.45	164.24
2948.76	161.461
2950.06	158.545
2951.36	155.226
2952.66	152.077
2953.97	149.272
2955.27	145.823
2956.57	142.567
2957.87	139.168
2959.17	135.097
2960.47	131.166
2961.77	128.399
2963.07	125.357
2964.37	121.954
2965.67	119.794
2966.97	116.482
2968.27	113.43
2969.57	110.94
2970.87	108.494
2972.17	106.023
2973.47	103.547
2974.77	100.501
2976.07	98.1454
2977.36	95.4728
2978.66	92.5472
2979.96	89.6162
2981.26	86.9457
2982.55	83.7505
2983.85	81.0169
2985.15	77.9858
2986.44	75.3683
2987.74	72.5704
2989.03	69.3285
2990.33	66.8904
2991.63	63.8841
2992.92	61.1676
2994.21	58.5975
2995.51	56.511
2996.8	53.9194
2998.1	51.0762
2999.39	48.6696
3000.69	46.0278
3001.98	44.1128
3003.27	42.6766
3004.57	40.7971
3005.86	38.2723
3007.15	36.3832
3008.44	34.7234
3009.74	32.6987
3011.03	31.1727
3012.32	29.3028
3013.61	28.1521
3014.9	27.3954
3016.19	25.8819
3017.48	24.9909
3018.78	24.2019
3020.07	23.0832
3021.36	21.9328
3022.65	21.8777
3023.94	20.8623
3025.23	20.213
3026.51	19.5891
3027.8	18.7549
3029.09	18.5975
3030.38	18.7699
3031.67	18.5566
3032.96	18.8033
3034.24	19.2549
3035.53	18.9132
3036.82	19.0519
3038.11	19.1023
3039.39	19.0639
3040.68	19.3255
3041.97	19.0674
3043.25	18.8049
3044.54	19.3212
3045.83	19.09
3047.11	19.2901
3048.4	19.3883
3049.68	19.5401
3050.97	19.8095
3052.25	20.1639
3053.54	19.9839
3054.82	20.0206
3056.11	19.844
3057.39	19.61
3058.67	19.1123
3059.96	19.2002
3061.24	19.0357
3062.52	18.6921
3063.81	18.0132
3065.09	17.9053
3066.37	17.85
3067.65	17.2241
3068.94	16.7721
3070.22	16.1545
3071.5	15.3948
3072.78	14.9799
3074.06	14.4911
3075.34	14.1571
3076.62	13.5768
3077.9	12.8562
3079.18	12.0526
3080.46	11.2434
3081.74	10.6825
3083.02	9.8429
3084.3	9.42669
3085.58	8.72823
3086.86	8.26483
3088.14	7.30924
3089.42	6.62431
3090.69	6.29283
3091.97	6.09414
3093.25	5.76337
3094.53	5.09343
3095.8	4.48966
3097.08	4.24829
3098.36	3.94169
3099.63	3.0617
3100.91	2.69307
3102.19	2.3612
3103.46	1.83512
3104.74	1.8513
3106.01	2.029
3107.29	1.68712
3108.56	1.61774
3109.84	0.818432
3111.11	1.20316
3112.39	1.31075
3113.66	1.53522
3114.94	1.08495
3116.21	0.736629
3117.48	0.705898
3118.76	0.743029
3120.03	0.685398
3121.3	0.505659
3122.57	0.690905
3123.85	0.951043
3125.12	0.443219
3126.39	0.451634
3127.66	0.0472126
3128.93	0.0663732
3130.21	-0.105966
3131.48	-0.223079
3132.75	-0.154421
3134.02	0.010368
3135.29	0.0717143
3136.56	0.195772
3137.83	-0.0840036
3139.1	-0.0873823
3140.37	-0.34521
3141.64	-0.576452
3142.91	-0.636751
3144.17	-0.823352
3145.44	-1.03051
3146.71	-1.52985
3147.98	-2.67494
3149.25	-2.49209
