#Acq. time (s)=	45
#Accumulations=	2
#Range (cm-¹)=	200...3150
#Windows=	2
#Auto scanning=	Off
#Autofocus=	Off
#Macrospot=	Off
#AutoExposure=	Off
#Spike filter=	Multiple accum.
#Delay time (s)=	0
#Binning=	1
#Readout mode=	Signal
#DeNoise=	Off
#ICS correction=	On
#Dark correction=	Off
#Inst. Process=	Off
#Detector Gain=	Best Dynamic Range
#Detector ADC=	20 kHz       
#Detector temperature (°C)=	-69.85
#Instrument=	LabRAM HR Evol
#Detector=	Synapse
#Objective=	x100
#Grating=	600 gr/mm
#ND Filter=	100%
#Laser (nm)=	532 
#Hole=	100.021
#Range=	Auto
#Laser Pol.=	No
#Raman. Pol.=	No
#Laser Pol. (°)=	-0.0007625
#Raman Pol. (°)=	89.9995
#Collection=	Microscope
#StageXY=	Marzhauser
#StageZ=	Marzhauser
#X (µm)=	-5126.9
#Y (µm)=	1517.1
#Z (µm)=	63.4
#Full time(mm:ss)=	3:18
#Project=	
#Sample=	
#Site=	
#Title=	Thy_50_12_40_2x_45s_532 nm_x100_100%_600 gr_mm
#Remark=	
#Date=	07.07.2022 12:12
#Acquired=	07.07.2022 12:12:08
#Base:Fit=	10.08.2022 10:04:30
#Base:Sub=	10.08.2022 10:04:45
#Filter:Polynom=	16.08.2022 10:20:25
#AxisType[0]=Intens
#AxisUnit[0]=Cnt
#AxisType[1]=Spectr
#AxisUnit[1]=1/cm
200.43	27.9642
202.246	30.5829
204.061	32.335
205.875	31.5708
207.688	30.1356
209.501	28.4861
211.316	26.7594
213.129	25.3494
214.941	23.7064
216.753	23.2479
218.566	22.3979
220.377	20.7152
222.188	19.4379
223.999	17.9428
225.809	17.1688
227.618	14.8525
229.43	13.2442
231.239	12.5118
233.047	13.3297
234.855	12.6565
236.663	12.9125
238.471	11.6785
240.278	11.2674
242.087	11.4227
243.894	12.021
245.7	12.3983
247.506	12.3737
249.311	11.7311
251.116	11.4669
252.921	12.0339
254.725	12.7076
256.529	13.0111
258.333	13.9525
260.136	16.4199
261.939	16.8309
263.744	17.5604
265.546	18.1911
267.348	19.4198
269.15	19.7115
270.951	20.4377
272.752	20.6136
274.552	20.4773
276.353	20.5638
278.152	20.7797
279.952	21.073
281.751	20.7125
283.55	21.1526
285.348	21.7613
287.146	22.047
288.942	22.1242
290.739	22.0228
292.536	21.983
294.333	23.6473
296.129	25.2298
297.925	25.6968
299.721	26.1857
301.516	26.95
303.311	27.2292
305.106	27.3325
306.9	27.2062
308.694	26.3166
310.486	25.6931
312.279	25.2483
314.072	24.4346
315.864	24.9851
317.656	24.0772
319.448	24.7956
321.24	25.9699
323.029	24.9579
324.819	23.6942
326.61	22.7812
328.4	20.9175
330.19	20.8214
331.977	20.4569
333.766	20.8993
335.555	20.4878
337.343	20.8434
339.131	20.3555
340.917	19.9566
342.704	18.3637
344.491	17.2136
346.277	16.9206
348.062	15.7936
349.848	15.0891
351.633	13.3162
353.416	12.7765
355.201	11.1555
356.986	10.0048
358.77	8.30478
360.552	8.11706
362.335	6.84158
364.118	6.91534
365.899	6.76447
367.682	6.79307
369.464	5.98665
371.243	5.1376
373.025	5.88721
374.806	5.88946
376.585	5.83216
378.365	6.35183
380.143	6.4281
381.923	7.43135
383.702	7.47383
385.479	6.32945
387.258	5.69721
389.034	6.97495
390.812	7.5502
392.59	7.35631
394.365	7.83745
396.142	7.93044
397.916	8.77671
399.693	8.59658
401.467	8.54691
403.242	9.08726
405.015	9.56189
406.79	8.3828
408.565	8.28336
410.337	7.99226
412.111	6.92381
413.882	7.009
415.656	6.70123
417.426	7.91653
419.197	9.64034
420.969	10.1742
422.739	12.0384
424.51	12.1973
426.279	12.8112
428.05	13.9341
429.819	14.6053
431.589	15.066
433.356	16.3266
435.124	17.2538
436.893	17.5318
438.66	18.0961
440.428	18.6916
442.194	18.4943
443.96	19.544
445.727	20.8994
447.492	21.3788
449.259	22.3442
451.023	22.8069
452.787	23.2437
454.553	23.7222
456.316	24.7676
458.079	25.597
459.844	26.5302
461.606	27.5255
463.368	27.56
465.132	28.1845
466.893	28.9725
468.654	29.4697
470.415	29.973
472.177	30.8249
473.937	32.3423
475.696	33.9439
477.456	36.498
479.217	36.6547
480.975	37.2505
482.733	37.5974
484.491	37.3122
486.251	36.5276
488.008	37.4057
489.765	37.706
491.522	37.9228
493.278	38.0556
495.036	38.2237
496.791	38.4246
498.546	37.9759
500.301	38.3565
502.056	38.7656
503.81	39.6414
505.566	39.8154
507.319	38.6629
509.073	36.9914
510.825	36.6344
512.578	36.0508
514.33	36.6062
516.082	37.3307
517.833	36.9208
519.587	36.6462
521.337	36.3313
523.088	36.4356
524.838	35.44
526.588	34.6969
528.337	34.812
530.087	34.2197
531.835	34.3556
533.584	32.5725
535.332	31.3842
537.08	31.2522
538.827	30.3817
540.574	28.7109
542.321	28.6867
544.068	28.5793
545.814	28.2301
547.56	26.3104
549.305	26.0748
551.05	25.2439
552.795	24.7604
554.54	23.3329
556.284	23.7021
558.027	24.1495
559.771	25.9435
561.514	26.1234
563.257	25.9326
564.999	25.4281
566.742	24.4598
568.481	24.1293
570.223	24.1652
571.964	23.9075
573.705	23.2616
575.445	24.9804
577.185	24.0039
578.925	23.8727
580.665	23.4113
582.402	22.6007
584.141	20.776
585.879	19.3058
587.617	19.6066
589.355	17.7857
591.092	16.064
592.828	15.0613
594.564	13.4223
596.301	12.4889
598.037	12.6178
599.773	13.2412
601.506	13.6953
603.242	13.0856
604.976	13.3707
606.711	13.4979
608.443	12.8329
610.177	12.7565
611.91	13.0461
613.644	13.5395
615.374	14.7551
617.107	14.1626
618.839	13.9559
620.569	12.9957
622.3	12.6081
624.032	11.6119
625.761	11.3731
627.491	10.4735
629.221	11.4452
630.949	11.7067
632.679	11.9561
634.408	12.3828
636.135	13.6107
637.863	14.1468
639.592	15.861
641.318	17.4133
643.045	18.9171
644.77	19.0867
646.497	20.1007
648.224	20.0387
649.948	21.7711
651.674	22.4913
653.398	23.4703
655.123	25.0554
656.846	25.7503
658.57	26.0232
660.293	26.1493
662.017	27.2905
663.738	26.6057
665.462	26.0873
667.185	25.4317
668.905	25.5095
670.628	25.8995
672.348	27.735
674.067	29.6468
675.789	29.9656
677.508	31.3598
679.228	33.1116
680.947	33.4082
682.667	35.4265
684.385	36.6031
686.104	38.6657
687.821	39.5492
689.538	39.8093
691.256	41.8917
692.972	42.0595
694.69	43.1008
696.406	45.5534
698.121	47.5136
699.837	48.2457
701.552	49.0039
703.268	48.2719
704.982	49.3294
706.695	49.1637
708.41	49.9798
710.123	51.168
711.836	52.4302
713.55	52.2151
715.262	53.5048
716.973	54.0586
718.685	55.2959
720.398	57.6171
722.108	57.5218
723.818	58.4971
725.53	59.5643
727.24	60.399
728.949	60.9945
730.658	61.2504
732.369	61.7746
734.077	61.9044
735.785	61.5565
737.493	61.354
739.2	61.137
740.909	62.0811
742.616	60.943
744.322	60.3952
746.028	60.3675
747.734	60.2353
749.441	60.3199
751.146	61.7905
752.851	63.7685
754.555	65.3126
756.26	66.5582
757.963	67.8998
759.667	67.9681
761.372	69.0834
763.075	71.3018
764.777	71.8235
766.479	71.7738
768.181	72.4088
769.883	72.1816
771.584	73.1964
773.285	74.2263
774.986	75.7388
776.686	77.398
778.386	78.9434
780.085	78.1157
781.785	76.6437
783.484	75.1644
785.182	76.9277
786.881	79.2418
788.579	81.3691
790.276	83.9894
791.974	85.7417
793.671	87.0444
795.367	87.4517
797.064	89.0711
798.76	90.0768
800.456	91.0476
802.151	91.9809
803.846	93.5702
805.541	94.8516
807.236	94.0098
808.93	95.2993
810.624	96.3072
812.317	96.1178
814.01	95.5181
815.703	93.6734
817.394	93.5228
819.086	93.0293
820.778	92.1664
822.47	91.965
824.161	90.4801
825.852	90.7521
827.543	89.158
829.231	88.0079
830.921	87.9375
832.611	87.1225
834.3	86.5045
835.989	86.1292
837.676	84.8372
839.364	83.0731
841.053	82.9338
842.74	81.9687
844.426	79.744
846.113	78.0768
847.8	75.9604
849.486	73.2027
851.171	71.6566
852.857	70.4836
854.542	69.3333
856.227	68.1056
857.911	66.7056
859.595	64.4416
861.279	63.42
862.961	60.9386
864.645	58.3043
866.329	59.0266
868.01	61.7984
869.692	64.435
871.375	64.675
873.055	63.6631
874.737	62.5208
876.418	60.4579
878.097	58.6066
879.778	57.4981
881.457	57.33
883.137	55.2162
884.817	54.7996
886.495	54.0776
888.174	52.7846
889.851	52.4106
891.53	51.7792
893.206	51.1771
894.884	50.6546
896.562	49.0608
898.237	48.3768
899.914	47.0185
901.589	46.6088
903.265	46.0638
904.94	44.9755
906.615	44.2941
908.289	43.5496
909.964	43.4636
911.637	41.3872
913.31	41.0416
914.984	40.0874
916.656	39.154
918.33	37.1612
920.001	36.4866
921.674	35.9252
923.345	35.0363
925.015	34.9129
926.687	33.9113
928.357	32.3895
930.028	31.4941
931.698	31.0618
933.366	29.8201
935.037	28.3357
936.705	27.3044
938.373	26.0745
940.043	25.082
941.71	24.2513
943.379	23.4684
945.046	23.2919
946.712	22.1758
948.378	22.2719
950.046	23.0162
951.711	25.0492
953.376	26.0596
955.043	26.0758
956.708	25.1401
958.372	24.8885
960.036	24.8455
961.701	25.8579
963.364	26.6963
965.027	27.4806
966.69	28.5047
968.354	29.9061
970.016	29.6435
971.678	30.3424
973.339	31.9212
975	33.5687
976.661	34.4376
978.324	35.323
979.984	35.7369
981.644	37.529
983.303	38.7228
984.962	39.9619
986.621	41.5696
988.282	42.3864
989.94	42.5772
991.598	43.6606
993.256	43.2535
994.913	43.0713
996.57	44.2117
998.227	43.413
999.884	43.9389
1001.54	43.2437
1003.2	44.0962
1004.85	44.0593
1006.51	43.6356
1008.16	44.3602
1009.82	44.5054
1011.47	43.7698
1013.12	43.6294
1014.78	43.3569
1016.43	43.5717
1018.08	44.3855
1019.74	44.376
1021.39	44.8176
1023.04	45.8157
1024.69	46.8361
1026.34	47.6778
1028	49.606
1029.65	49.7471
1031.3	50.987
1032.95	52.9295
1034.6	53.1029
1036.25	51.7724
1037.9	51.0744
1039.55	49.7467
1041.19	50.1328
1042.84	50.4362
1044.49	50.2525
1046.14	50.0066
1047.79	49.7009
1049.43	49.5
1051.08	48.3278
1052.73	47.7657
1054.37	47.5736
1056.02	46.9375
1057.66	47.1672
1059.31	46.4025
1060.95	45.1524
1062.6	44.2175
1064.24	43.7261
1065.88	41.9566
1067.53	40.1136
1069.17	38.8711
1070.81	36.2236
1072.46	34.1651
1074.1	32.7275
1075.74	30.6121
1077.38	29.7043
1079.02	28.0506
1080.66	25.9703
1082.3	25.6285
1083.94	24.1544
1085.58	22.779
1087.22	22.4046
1088.86	22.5861
1090.5	23.639
1092.14	23.5428
1093.78	23.76
1095.42	24.8129
1097.05	25.701
1098.69	27.3088
1100.33	27.9984
1101.97	27.7
1103.6	29.3602
1105.24	30.9707
1106.87	32.1876
1108.51	32.6235
1110.15	31.9882
1111.78	31.0417
1113.41	32.4873
1115.05	32.2186
1116.68	31.7837
1118.31	31.6454
1119.95	32.2099
1121.58	31.4922
1123.21	32.0941
1124.85	31.27
1126.48	31.4842
1128.11	32.2929
1129.74	31.757
1131.37	30.8179
1133	30.105
1134.63	29.28
1136.26	27.0593
1137.89	25.8659
1139.52	24.1968
1141.15	22.2657
1142.78	20.6635
1144.41	18.7389
1146.04	17.4459
1147.66	15.4489
1149.29	14.4082
1150.92	12.3685
1152.55	9.78895
1154.17	8.21206
1155.8	7.64519
1157.43	5.59815
1159.05	4.64109
1160.68	3.35186
1162.3	3.28297
1163.93	1.60897
1165.55	1.24241
1167.17	1.6772
1168.8	3.19441
1170.42	3.94032
1172.05	4.22204
1173.67	4.86871
1175.29	5.82145
1176.91	6.20149
1178.54	5.70274
1180.16	6.46376
1181.78	6.32997
1183.4	6.67287
1185.02	8.33951
1186.64	8.86819
1188.26	8.7851
1189.88	6.8074
1191.5	5.98066
1193.12	7.58507
1194.74	7.96403
1196.36	9.14267
1197.97	10.2433
1199.59	10.285
1201.21	10.2199
1202.83	11.4293
1204.44	12.4385
1206.06	14.4538
1207.68	16.8473
1209.29	17.3313
1210.91	18.1572
1212.52	18.7552
1214.14	20.3422
1215.75	22.0865
1217.37	23.3931
1218.98	25.5371
1220.6	27.5968
1222.21	31.1229
1223.82	33.8971
1225.44	35.9174
1227.05	38.2223
1228.66	40.1966
1230.27	42.1081
1231.88	43.7036
1233.49	46.0519
1235.1	47.5596
1236.72	51.1731
1238.33	53.4841
1239.94	57.4943
1241.55	60.4872
1243.16	63.0923
1244.76	64.8749
1246.37	68.311
1247.98	70.0271
1249.59	71.7791
1251.2	73.4612
1252.8	74.4866
1254.41	76.9417
1256.02	78.7233
1257.63	79.2268
1259.23	80.9805
1260.84	83.6155
1262.44	85.3872
1264.05	87.8724
1265.66	89.9304
1267.26	91.2166
1268.87	93.0023
1270.47	95.6392
1272.07	98.1043
1273.68	99.0888
1275.28	99.2408
1276.88	101.791
1278.48	102.08
1280.09	102.357
1281.69	105.086
1283.29	107.376
1284.89	108.331
1286.49	109.156
1288.09	109.013
1289.69	109.161
1291.3	110.337
1292.9	110.459
1294.49	111.562
1296.09	112.253
1297.69	111.559
1299.29	111.875
1300.89	113.101
1302.49	113.132
1304.09	113.239
1305.68	112.736
1307.28	111.943
1308.88	111.369
1310.47	110.885
1312.07	110.532
1313.66	109.774
1315.26	108.986
1316.86	109.867
1318.45	109.526
1320.05	108.162
1321.64	107.836
1323.23	106.763
1324.83	106.258
1326.42	105.456
1328.01	105.303
1329.61	104.031
1331.2	102.884
1332.79	100.939
1334.38	99.8066
1335.98	98.9516
1337.57	97.7101
1339.16	98.3734
1340.75	97.855
1342.34	96.9069
1343.93	95.9413
1345.52	95.0226
1347.11	93.8128
1348.7	92.6458
1350.29	92.0037
1351.87	89.4296
1353.46	88.0908
1355.05	86.7375
1356.64	86.179
1358.23	84.3609
1359.81	82.8522
1361.4	81.5685
1362.99	78.4629
1364.57	75.8396
1366.16	74.8882
1367.74	73.7326
1369.33	73.2693
1370.91	72.2392
1372.5	72.128
1374.08	71.3551
1375.67	71.3844
1377.25	70.4733
1378.83	70.7459
1380.42	70.2001
1382	69.8663
1383.58	69.9059
1385.16	68.9316
1386.75	68.3157
1388.33	67.6123
1389.91	67.9271
1391.49	68.1186
1393.07	67.4873
1394.65	67.2183
1396.23	69.1441
1397.81	68.3784
1399.39	67.6812
1400.97	68.7519
1402.55	68.9869
1404.13	69.0394
1405.7	68.7309
1407.28	69.5334
1408.86	70.248
1410.44	71.8159
1412.01	72.7271
1413.59	74.3954
1415.17	76.7745
1416.74	78.4508
1418.32	79.9335
1419.89	82.3226
1421.47	85.5374
1423.05	88.4363
1424.62	92.2451
1426.19	96.156
1427.77	100.888
1429.34	105.518
1430.92	108.06
1432.49	111.028
1434.06	113.469
1435.63	117.673
1437.2	120.633
1438.78	123.267
1440.35	125.117
1441.92	127.012
1443.49	128.88
1445.06	131.404
1446.63	132.087
1448.2	132.593
1449.77	133.323
1451.34	133.163
1452.91	131.859
1454.48	131.391
1456.05	129.676
1457.62	128.195
1459.18	124.769
1460.75	121.799
1462.32	117.975
1463.89	114.674
1465.45	110.942
1467.02	106.93
1468.59	102.112
1470.15	96.3812
1471.72	90.8268
1473.28	85.7942
1474.85	80.2867
1476.41	72.5333
1477.98	67.5355
1479.54	63.2176
1481.11	58.097
1482.67	52.8147
1484.23	47.7293
1485.8	43.9246
1487.36	39.7538
1488.92	35.0752
1490.48	30.9339
1492.05	27.9964
1493.61	25.8585
1495.17	23.7084
1496.73	22.0627
1498.29	21.9021
1499.85	21.6093
1501.41	20.6657
1502.97	21.9145
1504.53	22.2331
1506.09	22.2781
1507.65	22.0866
1509.2	22.5912
1510.76	23.57
1512.32	24.1793
1513.88	24.7993
1515.44	25.1055
1516.99	25.9344
1518.55	27.1972
1520.1	28.2184
1521.66	30.0943
1523.22	33.1451
1524.77	35.3558
1526.33	37.72
1527.88	39.7836
1529.44	41.0267
1530.99	42.7443
1532.55	45.704
1534.1	47.6058
1535.65	49.3556
1537.21	50.6179
1538.76	53.9802
1540.31	57.4968
1541.86	60.2867
1543.42	62.8378
1544.97	65.742
1546.52	68.9862
1548.07	71.5442
1549.62	75.0695
1551.17	77.7797
1552.72	81.0413
1554.27	84.7016
1555.82	88.0476
1557.37	90.6208
1558.92	92.8484
1560.47	95.8751
1562.02	98.5235
1563.57	101.732
1565.11	103.83
1566.66	106.358
1568.21	108.443
1569.75	110.459
1571.3	113.409
1572.85	115.719
1574.39	118.073
1575.94	120.437
1577.49	121.04
1579.03	120.618
1580.58	122.029
1582.12	122.17
1583.67	122.138
1585.21	122.672
1586.75	123.002
1588.3	122.209
1589.84	121.77
1591.38	121.077
1592.93	121.24
1594.47	120.257
1596.01	119.178
1597.55	118.047
1599.09	117.987
1600.63	117.166
1602.18	114.686
1603.72	113.17
1605.26	111.907
1606.8	110.223
1608.34	108.908
1609.87	107.904
1611.41	106.688
1612.95	105.71
1614.49	105.467
1616.03	106.169
1617.57	106.255
1619.11	105.819
1620.64	107.066
1622.18	108.11
1623.72	108.606
1625.25	109.204
1626.79	110.849
1628.32	111.902
1629.86	113.499
1631.4	114.379
1632.93	115.783
1634.47	116.585
1636	118.084
1637.53	120.629
1639.07	121.926
1640.6	123.417
1642.14	124.509
1643.67	126.728
1645.2	127.977
1646.73	129.917
1648.27	132.026
1649.8	132.282
1651.33	131.918
1652.86	131.484
1654.39	129.887
1655.92	130.651
1657.45	131.465
1658.98	130.566
1660.51	128.508
1662.04	127.462
1663.57	126.132
1665.1	123.579
1666.63	121.039
1668.16	117.631
1669.69	115.531
1671.21	112.054
1672.74	108.862
1674.27	105.481
1675.79	101.298
1677.32	96.8483
1678.85	92.517
1680.37	88.5266
1681.9	84.0304
1683.42	79.0746
1684.95	74.9121
1686.47	70.3702
1688	66.8456
1689.52	62.352
1691.05	58.7751
1692.57	55.3513
1694.1	51.4166
1695.62	47.8648
1697.14	44.7825
1698.66	41.4639
1700.19	38.3171
1701.71	36.4807
1703.23	33.2927
1704.75	31.594
1706.27	29.4452
1707.79	27.5065
1709.32	25.8836
1710.83	23.0656
1712.35	21.973
1713.88	20.9177
1715.39	18.7834
1716.91	17.9619
1718.43	16.8125
1719.95	16.8934
1721.47	14.9091
1722.99	13.9708
1724.5	13.1686
1726.02	11.5051
1727.54	10.5719
1729.06	11.3521
1730.57	10.923
1732.09	11.1098
1733.61	10.3518
1735.12	9.7313
1736.64	8.85468
1738.15	8.97977
1739.67	8.35585
1741.18	7.28958
1742.7	6.98435
1744.21	6.70651
1745.72	6.87434
1747.24	5.93211
1748.75	5.98042
1750.26	5.76758
1751.78	5.78113
1753.29	5.74815
1754.8	5.85349
1756.31	5.44401
1757.82	5.18958
1759.34	4.80738
1760.85	4.42912
1762.36	3.81772
1763.87	4.13353
1765.38	3.75648
1766.89	3.97069
1768.4	3.68015
1769.91	3.65423
1771.41	3.46953
1772.92	3.53266
1774.43	4.05085
1775.94	4.54081
1777.45	4.2792
1778.96	3.50553
1780.46	3.69037
1781.97	3.31616
1783.48	3.11421
1784.98	2.47155
1786.49	2.16795
1788	2.15542
1789.5	1.56163
1791.01	0.846036
1792.51	1.23785
1794.01	0.347402
1795.52	0.410639
1797.02	-0.766751
1798.53	0.156912
1800.03	0.00737647
1801.54	0.0644792
1803.04	0.463166
1804.54	0.676086
1806.04	-0.20593
1807.54	0.0455386
1809.05	0.00858295
1810.55	-0.864147
1812.05	-1.14221
1813.55	-0.936901
1815.05	-0.808455
1816.55	-0.71983
1818.05	-0.394921
1819.55	0.0137833
1821.05	0.278735
1822.55	0.608573
1824.05	0.653319
1825.55	0.482322
1827.05	0.516676
1828.55	-0.0191266
1830.04	0.251069
1831.54	-0.0660887
1833.04	0.26868
1834.54	0.249216
1836.03	0.98258
1837.53	1.05975
1839.03	1.42325
1840.52	1.43851
1842.02	1.8115
1843.51	2.03581
1845.01	2.32964
1846.5	2.48961
1848	2.72469
1849.49	3.00449
1850.99	3.40942
1852.48	2.95253
1853.97	3.65565
1855.47	3.70825
1856.96	3.90624
1858.45	4.18572
1859.94	4.51876
1861.44	4.36586
1862.93	3.75487
1864.42	4.30402
1865.91	4.61863
1867.4	4.75103
1868.89	3.94147
1870.38	3.87496
1871.87	3.94644
1873.36	4.1516
1874.85	3.32747
1876.34	3.23106
1877.83	2.79652
1879.32	2.97499
1880.81	3.78083
1882.3	4.56373
1882.56	4.23208
1884.06	3.60445
1885.55	3.83538
1887.04	4.91457
1888.54	4.6863
1890.03	4.62409
1891.52	4.32831
1893.02	4.35207
1894.51	4.24248
1896	4.00835
1897.49	3.69149
1898.99	4.13575
1900.48	4.90622
1901.97	4.62043
1903.46	4.50136
1904.95	3.92487
1906.44	4.52945
1907.93	5.01343
1909.42	5.44605
1910.91	4.78947
1912.4	4.80937
1913.89	6.02815
1915.38	6.35577
1916.86	6.52951
1918.35	6.50116
1919.84	6.06622
1921.33	5.18954
1922.82	6.03901
1924.3	5.29535
1925.79	4.55252
1927.28	4.75905
1928.76	4.40158
1930.25	4.2087
1931.74	4.04671
1933.22	3.32498
1934.71	2.78821
1936.19	3.25814
1937.67	3.06567
1939.16	2.01274
1940.64	1.57497
1942.13	1.40523
1943.61	1.3659
1945.09	1.65509
1946.58	0.898362
1948.06	0.909055
1949.54	1.10747
1951.03	1.00869
1952.51	1.73265
1953.99	1.57443
1955.47	0.961613
1956.95	0.689261
1958.43	0.315751
1959.91	1.03137
1961.39	1.4128
1962.87	0.232249
1964.35	0.413006
1965.83	0.534313
1967.31	1.11198
1968.79	0.790578
1970.27	0.857493
1971.75	1.77374
1973.22	1.93478
1974.7	1.54426
1976.18	1.13615
1977.66	1.52534
1979.13	1.60225
1980.61	2.46852
1982.09	2.42517
1983.56	1.41347
1985.04	2.15218
1986.52	2.78498
1987.99	2.83109
1989.47	2.47675
1990.94	2.29325
1992.41	2.4205
1993.89	1.80156
1995.36	1.98827
1996.84	3.0567
1998.31	2.67937
1999.78	3.19748
2001.26	4.11967
2002.73	4.44185
2004.2	4.51994
2005.67	5.04667
2007.15	5.53225
2008.62	5.84494
2010.09	5.63498
2011.56	4.96946
2013.03	4.93489
2014.5	4.84259
2015.97	4.98015
2017.44	4.68357
2018.91	4.62611
2020.38	4.12799
2021.85	4.45527
2023.32	3.79683
2024.79	4.13553
2026.25	4.11752
2027.72	4.08386
2029.19	4.36968
2030.66	4.66968
2032.13	4.11426
2033.59	4.55959
2035.06	4.86156
2036.53	5.02175
2037.99	4.98628
2039.46	5.04698
2040.92	5.23647
2042.39	6.00299
2043.85	6.96843
2045.32	7.32422
2046.78	7.32359
2048.25	7.93568
2049.71	7.91542
2051.18	7.68212
2052.64	7.53676
2054.1	8.09935
2055.56	8.35294
2057.03	8.61491
2058.49	10.4314
2059.95	10.9098
2061.42	11.1536
2062.88	12.1727
2064.34	13.0137
2065.8	13.9761
2067.26	15.1837
2068.72	16.6833
2070.18	18.7924
2071.64	20.1143
2073.1	21.408
2074.56	22.6923
2076.02	23.8576
2077.48	25.4424
2078.94	26.3914
2080.39	27.697
2081.85	29.2264
2083.31	29.892
2084.77	30.9614
2086.22	32.3668
2087.68	33.6641
2089.14	35.5541
2090.6	36.432
2092.05	37.83
2093.51	39.3323
2094.96	41.1488
2096.42	43.1388
2097.87	45.265
2099.33	47.2492
2100.78	50.121
2102.24	52.3228
2103.69	54.8755
2105.15	56.8012
2106.6	59.9968
2108.05	62.8262
2109.51	64.8654
2110.96	67.8026
2112.41	71.3434
2113.86	74.3139
2115.32	76.9619
2116.77	79.6332
2118.22	82.6999
2119.67	85.0308
2121.12	87.3719
2122.57	89.3902
2124.02	92.8066
2125.47	96.1645
2126.92	99.2828
2128.37	102.068
2129.82	105.081
2131.27	109.098
2132.72	112.306
2134.17	116.563
2135.62	120.515
2137.06	124.121
2138.51	127.764
2139.96	130.721
2141.41	132.722
2142.85	135.676
2144.3	137.317
2145.75	139.725
2147.19	143.261
2148.64	145.793
2150.09	147.743
2151.53	149.66
2152.97	152.299
2154.42	153.825
2155.86	154.728
2157.31	156.614
2158.75	158.748
2160.2	159.197
2161.64	160.029
2163.08	160.678
2164.53	161.465
2165.97	162.136
2167.41	162.677
2168.86	163.588
2170.3	164.194
2171.74	164.214
2173.18	163.485
2174.62	162.597
2176.06	162.201
2177.5	160.728
2178.94	160.014
2180.38	157.908
2181.82	155.864
2183.26	154.729
2184.7	153.217
2186.14	151.008
2187.58	148.647
2189.02	146.259
2190.46	143.638
2191.89	140.606
2193.33	139.2
2194.77	136.949
2196.21	134.931
2197.64	132.431
2199.08	129.381
2200.52	127.553
2201.95	125.671
2203.39	123.29
2204.83	120.622
2206.26	117.851
2207.7	113.573
2209.13	110.107
2210.57	107.64
2212	104.084
2213.43	100.965
2214.87	98.228
2216.3	95.8736
2217.73	93.3876
2219.17	90.9824
2220.6	87.4919
2222.03	84.6756
2223.47	82.4082
2224.9	79.6972
2226.33	77.1579
2227.76	75.0509
2229.19	72.8903
2230.62	70.7807
2232.05	68.248
2233.49	66.6176
2234.91	64.7612
2236.34	62.9214
2237.77	61.5719
2239.2	60.0096
2240.63	58.028
2242.06	56.0675
2243.49	53.8037
2244.92	52.4804
2246.35	51.0986
2247.78	49.2099
2249.2	47.1236
2250.63	45.7468
2252.06	44.4447
2253.48	43.9522
2254.91	43.2734
2256.34	41.8349
2257.76	40.8841
2259.19	39.3003
2260.61	38.8969
2262.04	38.5605
2263.46	37.9746
2264.89	37.7657
2266.31	36.6755
2267.74	35.772
2269.16	34.5445
2270.59	33.9813
2272.01	34.1522
2273.43	32.9117
2274.85	31.6941
2276.28	30.743
2277.7	29.6555
2279.12	28.4927
2280.54	27.9448
2281.97	27.6837
2283.39	26.09
2284.81	24.7341
2286.23	23.728
2287.65	23.4488
2289.07	22.2381
2290.49	21.1677
2291.91	19.9723
2293.33	19.1263
2294.75	19.2637
2296.17	19.3038
2297.59	18.9646
2299.01	18.5325
2300.42	18.1953
2301.84	18.7581
2303.26	18.0901
2304.68	17.3233
2306.1	16.5707
2307.51	16.498
2308.93	16.0696
2310.35	15.6003
2311.76	15.1479
2313.18	15.1603
2314.59	15.4528
2316.01	15.073
2317.43	14.3675
2318.84	13.9355
2320.26	13.9688
2321.67	13.9155
2323.08	14.0355
2324.5	14.7783
2325.91	14.2027
2327.33	13.4755
2328.74	13.8523
2330.15	13.01
2331.56	13.5679
2332.98	12.9048
2334.39	12.2864
2335.8	12.5987
2337.21	12.033
2338.62	10.9317
2340.04	9.93114
2341.45	10.0274
2342.86	9.37899
2344.27	8.13944
2345.68	7.68333
2347.09	6.68367
2348.5	6.44713
2349.91	6.00064
2351.31	5.5983
2352.72	4.90578
2354.13	3.67046
2355.54	3.04419
2356.95	2.70651
2358.36	2.37625
2359.76	1.60051
2361.17	1.13291
2362.58	1.31759
2363.98	1.54852
2365.39	1.35035
2366.8	0.402442
2368.21	-0.367554
2369.61	-0.318575
2371.02	-0.396789
2372.42	0.102601
2373.83	-0.480594
2375.23	-0.425414
2376.64	0.12825
2378.04	0.741612
2379.44	0.962444
2380.85	1.40247
2382.25	1.7966
2383.66	2.13026
2385.06	2.32629
2386.46	2.23838
2387.86	2.08792
2389.26	2.43727
2390.67	3.15649
2392.07	3.77905
2393.47	3.98428
2394.87	4.53394
2396.27	4.31011
2397.67	4.80468
2399.07	5.72266
2400.47	5.78384
2401.87	6.24803
2403.27	6.33908
2404.67	6.25978
2406.07	6.42586
2407.47	6.11451
2408.87	6.48238
2410.27	7.17511
2411.67	8.09647
2413.07	7.95383
2414.46	7.94123
2415.86	7.86324
2417.26	7.83958
2418.66	8.38227
2420.05	8.40952
2421.45	7.95176
2422.84	7.35381
2424.24	7.89684
2425.64	8.75759
2427.03	8.43949
2428.43	8.42457
2429.82	8.65431
2431.22	8.80423
2432.61	8.76305
2434.01	8.55958
2435.4	8.23964
2436.79	8.19959
2438.19	8.65318
2439.58	9.25291
2440.97	9.65662
2442.37	10.3348
2443.76	10.1324
2445.15	10.2251
2446.54	10.2499
2447.93	10.5107
2449.33	10.3221
2450.72	9.79307
2452.11	9.75666
2453.5	9.36656
2454.89	8.57861
2456.28	8.33453
2457.67	8.05228
2459.06	7.52974
2460.45	7.61365
2461.84	7.24574
2463.23	7.01284
2464.62	7.54652
2466	7.55406
2467.39	7.35388
2468.78	7.33177
2470.17	7.17378
2471.55	7.40026
2472.94	7.2423
2474.33	6.95608
2475.72	7.40224
2477.1	8.00764
2478.49	7.72222
2479.87	7.58424
2481.26	7.09731
2482.65	6.2576
2484.03	6.29538
2485.42	5.94431
2486.8	6.10512
2488.19	6.04113
2489.57	6.03635
2490.95	5.81831
2492.34	5.39446
2493.72	6.42595
2495.1	5.91903
2496.49	5.77156
2497.87	6.34452
2499.25	6.58247
2500.63	7.03499
2502.02	6.9891
2503.4	6.81728
2504.78	6.78528
2506.16	7.14688
2507.54	7.50313
2508.92	7.43604
2510.3	7.56059
2511.68	7.65171
2513.06	7.11236
2514.44	7.47269
2515.82	7.49923
2517.2	7.19718
2518.58	5.85837
2519.96	5.35757
2521.34	5.58375
2522.72	5.00112
2524.1	4.58865
2525.47	5.50802
2526.85	5.40426
2528.23	5.03071
2529.6	5.35591
2530.98	5.51501
2532.36	5.38194
2533.74	5.6225
2535.11	5.51924
2536.49	5.50319
2537.86	5.21933
2539.24	5.44093
2540.61	5.77726
2541.99	5.89438
2543.36	6.35364
2544.74	6.75347
2546.11	7.01966
2547.49	6.77071
2548.86	6.72416
2550.23	6.13301
2551.61	5.8766
2552.98	5.78529
2554.35	5.51032
2555.72	5.87307
2557.09	5.99548
2558.47	5.39682
2559.84	4.43743
2561.21	4.02583
2562.58	4.83835
2563.95	4.58619
2565.32	4.53104
2566.69	4.02439
2568.06	3.8657
2569.43	3.6361
2570.8	3.34087
2572.17	2.92912
2573.54	2.92807
2574.91	2.8353
2576.28	2.8179
2577.65	3.13127
2579.02	3.17303
2580.39	2.68512
2581.75	2.60889
2583.12	2.43207
2584.49	2.2148
2585.85	1.47581
2587.22	1.07612
2588.59	1.12084
2589.95	1.53025
2591.32	1.45655
2592.68	1.66254
2594.05	1.66864
2595.42	1.14058
2596.78	0.831362
2598.15	0.81374
2599.51	1.46375
2600.88	1.20063
2602.24	2.02457
2603.6	1.9504
2604.97	1.39276
2606.33	1.93237
2607.69	2.99252
2609.06	3.44229
2610.42	4.01247
2611.78	4.34813
2613.14	3.98492
2614.51	3.71967
2615.87	3.56158
2617.23	3.30193
2618.59	3.16437
2619.95	3.3688
2621.31	3.44761
2622.67	3.45067
2624.03	3.99262
2625.39	3.81882
2626.75	3.43123
2628.11	3.45417
2629.47	3.71099
2630.83	3.89432
2632.19	4.07033
2633.55	3.59373
2634.91	3.26445
2636.26	3.28688
2637.62	3.17322
2638.98	2.84781
2640.34	2.70667
2641.69	2.90226
2643.05	3.02961
2644.41	3.10913
2645.76	2.84257
2647.12	2.1829
2648.48	1.92811
2649.83	1.83067
2651.19	1.18951
2652.54	1.7948
2653.9	1.29015
2655.25	2.01836
2656.6	2.47825
2657.96	3.04304
2659.31	2.9848
2660.67	2.57023
2662.02	2.03799
2663.37	2.00012
2664.73	2.08919
2666.08	2.12835
2667.43	2.65904
2668.78	2.55173
2670.14	3.09394
2671.49	2.79557
2672.84	2.95476
2674.19	3.81955
2675.54	4.71025
2676.89	4.40519
2678.24	4.75677
2679.59	4.74565
2680.94	4.63906
2682.29	5.20641
2683.64	5.60247
2684.99	5.91805
2686.34	5.96527
2687.69	6.7507
2689.04	6.97228
2690.39	7.42884
2691.74	7.88707
2693.08	7.829
2694.43	7.93717
2695.78	8.23512
2697.13	8.04134
2698.47	8.42887
2699.82	8.44946
2701.17	7.50014
2702.51	7.58313
2703.86	7.68947
2705.21	7.83724
2706.55	8.38343
2707.9	9.2572
2709.24	9.70121
2710.58	10.3166
2711.93	10.3437
2713.27	10.6019
2714.62	11.0954
2715.96	12.0417
2717.3	13.1461
2718.65	13.4833
2719.99	14.1224
2721.33	14.0659
2722.68	14.6757
2724.02	14.5024
2725.36	14.6178
2726.71	14.1738
2728.05	14.7443
2729.39	15.0954
2730.73	15.7828
2732.07	15.8745
2733.41	15.1585
2734.75	14.8091
2736.09	14.2243
2737.43	14.5646
2738.77	14.3552
2740.11	14.2055
2741.45	13.2653
2742.79	12.5432
2744.13	11.6228
2745.47	11.6906
2746.81	10.9382
2748.14	10.2067
2749.48	10.1204
2750.82	9.4298
2752.16	8.98165
2753.49	8.25211
2754.83	7.61016
2756.17	6.48167
2757.5	6.58061
2758.84	6.11409
2760.18	5.81065
2761.51	5.14416
2762.85	4.38868
2764.18	3.48121
2765.52	3.01056
2766.85	2.77707
2768.19	2.51107
2769.52	2.35374
2770.86	2.04695
2772.19	2.09913
2773.52	2.33628
2774.86	2.19992
2776.19	1.37654
2777.52	1.20124
2778.86	0.934269
2780.19	1.37644
2781.52	1.72999
2782.85	1.66751
2784.19	1.01401
2785.52	0.320096
2786.85	0.36287
2788.18	0.56268
2789.51	0.677122
2790.84	0.928078
2792.17	0.815848
2793.5	0.75581
2794.83	1.41757
2796.16	0.797562
2797.49	0.604159
2798.82	0.13849
2800.15	-0.474305
2801.48	-0.348453
2802.81	-0.487111
2804.13	-0.639035
2805.46	-1.6173
2806.79	-2.67813
2808.12	-3.42187
2809.45	-3.6902
2810.77	-3.6052
2812.1	-4.20807
2813.43	-4.56526
2814.75	-3.7481
2816.08	-3.42005
2817.41	-2.60766
2818.73	-0.765383
2820.06	1.31157
2821.38	3.8144
2822.71	6.30529
2824.03	10.289
2825.36	13.0473
2826.68	16.3285
2828	19.6231
2829.33	23.6263
2830.65	28.2631
2831.98	32.5716
2833.3	36.6948
2834.62	40.6517
2835.94	45.0406
2837.27	49.8311
2838.59	54.5186
2839.91	59.4841
2841.23	63.9987
2842.55	69.1396
2843.87	75.1765
2845.2	80.4746
2846.52	86.6808
2847.84	93.161
2849.16	100.305
2850.48	108.003
2851.8	115.38
2853.12	123.151
2854.44	130.291
2855.76	137.694
2857.08	145.594
2858.39	152.805
2859.71	159.786
2861.03	166.146
2862.35	171.89
2863.67	177.305
2864.98	182.626
2866.3	187.554
2867.62	192.721
2868.94	196.535
2870.25	200.705
2871.57	204.624
2872.88	208.583
2874.2	212.147
2875.52	215.981
2876.83	219.528
2878.15	221.789
2879.46	225.813
2880.78	229.475
2882.09	232.55
2883.41	236.654
2884.72	240.09
2886.03	243.315
2887.35	246.771
2888.66	249.784
2889.97	253.291
2891.29	255.425
2892.6	258.744
2893.91	261.961
2895.22	265.744
2896.54	270.016
2897.85	272.793
2899.16	276.515
2900.47	280.933
2901.78	286.379
2903.09	291.152
2904.4	296.319
2905.71	301.826
2907.02	308.806
2908.33	316.397
2909.64	323.148
2910.95	330.967
2912.26	339.647
2913.57	348.13
2914.88	356.098
2916.19	364.295
2917.5	371.091
2918.81	378.001
2920.11	383.839
2921.42	389.855
2922.73	393.968
2924.04	397.334
2925.34	400.646
2926.65	402.885
2927.96	405.214
2929.26	406.914
2930.57	407.93
2931.87	408.015
2933.18	407.314
2934.49	405.925
2935.79	404.227
2937.1	401.267
2938.4	397.841
2939.7	393.795
2941.01	389.724
2942.31	384.029
2943.62	378.174
2944.92	372.36
2946.22	365.689
2947.53	359.403
2948.83	351.731
2950.13	343.961
2951.43	336.551
2952.74	328.803
2954.04	320.047
2955.34	311.514
2956.64	303.296
2957.94	295.942
2959.24	288.169
2960.54	280.886
2961.84	273.491
2963.15	266.003
2964.45	258.976
2965.75	252.12
2967.05	245.251
2968.34	237.883
2969.64	231.515
2970.94	225.082
2972.24	219.119
2973.54	212.429
2974.84	205.721
2976.14	199.408
2977.43	193.267
2978.73	186.837
2980.03	179.59
2981.33	173.287
2982.62	165.374
2983.92	158.251
2985.22	150.818
2986.51	143.753
2987.81	136.16
2989.11	129.78
2990.4	122.959
2991.7	115.712
2992.99	109.593
2994.29	103.169
2995.58	96.6815
2996.88	90.3189
2998.17	84.3022
2999.46	78.1376
3000.76	71.8663
3002.05	65.7456
3003.34	60.5565
3004.64	55.1684
3005.93	49.6418
3007.22	44.1724
3008.52	39.0925
3009.81	34.6163
3011.1	31.2375
3012.39	27.0962
3013.68	22.7191
3014.97	20.0003
3016.27	17.4293
3017.56	14.863
3018.85	12.6391
3020.14	10.3928
3021.43	9.21357
3022.72	7.84177
3024.01	6.82403
3025.3	5.74347
3026.59	4.65989
3027.88	4.74575
3029.16	3.00487
3030.45	2.57308
3031.74	2.28691
3033.03	2.83242
3034.32	3.64745
3035.6	3.7947
3036.89	4.88352
3038.18	5.83273
3039.47	6.52141
3040.75	7.56878
3042.04	8.87385
3043.33	10.1771
3044.61	11.0473
3045.9	12.1052
3047.18	12.4699
3048.47	12.9604
3049.75	13.2614
3051.04	14.2071
3052.32	14.1147
3053.61	14.7049
3054.89	14.78
3056.18	14.9301
3057.46	14.8068
3058.74	14.4978
3060.03	13.7841
3061.31	13.4064
3062.59	13.3548
3063.88	12.4024
3065.16	12.169
3066.44	11.4951
3067.72	10.4658
3069	10.0393
3070.29	8.99267
3071.57	8.32652
3072.85	7.83939
3074.13	7.0355
3075.41	6.12676
3076.69	5.22657
3077.97	4.83392
3079.25	4.51949
3080.53	3.62375
3081.81	2.97145
3083.09	1.86948
3084.37	0.578839
3085.65	0.305218
3086.93	-0.700427
3088.21	-0.664472
3089.49	-1.25737
3090.76	-1.21271
3092.04	-1.17307
3093.32	-1.53254
3094.6	-0.779236
3095.87	-0.162037
3097.15	0.817319
3098.43	1.56489
3099.7	1.88262
3100.98	2.58032
3102.26	2.9462
3103.53	3.90692
3104.81	4.68596
3106.08	5.18784
3107.36	6.34213
3108.63	6.54172
3109.91	7.10192
3111.18	7.50505
3112.46	8.54011
3113.73	9.66161
3115	10.7125
3116.28	11.6909
3117.55	12.736
3118.83	13.4681
3120.1	14.4317
3121.37	15.4763
3122.64	16.8343
3123.92	18.0804
3125.19	19.7583
3126.46	21.1542
3127.73	21.8703
3129	23.2384
3130.27	23.9397
3131.55	24.7652
3132.82	26.3755
3134.09	27.0371
3135.36	28.7758
3136.63	30.0767
3137.9	31.1609
3139.17	32.5373
3140.44	33.912
3141.71	34.9909
3142.98	35.9673
3144.24	37.062
3145.51	38.2288
3146.78	39.7674
3148.05	41.3888
3149.32	42.6671
