#Acq. time (s)=	45
#Accumulations=	2
#Range (cm-¹)=	200...3150
#Windows=	2
#Auto scanning=	Off
#Autofocus=	Off
#Macrospot=	Off
#AutoExposure=	Off
#Spike filter=	Multiple accum.
#Delay time (s)=	0
#Binning=	1
#Readout mode=	Signal
#DeNoise=	Off
#ICS correction=	On
#Dark correction=	Off
#Inst. Process=	Off
#Detector Gain=	Best Dynamic Range
#Detector ADC=	20 kHz       
#Detector temperature (°C)=	-69.85
#Instrument=	LabRAM HR Evol
#Detector=	Synapse
#Objective=	x100
#Grating=	600 gr/mm
#ND Filter=	100%
#Laser (nm)=	532 
#Hole=	100.021
#Range=	Auto
#Laser Pol.=	No
#Raman. Pol.=	No
#Laser Pol. (°)=	-0.0007625
#Raman Pol. (°)=	89.9995
#Collection=	Microscope
#StageXY=	Marzhauser
#StageZ=	Marzhauser
#X (µm)=	2158.1
#Y (µm)=	1213.9
#Z (µm)=	442.8
#Full time(mm:ss)=	3:18
#Project=	
#Sample=	
#Site=	
#Title=	Thy_10_08_02_2x_45s_532 nm_x100_100%_600 gr_mm
#Remark=	
#Date=	05.07.2022 14:19
#Acquired=	05.07.2022 14:19:03
#Base:Fit=	10.08.2022 09:45:33
#Base:Fit=	10.08.2022 09:46:03
#Base:Fit=	10.08.2022 09:46:25
#Base:Sub=	10.08.2022 09:46:49
#Filter:Polynom=	16.08.2022 10:24:56
#AxisType[0]=Intens
#AxisUnit[0]=Cnt
#AxisType[1]=Spectr
#AxisUnit[1]=1/cm
200.43	4.50107
202.244	4.55122
204.059	4.52247
205.873	4.11978
207.688	3.58187
209.501	3.64384
211.314	3.68237
213.127	4.08168
214.941	4.67383
216.753	5.29033
218.564	5.95751
220.375	6.77136
222.186	8.16728
223.999	8.90047
225.809	9.78261
227.618	10.1189
229.428	9.93087
231.236	10.304
233.045	9.86731
234.855	10.5566
236.663	10.4352
238.471	10.0273
240.278	10.6404
242.085	11.75
243.891	11.8308
245.698	12.064
247.503	12.3357
249.309	12.7089
251.116	13.1512
252.921	13.211
254.725	13.7942
256.529	14.4587
258.333	14.7162
260.136	14.8309
261.939	15.7619
263.742	16.7829
265.544	16.7792
267.346	16.966
269.148	16.9875
270.949	15.8871
272.75	16.3974
274.55	16.4522
276.351	15.8117
278.15	15.8544
279.95	15.7943
281.749	15.6701
283.548	15.2764
285.346	14.9722
287.144	14.0743
288.942	13.6113
290.739	13.5756
292.536	14.4826
294.333	15.3364
296.129	16.1909
297.925	17.3507
299.721	16.8662
301.514	17.4161
303.309	17.5631
305.104	17.3212
306.898	17.5415
308.692	18.4925
310.486	18.8987
312.279	19.3742
314.072	19.5549
315.862	20.2083
317.654	20.0131
319.446	20.0744
321.238	20.513
323.029	19.9865
324.819	20.6789
326.608	20.2896
328.398	21.1165
330.188	21.0145
331.977	21.4056
333.766	21.4303
335.553	21.7344
337.341	22.1192
339.129	21.2048
340.917	20.368
342.704	20.2906
344.489	19.7949
346.275	19.0708
348.062	18.6204
349.845	18.5142
351.631	18.2836
353.416	17.8937
355.201	17.6354
356.984	16.5044
358.768	15.7699
360.552	14.5002
362.333	14.6329
364.116	14.1495
365.899	13.9189
367.68	13.8993
369.462	12.9245
371.243	12.0361
373.023	10.7849
374.804	10.1236
376.585	9.51371
378.363	9.0607
380.143	10.2769
381.923	10.6407
383.7	10.9335
385.479	10.3585
387.256	10.136
389.034	9.9251
390.812	9.74215
392.588	9.55695
394.365	9.86244
396.14	10.6487
397.916	11.2093
399.691	11.2461
401.467	11.4881
403.24	11.4532
405.015	10.7897
406.788	10.5018
408.563	10.3074
410.335	9.65639
412.109	8.91846
413.88	8.84891
415.654	8.95054
417.424	9.05271
419.197	9.27181
420.967	9.59297
422.739	9.64847
424.508	9.00416
426.279	8.30489
428.048	7.08789
429.819	6.76175
431.587	7.09046
433.356	6.69221
435.124	7.40974
436.891	7.16039
438.66	6.72583
440.426	6.26512
442.194	6.21953
443.96	5.58321
445.725	4.06326
447.492	4.03305
449.257	3.54123
451.021	4.61094
452.787	4.2825
454.551	4.68664
456.314	4.04901
458.079	3.99458
459.842	4.31055
461.604	4.42291
463.368	5.36817
465.13	5.76443
466.891	6.61053
468.654	7.5683
470.415	6.85792
472.175	7.07193
473.935	7.05713
475.696	7.79241
477.456	8.66579
479.215	8.32253
480.973	8.80642
482.733	8.8119
484.491	9.45025
486.249	10.9619
488.006	11.7593
489.765	12.1544
491.522	12.8918
493.278	13.7362
495.034	14.7199
496.789	15.807
498.544	16.3256
500.301	17.3014
502.056	18.6155
503.81	20.4128
505.564	20.5653
507.317	20.507
509.071	19.7036
510.825	20.4167
512.578	19.9028
514.33	19.1445
516.082	19.0329
517.833	18.6504
519.585	18.7998
521.335	19.5052
523.086	20.2282
524.836	20.3792
526.586	20.6179
528.335	19.7241
530.085	19.8121
531.835	18.7034
533.584	18.5227
535.332	19.8668
537.08	20.1821
538.827	20.0333
540.574	19.2308
542.321	19.1681
544.068	18.365
545.814	18.4066
547.56	17.5972
549.305	17.0101
551.05	16.8239
552.795	16.8054
554.54	16.4288
556.282	16.0752
558.025	15.7455
559.769	16.1945
561.512	15.2064
563.255	14.1454
564.997	13.6714
566.739	12.5394
568.481	12.5846
570.223	12.6005
571.964	12.9856
573.705	13.2486
575.443	12.2316
577.183	11.6654
578.923	10.9588
580.663	10.4806
582.402	9.8764
584.141	10.5121
585.879	9.17281
587.615	8.54337
589.353	8.18578
591.09	7.57599
592.828	5.97035
594.564	5.89772
596.299	6.63535
598.035	6.298
599.771	5.68604
601.506	5.67257
603.242	5.2825
604.974	5.28729
606.709	6.31007
608.443	7.54584
610.177	7.72542
611.908	7.14884
613.642	6.21231
615.374	6.0549
617.105	6.58555
618.837	6.03123
620.569	6.68882
622.3	7.7556
624.03	7.23118
625.761	7.5535
627.491	8.17286
629.219	8.22441
630.949	8.60954
632.677	9.28276
634.406	9.8562
636.135	10.7618
637.861	11.2584
639.59	12.1799
641.318	12.2846
643.043	11.8004
644.77	11.0843
646.495	11.2887
648.222	11.1492
649.948	12.1127
651.672	13.2369
653.398	13.613
655.121	14.4701
656.846	15.0154
658.569	15.2146
660.293	15.893
662.015	16.562
663.738	16.995
665.46	17.642
667.183	18.6386
668.903	19.2096
670.626	20.345
672.346	20.6653
674.067	21.4225
675.787	23.0722
677.508	24.2134
679.226	25.1554
680.947	26.0433
682.665	26.3312
684.385	26.3786
686.102	27.3293
687.821	28.3185
689.538	28.5487
691.254	30.0183
692.972	31.4736
694.688	32.0393
696.406	32.6245
698.121	32.2783
699.835	32.5256
701.552	32.5374
703.266	33.2503
704.98	33.9684
706.695	35.0667
708.409	36.3355
710.121	36.2168
711.836	36.9392
713.548	37.2883
715.26	38.095
716.973	38.6943
718.685	39.3655
720.396	40.0007
722.108	40.2576
723.818	40.4263
725.528	41.5492
727.238	41.9197
728.949	41.8261
730.658	42.8916
732.367	44.2119
734.075	46.1098
735.785	46.3808
737.493	46.9375
739.2	48.4463
740.907	49.5242
742.614	49.2454
744.322	50.4392
746.028	51.5214
747.734	50.8152
749.439	50.872
751.144	51.795
752.849	53.4174
754.555	53.851
756.26	55.7092
757.963	56.5609
759.667	57.7937
761.37	59.6739
763.073	60.2156
764.775	61.0506
766.477	61.9608
768.179	63.8741
769.883	64.677
771.584	66.4621
773.285	67.4276
774.986	68.587
776.686	70.5246
778.386	71.4569
780.085	71.981
781.785	73.1452
783.484	73.857
785.182	74.5085
786.881	75.4131
788.579	76.9301
790.276	77.5652
791.974	78.5483
793.671	79.2757
795.367	80.3271
797.064	81.5008
798.76	82.0564
800.456	83.0009
802.151	83.4371
803.846	84.3779
805.541	85.1991
807.234	85.1022
808.928	85.4256
810.622	85.3337
812.315	84.8142
814.008	84.9081
815.701	85.5573
817.394	86.4414
819.086	86.6414
820.778	85.3989
822.468	85.4694
824.159	85.8554
825.85	84.4945
827.541	83.2878
829.231	83.4479
830.921	82.2139
832.609	81.1764
834.298	81.3951
835.987	80.9885
837.676	80.816
839.364	79.2274
841.051	79.2806
842.738	78.2055
844.426	77.4305
846.113	75.7857
847.798	73.8131
849.484	72.4782
851.171	70.9819
852.857	69.9142
854.54	68.6092
856.226	68.0867
857.911	66.1842
859.593	65.5963
861.278	64.11
862.961	62.0136
864.645	60.4285
866.327	60.0405
868.01	58.7066
869.692	56.3255
871.373	56.0532
873.055	54.7897
874.735	54.0372
876.416	53.4547
878.097	53.1044
879.776	52.3923
881.457	51.1545
883.135	49.6514
884.815	48.605
886.495	48.2126
888.172	48.3102
889.851	47.7253
891.528	47.35
893.206	47.2213
894.882	47.0803
896.56	47.5841
898.237	48.618
899.912	48.3506
901.589	48.0588
903.263	47.8298
904.94	47.8525
906.614	48.4044
908.289	48.5907
909.962	48.7418
911.635	48.5234
913.31	49.1278
914.982	50.1406
916.656	50.7782
918.328	50.7873
920.001	51.5216
921.672	51.8878
923.345	51.5338
925.015	52.0383
926.685	52.1761
928.357	51.5958
930.026	51.1113
931.698	50.8658
933.366	51.3917
935.035	51.2726
936.705	52.4488
938.373	52.8071
940.041	52.4212
941.71	51.9707
943.377	51.7861
945.044	51.218
946.712	51.0837
948.378	51.0453
950.044	51.6294
951.709	49.8177
953.376	48.7396
955.041	48.5346
956.706	47.6551
958.372	46.1881
960.036	44.8386
961.699	43.8523
963.362	42.6621
965.027	42.1023
966.69	41.478
968.352	41.7038
970.014	42.238
971.676	41.7505
973.339	41.4898
975	40.5051
976.661	39.3733
978.322	39.0491
979.982	38.8192
981.642	37.8216
983.303	36.6178
984.962	36.7287
986.621	36.8095
988.28	35.9587
989.938	36.0365
991.596	36.2914
993.254	35.9691
994.911	35.3569
996.57	36.2677
998.227	36.0668
999.884	35.2135
1001.54	34.8254
1003.2	34.5077
1004.85	33.9514
1006.51	33.4909
1008.16	33.0878
1009.82	32.0537
1011.47	30.8861
1013.12	30.1344
1014.78	30.2053
1016.43	30.5287
1018.08	30.1271
1019.74	30.1285
1021.39	28.7799
1023.04	27.5141
1024.69	26.5784
1026.34	25.5898
1028	25.5566
1029.65	24.7938
1031.3	24.1376
1032.95	23.8541
1034.6	22.3951
1036.25	21.6602
1037.9	20.6273
1039.54	19.4637
1041.19	18.5092
1042.84	18.365
1044.49	18.6986
1046.14	18.4788
1047.78	18.1031
1049.43	17.581
1051.08	18.2674
1052.72	18.2579
1054.37	17.8153
1056.02	18.0657
1057.66	17.2465
1059.31	17.7176
1060.95	17.4912
1062.6	17.6846
1064.24	17.427
1065.88	18.318
1067.53	18.7953
1069.17	18.234
1070.81	18.496
1072.45	18.9741
1074.1	19.3118
1075.74	18.8457
1077.38	18.5053
1079.02	18.2422
1080.66	17.9495
1082.3	17.1826
1083.94	16.1379
1085.58	15.5318
1087.22	15.0764
1088.86	14.9834
1090.5	14.7522
1092.14	14.9704
1093.78	15.5734
1095.42	15.7041
1097.05	15.3692
1098.69	14.7343
1100.33	13.856
1101.96	13.038
1103.6	12.5848
1105.24	12.6037
1106.87	12.0146
1108.51	12.2019
1110.14	11.7773
1111.78	11.3006
1113.41	10.7005
1115.05	10.6032
1116.68	9.085
1118.31	8.70692
1119.95	8.344
1121.58	7.56297
1123.21	7.31665
1124.85	6.88403
1126.48	7.33248
1128.11	7.25907
1129.74	7.19898
1131.37	7.85219
1133	8.57489
1134.63	8.84226
1136.26	8.76884
1137.89	9.4895
1139.52	9.70833
1141.15	9.98761
1142.78	9.50343
1144.41	9.93496
1146.04	10.2524
1147.66	10.5277
1149.29	10.4705
1150.92	10.4133
1152.55	10.5618
1154.17	9.99111
1155.8	10.0949
1157.43	9.45302
1159.05	8.28618
1160.68	8.05659
1162.3	7.66489
1163.93	6.73001
1165.55	7.23386
1167.17	8.4125
1168.8	8.17136
1170.42	8.10122
1172.05	8.11147
1173.67	7.7358
1175.29	7.25673
1176.91	6.65965
1178.54	6.79309
1180.16	7.49027
1181.78	7.15438
1183.4	6.7778
1185.02	7.75235
1186.64	8.02359
1188.26	8.6382
1189.88	9.36466
1191.5	8.69637
1193.12	8.81561
1194.74	8.19419
1196.36	8.30795
1197.97	7.55478
1199.59	8.38
1201.21	8.32857
1202.83	8.74158
1204.44	9.42187
1206.06	10.5044
1207.68	11.7612
1209.29	12.2308
1210.91	12.367
1212.52	13.4575
1214.14	14.1534
1215.75	14.7379
1217.37	15.0713
1218.98	16.5067
1220.59	17.1933
1222.21	17.968
1223.82	18.8937
1225.43	20.1636
1227.05	21.2853
1228.66	22.4618
1230.27	23.0538
1231.88	22.5054
1233.49	23.0132
1235.1	23.4774
1236.72	24.1938
1238.33	24.5064
1239.94	24.1366
1241.55	24.3323
1243.16	24.9509
1244.76	26.3865
1246.37	27.3734
1247.98	27.8137
1249.59	27.5913
1251.2	28.0382
1252.8	28.437
1254.41	29.1575
1256.02	30.3213
1257.62	31.1003
1259.23	31.2817
1260.84	30.926
1262.44	30.77
1264.05	31.2597
1265.66	32.2205
1267.26	32.9814
1268.86	32.9187
1270.47	32.412
1272.07	32.0055
1273.67	32.1246
1275.28	33.2661
1276.88	33.7788
1278.48	33.7625
1280.09	33.8272
1281.69	33.8454
1283.29	33.9405
1284.89	34.1019
1286.49	34.3695
1288.09	34.7159
1289.69	35.4253
1291.29	35.9725
1292.89	36.4604
1294.49	37.6988
1296.09	38.4319
1297.69	39.8565
1299.29	41.0925
1300.89	42.2899
1302.49	43.1127
1304.08	43.534
1305.68	44.3359
1307.28	44.7898
1308.88	45.0192
1310.47	44.0626
1312.07	45.0031
1313.66	46.3679
1315.26	45.8067
1316.85	45.7921
1318.45	46.1198
1320.04	46.4713
1321.64	46.023
1323.23	46.3481
1324.83	47.0141
1326.42	45.9663
1328.01	45.7118
1329.61	45.0174
1331.2	45.1004
1332.79	44.9406
1334.38	45.8253
1335.97	44.3657
1337.56	44.5475
1339.16	44.3821
1340.75	44.6461
1342.34	44.6682
1343.93	44.6426
1345.52	44.2311
1347.11	44.2005
1348.7	43.6646
1350.29	43.2661
1351.87	42.228
1353.46	41.2248
1355.05	40.4151
1356.64	38.4937
1358.22	36.7897
1359.81	35.9979
1361.4	35.789
1362.98	34.5826
1364.57	33.5401
1366.16	33.4291
1367.74	33.2547
1369.33	31.9
1370.91	30.0665
1372.5	29.3367
1374.08	28.979
1375.67	28.4507
1377.25	28.2985
1378.83	27.0869
1380.41	25.9607
1382	24.8558
1383.58	23.6584
1385.16	22.9943
1386.74	22.3977
1388.33	21.7073
1389.91	20.7701
1391.49	20.8677
1393.07	20.3647
1394.65	19.6192
1396.23	20.2004
1397.81	20.7653
1399.39	20.6158
1400.97	19.794
1402.55	20.4767
1404.13	21.8019
1405.7	21.6278
1407.28	22.766
1408.86	23.2901
1410.44	24.7358
1412.01	25.6781
1413.59	27.3187
1415.17	28.044
1416.74	30.6578
1418.32	32.0664
1419.89	33.4549
1421.47	35.9592
1423.04	37.6112
1424.62	39.393
1426.19	41.1498
1427.77	42.9639
1429.34	43.8536
1430.91	45.4654
1432.49	47.4491
1434.06	49.9403
1435.63	50.6475
1437.2	52.4534
1438.78	53.3151
1440.35	53.6474
1441.92	53.8489
1443.49	54.3999
1445.06	55.2897
1446.63	54.6715
1448.2	54.3282
1449.77	55.1226
1451.34	55.399
1452.91	54.7993
1454.48	54.757
1456.05	53.2489
1457.62	51.8557
1459.18	50.7504
1460.75	49.3789
1462.32	47.322
1463.89	45.4106
1465.45	43.8342
1467.02	41.4785
1468.59	39.1768
1470.15	37.4644
1471.72	35.6819
1473.28	33.3575
1474.85	31.1306
1476.41	29.3362
1477.98	27.0124
1479.54	24.6348
1481.1	22.6758
1482.67	20.7582
1484.23	17.9118
1485.79	16.2588
1487.36	14.3454
1488.92	13.0919
1490.48	12.174
1492.04	10.9743
1493.61	9.76505
1495.17	9.713
1496.73	9.01112
1498.29	8.05179
1499.85	7.54066
1501.41	6.613
1502.97	6.50974
1504.53	6.53775
1506.09	7.07603
1507.65	6.58094
1509.2	5.99131
1510.76	5.58297
1512.32	4.82711
1513.88	3.696
1515.43	3.94655
1516.99	4.46763
1518.55	5.28869
1520.1	6.5327
1521.66	7.16185
1523.22	8.41082
1524.77	9.75959
1526.33	11.4189
1527.88	11.8761
1529.44	11.9668
1530.99	12.5399
1532.54	13.0161
1534.1	13.3457
1535.65	13.8879
1537.21	14.0181
1538.76	14.2169
1540.31	14.6217
1541.86	14.8968
1543.42	16.1616
1544.97	16.4057
1546.52	17.0007
1548.07	18.5175
1549.62	19.1666
1551.17	20.3584
1552.72	20.9677
1554.27	21.5039
1555.82	22.1002
1557.37	22.7504
1558.92	23.2373
1560.47	23.7828
1562.02	24.7491
1563.56	25.9111
1565.11	26.724
1566.66	28.0662
1568.21	28.8551
1569.75	29.4616
1571.3	31.1575
1572.85	31.7671
1574.39	32.1568
1575.94	33.2141
1577.49	34.2666
1579.03	35.3477
1580.57	35.4351
1582.12	36.0544
1583.66	35.8056
1585.21	36.0658
1586.75	36.0251
1588.3	37.3075
1589.84	38.1026
1591.38	39.2661
1592.92	40.206
1594.47	41.2878
1596.01	41.3604
1597.55	42.3736
1599.09	42.3071
1600.63	42.7424
1602.17	42.1299
1603.71	41.2164
1605.25	39.9211
1606.79	39.235
1608.33	38.2908
1609.87	37.0398
1611.41	35.7673
1612.95	34.5397
1614.49	34.169
1616.03	33.2888
1617.57	32.6603
1619.1	32.1622
1620.64	32.2194
1622.18	31.2674
1623.72	31.1294
1625.25	30.9538
1626.79	30.1369
1628.32	29.7927
1629.86	29.4867
1631.39	29.3792
1632.93	29.473
1634.46	28.9152
1636	29.4202
1637.53	29.6464
1639.07	30.5396
1640.6	30.9776
1642.13	31.5033
1643.67	33.2793
1645.2	34.0931
1646.73	35.2398
1648.26	36.0048
1649.8	36.2837
1651.33	37.4328
1652.86	37.9733
1654.39	38.1467
1655.92	38.53
1657.45	39.0829
1658.98	39.5004
1660.51	39.5691
1662.04	39.692
1663.57	39.0355
1665.1	39.5957
1666.63	38.2675
1668.16	38.1087
1669.68	37.3481
1671.21	37.4651
1672.74	37.3211
1674.27	36.5696
1675.79	35.088
1677.32	34.5959
1678.85	33.133
1680.37	31.4289
1681.9	30.4043
1683.42	28.4961
1684.95	27.6027
1686.47	26.088
1688	24.9675
1689.52	24.5159
1691.05	22.8941
1692.57	20.81
1694.09	19.3254
1695.62	17.7098
1697.14	16.1516
1698.66	14.7143
1700.18	13.3991
1701.71	11.7598
1703.23	9.97263
1704.75	8.35043
1706.27	7.56161
1707.79	6.74995
1709.31	5.79417
1710.83	5.48735
1712.35	5.82563
1713.87	5.61753
1715.39	6.0452
1716.91	5.76083
1718.43	5.72812
1719.95	6.16501
1721.47	5.63138
1722.99	5.80249
1724.5	5.67142
1726.02	5.50011
1727.54	5.61171
1729.06	5.53174
1730.57	5.37225
1732.09	4.49702
1733.61	4.44957
1735.12	4.13177
1736.64	4.08996
1738.15	4.1659
1739.67	4.53935
1741.18	4.34791
1742.7	4.26507
1744.21	5.45175
1745.72	5.80674
1747.24	6.16901
1748.75	6.21262
1750.26	5.92337
1751.77	5.24127
1753.29	5.14714
1754.8	4.19868
1756.31	4.09895
1757.82	4.06511
1759.33	3.38324
1760.84	3.15771
1762.36	1.98642
1763.87	1.71883
1765.38	0.905589
1766.89	0.30922
1768.4	-0.290237
1769.91	-0.776843
1771.41	-0.768396
1772.92	-0.951502
1774.43	-1.499
1775.94	-1.84211
1777.45	-2.29875
1778.95	-1.61223
1780.46	-1.0899
1781.97	-0.528821
1783.48	0.571832
1784.98	0.674835
1786.49	1.36725
1787.99	1.57107
1789.5	1.87812
1791.01	1.69836
1792.51	1.54928
1794.01	2.17743
1795.52	2.89337
1797.02	3.18108
1798.53	3.39083
1800.03	3.15577
1801.53	3.42933
1803.04	3.8101
1804.54	3.50734
1806.04	3.30738
1807.54	3.69245
1809.05	4.69258
1810.55	4.80398
1812.05	5.03215
1813.55	5.35915
1815.05	5.47961
1816.55	5.0246
1818.05	5.6407
1819.55	5.59779
1821.05	5.07776
1822.55	4.68489
1824.05	4.72897
1825.55	4.15026
1827.05	4.08327
1828.55	4.65939
1830.04	4.05391
1831.54	3.66791
1833.04	2.80043
1834.54	2.51381
1836.03	2.29024
1837.53	2.27076
1839.03	2.15505
1840.52	2.00026
1842.02	1.9671
1843.51	1.55703
1845.01	2.08327
1846.5	2.56977
1848	2.42554
1849.49	2.10157
1850.99	2.51447
1852.48	2.33295
1853.97	2.8537
1855.47	2.81391
1856.96	2.51855
1858.45	2.53101
1859.94	2.26721
1861.44	1.78205
1862.93	1.86863
1864.42	1.95544
1865.91	1.68638
1867.4	2.2839
1868.89	2.71324
1870.38	2.59991
1871.87	2.47541
1873.36	2.89791
1874.85	3.34295
1876.34	3.98338
1877.83	4.20052
1879.32	4.49636
1880.81	5.56176
1882.3	5.99742
1882.57	6.23255
1884.07	7.15347
1885.56	7.55997
1887.06	8.08067
1888.55	7.92301
1890.04	8.45629
1891.54	8.98951
1893.03	9.36563
1894.52	9.70478
1896.02	10.0804
1897.51	10.5182
1899	10.3307
1900.49	10.7313
1901.98	10.6152
1903.47	10.2189
1904.96	10.6505
1906.45	11.1709
1907.94	11.5818
1909.43	12.0968
1910.92	12.15
1912.41	12.2665
1913.9	12.3477
1915.39	12.1047
1916.88	12.0792
1918.37	12.4228
1919.85	12.4295
1921.34	11.9995
1922.83	11.1799
1924.32	11.0614
1925.8	10.649
1927.29	10.479
1928.78	10.3357
1930.26	9.46682
1931.75	9.43078
1933.23	9.26925
1934.72	8.44331
1936.2	8.55207
1937.69	7.86148
1939.17	7.00957
1940.66	7.078
1942.14	6.39445
1943.63	5.99627
1945.11	5.78198
1946.59	5.85645
1948.07	6.20112
1949.56	6.24404
1951.04	5.91841
1952.52	6.93909
1954	7.44839
1955.48	6.54629
1956.96	6.58671
1958.45	5.77816
1959.93	4.69678
1961.41	4.30414
1962.89	4.39242
1964.37	4.82123
1965.85	4.79669
1967.32	4.71958
1968.8	4.70297
1970.28	4.14336
1971.76	3.91086
1973.24	3.03142
1974.72	2.95922
1976.19	3.04329
1977.67	3.522
1979.15	3.49069
1980.63	3.7698
1982.1	4.52899
1983.58	4.36672
1985.05	4.0323
1986.53	3.89596
1988	4.16003
1989.48	4.01257
1990.95	4.55302
1992.43	4.82234
1993.9	4.46832
1995.38	4.37097
1996.85	4.69418
1998.32	5.1386
1999.8	5.35527
2001.27	5.41815
2002.74	5.25309
2004.22	5.15999
2005.69	5.66723
2007.16	5.25296
2008.63	5.55441
2010.1	5.49932
2011.57	5.53947
2013.04	5.6188
2014.51	5.7715
2015.98	5.62275
2017.45	6.17449
2018.92	6.89394
2020.39	7.51933
2021.86	7.88091
2023.33	8.03334
2024.8	7.93801
2026.27	7.95382
2027.74	7.21178
2029.2	6.48996
2030.67	6.88558
2032.14	6.66697
2033.61	6.77118
2035.07	7.11104
2036.54	7.02244
2038.01	6.51693
2039.47	6.405
2040.94	6.54371
2042.4	6.55285
2043.87	6.0411
2045.33	6.11833
2046.8	5.63101
2048.26	6.37682
2049.72	7.18337
2051.19	8.18565
2052.65	8.68324
2054.12	9.26362
2055.58	9.80418
2057.04	9.81325
2058.5	10.6412
2059.97	10.7062
2061.43	11.4412
2062.89	11.3334
2064.35	12.0786
2065.81	12.5537
2067.27	13.1905
2068.73	13.6181
2070.19	14.4017
2071.65	14.0021
2073.11	13.886
2074.57	14.0742
2076.03	14.1827
2077.49	14.4939
2078.95	14.7495
2080.41	14.1715
2081.87	13.9364
2083.32	13.3646
2084.78	12.8927
2086.24	12.4554
2087.7	12.3298
2089.15	12.1037
2090.61	11.3711
2092.07	11.268
2093.52	10.9551
2094.98	10.6783
2096.43	10.5276
2097.89	10.1
2099.34	9.90121
2100.8	9.88269
2102.25	9.16699
2103.71	8.96645
2105.16	8.44644
2106.61	8.11431
2108.07	8.19444
2109.52	7.8663
2110.97	8.28016
2112.43	8.57793
2113.88	9.0658
2115.33	8.33325
2116.78	8.2718
2118.23	8.03509
2119.68	9.06949
2121.13	10.3934
2122.59	10.8917
2124.04	11.6721
2125.49	11.7138
2126.94	11.5139
2128.39	12.2565
2129.83	12.6531
2131.28	12.67
2132.73	12.6699
2134.18	14.0088
2135.63	14.0532
2137.08	14.8021
2138.53	14.7249
2139.97	14.9654
2141.42	15.1608
2142.87	15.5369
2144.31	15.5347
2145.76	15.6323
2147.21	16.1593
2148.65	15.6799
2150.1	15.5095
2151.54	15.4934
2152.99	14.6336
2154.43	14.6715
2155.88	14.8031
2157.32	14.8654
2158.77	15.1433
2160.21	14.9517
2161.65	14.8324
2163.1	14.9674
2164.54	16.138
2165.98	16.4187
2167.43	16.6422
2168.87	16.5866
2170.31	16.3735
2171.75	16.7922
2173.19	16.5698
2174.64	16.5361
2176.07	17.441
2177.52	17.5134
2178.96	17.5406
2180.4	18.1979
2181.84	17.9455
2183.28	18.3554
2184.72	18.6983
2186.15	18.2057
2187.59	17.8083
2189.03	18.1774
2190.47	18.0758
2191.91	18.6835
2193.35	18.7247
2194.78	18.6398
2196.22	19.021
2197.66	18.6421
2199.09	18.6309
2200.53	18.8647
2201.97	18.6466
2203.4	19.1616
2204.84	19.523
2206.27	19.6108
2207.71	18.9925
2209.14	18.9419
2210.58	18.1915
2212.01	18.5123
2213.45	18.2533
2214.88	18.4039
2216.31	17.9147
2217.75	16.9653
2219.18	16.4458
2220.61	16.0834
2222.05	15.8163
2223.48	15.4493
2224.91	14.7002
2226.34	14.5125
2227.78	13.4549
2229.21	13.4379
2230.64	13.4467
2232.07	13.2722
2233.5	13.1015
2234.93	13.4017
2236.36	13.5525
2237.79	13.1717
2239.22	13.0025
2240.65	12.6234
2242.08	12.493
2243.5	12.8009
2244.93	12.1946
2246.36	12.1313
2247.79	12.0297
2249.22	11.5395
2250.64	11.3089
2252.07	11.032
2253.5	10.2834
2254.92	10.2375
2256.35	10.008
2257.78	9.2907
2259.2	9.27559
2260.63	9.32961
2262.05	9.7254
2263.48	10.1398
2264.9	10.3885
2266.33	10.3034
2267.75	10.389
2269.18	10.2683
2270.6	9.94257
2272.02	9.57544
2273.45	9.68567
2274.87	10.5332
2276.29	10.1006
2277.71	9.2332
2279.14	8.36392
2280.56	8.06726
2281.98	7.8182
2283.4	8.28056
2284.82	8.20187
2286.24	7.8186
2287.66	7.05929
2289.08	6.99847
2290.5	6.53343
2291.92	6.0174
2293.34	5.68565
2294.76	5.93627
2296.18	6.43067
2297.6	7.54573
2299.02	7.66431
2300.44	8.77028
2301.86	9.49085
2303.27	9.74487
2304.69	10.3547
2306.11	11.2366
2307.53	10.7524
2308.94	10.5416
2310.36	10.9065
2311.78	10.8524
2313.19	10.3536
2314.61	10.0883
2316.02	9.87292
2317.44	9.78049
2318.85	10.0469
2320.27	10.0687
2321.68	9.5738
2323.1	9.64681
2324.51	9.55993
2325.92	9.95682
2327.34	10.171
2328.75	10.1399
2330.16	10.309
2331.58	10.8007
2332.99	10.3969
2334.4	9.79957
2335.81	9.81635
2337.23	9.64268
2338.64	9.08545
2340.05	8.51802
2341.46	7.8134
2342.87	7.82446
2344.28	7.75174
2345.69	7.33158
2347.1	6.2942
2348.51	5.5535
2349.92	5.35671
2351.33	5.51523
2352.74	5.68723
2354.15	4.74358
2355.55	4.01575
2356.96	3.25351
2358.37	2.82856
2359.78	2.717
2361.19	2.46283
2362.59	2.64696
2364	3.37946
2365.41	3.88001
2366.81	4.09501
2368.22	4.29708
2369.62	2.9926
2371.03	2.89456
2372.44	2.83238
2373.84	2.34748
2375.24	2.26978
2376.65	1.67627
2378.05	0.820099
2379.46	0.73187
2380.86	0.802335
2382.26	0.371421
2383.67	0.161764
2385.07	0.677727
2386.47	1.08824
2387.88	1.06984
2389.28	1.06554
2390.68	0.962615
2392.08	1.15385
2393.48	1.55171
2394.89	1.55941
2396.29	2.22159
2397.69	2.52058
2399.09	2.21441
2400.49	2.28218
2401.89	2.22287
2403.29	2.22143
2404.69	2.92921
2406.09	3.48855
2407.48	3.75924
2408.88	3.71166
2410.28	4.42514
2411.68	4.78562
2413.08	5.2713
2414.48	5.61722
2415.87	5.99402
2417.27	5.96458
2418.67	6.16266
2420.06	6.25142
2421.46	5.84282
2422.86	5.83191
2424.25	5.50528
2425.65	5.54424
2427.04	5.74969
2428.44	5.7249
2429.83	5.97747
2431.23	5.83124
2432.62	6.04488
2434.02	5.95796
2435.41	5.79196
2436.81	5.32427
2438.2	4.69344
2439.59	3.86605
2440.99	4.08599
2442.38	4.36805
2443.77	4.57836
2445.16	4.38041
2446.56	3.43487
2447.95	3.29683
2449.34	3.81052
2450.73	3.39068
2452.12	3.14666
2453.51	2.82503
2454.9	2.6819
2456.29	2.32977
2457.68	2.0141
2459.07	2.06494
2460.46	2.73292
2461.85	2.33114
2463.24	1.67132
2464.63	1.76927
2466.02	1.99608
2467.4	1.66103
2468.79	1.5605
2470.18	1.97612
2471.57	1.57216
2472.95	2.10183
2474.34	1.71108
2475.73	2.0143
2477.12	2.11835
2478.5	1.63509
2479.89	1.56103
2481.27	1.94746
2482.66	1.88776
2484.04	1.30169
2485.43	1.4242
2486.81	0.715516
2488.2	0.627387
2489.58	-0.0379849
2490.97	-0.382031
2492.35	-0.337225
2493.73	-0.587961
2495.12	-0.944122
2496.5	-0.914505
2497.88	-1.37407
2499.27	-1.14118
2500.65	-0.993207
2502.03	-1.47466
2503.41	-1.86704
2504.79	-1.94923
2506.17	-1.44179
2507.56	-1.79871
2508.94	-1.3296
2510.32	-1.07443
2511.7	-0.888552
2513.08	-1.23113
2514.46	-1.75125
2515.84	-1.60551
2517.22	-0.786113
2518.59	-0.452465
2519.97	-0.658639
2521.35	-0.568644
2522.73	-0.31135
2524.11	0.144202
2525.49	0.414746
2526.86	0.591368
2528.24	1.37364
2529.62	1.87851
2530.99	1.27683
2532.37	1.50351
2533.75	1.89018
2535.12	2.0326
2536.5	2.40221
2537.88	2.28761
2539.25	1.97799
2540.63	1.61203
2542	2.32416
2543.38	2.04538
2544.75	2.12696
2546.12	1.86252
2547.5	1.52345
2548.87	2.13908
2550.24	2.59694
2551.62	2.0607
2552.99	2.21463
2554.36	2.17203
2555.74	1.46155
2557.11	1.59767
2558.48	1.66713
2559.85	1.86545
2561.22	1.26902
2562.59	1.33723
2563.96	1.49596
2565.34	1.56273
2566.71	1.88481
2568.08	2.66214
2569.45	2.62675
2570.82	2.35767
2572.18	2.88891
2573.55	2.87519
2574.92	3.22535
2576.29	3.05192
2577.66	3.58809
2579.03	3.48064
2580.4	3.48346
2581.77	3.98779
2583.13	4.35003
2584.5	4.39809
2585.87	4.07764
2587.23	3.83866
2588.6	3.79794
2589.97	3.80299
2591.33	3.7917
2592.7	4.15441
2594.06	4.19734
2595.43	4.50772
2596.79	4.89189
2598.16	4.10766
2599.52	3.79869
2600.89	3.98706
2602.25	3.97832
2603.62	3.79265
2604.98	3.14495
2606.34	2.84958
2607.71	3.08322
2609.07	3.2072
2610.43	3.16284
2611.79	2.81303
2613.16	2.32718
2614.52	2.61854
2615.88	2.55207
2617.24	2.6204
2618.6	2.1704
2619.96	2.4138
2621.32	2.46899
2622.68	1.76482
2624.04	2.06968
2625.4	2.2641
2626.76	2.22563
2628.12	2.01729
2629.48	1.78923
2630.84	2.52271
2632.2	3.05098
2633.56	3.25954
2634.92	3.11813
2636.28	3.08943
2637.63	2.8986
2638.99	3.12372
2640.35	3.58557
2641.71	3.61886
2643.06	3.93617
2644.42	4.07485
2645.77	3.85919
2647.13	3.72414
2648.49	3.65762
2649.84	3.57462
2651.2	2.53195
2652.55	2.05365
2653.91	2.10566
2655.26	2.62961
2656.62	2.92668
2657.97	2.82766
2659.33	2.84567
2660.68	3.87107
2662.03	3.54255
2663.39	4.02183
2664.74	3.94215
2666.09	3.42937
2667.44	3.25527
2668.8	3.05788
2670.15	2.60427
2671.5	1.78534
2672.85	1.52162
2674.2	1.73601
2675.55	1.18091
2676.91	0.758569
2678.26	0.462103
2679.61	0.460562
2680.96	0.667855
2682.31	0.66454
2683.66	0.675933
2685	0.445502
2686.35	0.459555
2687.7	1.12835
2689.05	0.485829
2690.4	0.698718
2691.75	1.78521
2693.1	1.86209
2694.44	2.29573
2695.79	2.55019
2697.14	3.12565
2698.49	3.91207
2699.83	4.45905
2701.18	4.66933
2702.52	5.19561
2703.87	5.92954
2705.22	6.58895
2706.56	7.1409
2707.91	7.13365
2709.25	7.15429
2710.6	7.26173
2711.94	7.5824
2713.29	7.91235
2714.63	8.35433
2715.97	8.50519
2717.32	8.87213
2718.66	9.51442
2720.01	10.3756
2721.35	10.7078
2722.69	10.9265
2724.03	11.4048
2725.38	11.4327
2726.72	11.7525
2728.06	12.2825
2729.4	11.7385
2730.74	11.7403
2732.08	11.282
2733.42	10.9064
2734.76	10.737
2736.1	10.6961
2737.44	10.2675
2738.78	9.60774
2740.12	9.30083
2741.46	9.38579
2742.8	9.1328
2744.14	9.16426
2745.48	9.52565
2746.82	9.21418
2748.16	9.46766
2749.49	9.16931
2750.83	9.40464
2752.17	9.0103
2753.51	8.84363
2754.84	9.38351
2756.18	8.93494
2757.52	9.29819
2758.85	9.79302
2760.19	9.06252
2761.53	8.87128
2762.86	8.77387
2764.2	9.06898
2765.53	8.67785
2766.87	8.46099
2768.2	8.19757
2769.54	7.88959
2770.87	7.92356
2772.2	7.35522
2773.54	6.67148
2774.87	6.19439
2776.2	5.827
2777.54	6.27432
2778.87	6.42168
2780.2	6.71593
2781.53	6.26937
2782.87	6.08847
2784.2	6.40125
2785.53	6.33323
2786.86	6.22353
2788.19	6.06174
2789.52	5.9979
2790.85	6.26181
2792.18	5.85184
2793.51	5.94706
2794.84	5.88292
2796.17	5.43729
2797.5	5.91783
2798.83	5.87482
2800.16	5.59853
2801.49	5.35342
2802.82	5.18227
2804.15	4.83254
2805.47	4.7959
2806.8	4.71551
2808.13	5.34347
2809.46	5.27922
2810.78	5.60294
2812.11	5.93734
2813.44	5.91237
2814.76	6.36128
2816.09	6.09443
2817.42	6.45157
2818.74	6.84196
2820.07	7.75039
2821.39	8.87806
2822.72	9.03684
2824.04	9.61526
2825.37	11.2556
2826.69	11.5151
2828.02	13.1123
2829.34	14.8388
2830.66	16.4576
2831.99	17.8373
2833.31	19.3063
2834.63	20.8963
2835.96	22.3879
2837.28	24.2742
2838.6	25.8563
2839.92	27.6647
2841.24	30.1048
2842.57	32.3514
2843.89	35.1775
2845.21	37.3895
2846.53	40.4891
2847.85	43.1169
2849.17	46.1685
2850.49	49.2465
2851.81	52.4172
2853.13	55.7358
2854.45	58.6277
2855.77	61.5446
2857.09	65.1057
2858.41	67.8069
2859.72	70.5399
2861.04	73.2899
2862.36	75.6527
2863.68	78.396
2865	80.6853
2866.31	83.304
2867.63	85.2265
2868.95	87.0648
2870.26	88.264
2871.58	89.6881
2872.9	91.0467
2874.21	92.493
2875.53	93.8016
2876.84	95.0305
2878.16	96.1782
2879.47	96.7782
2880.79	97.7272
2882.1	99.3631
2883.42	100.54
2884.73	101.134
2886.05	102.406
2887.36	103.334
2888.67	103.73
2889.99	104.728
2891.3	106.026
2892.61	106.407
2893.92	107.784
2895.24	108.841
2896.55	110.062
2897.86	110.465
2899.17	111.589
2900.48	112.829
2901.79	114.419
2903.11	115.764
2904.42	117.478
2905.73	119.315
2907.04	121.868
2908.35	124.366
2909.66	127.676
2910.97	130.863
2912.27	133.718
2913.58	136.823
2914.89	139.452
2916.2	142.419
2917.51	145.16
2918.82	147.574
2920.13	149.974
2921.43	151.978
2922.74	154.084
2924.05	155.204
2925.35	156.329
2926.66	157.012
2927.97	157.389
2929.27	158.386
2930.58	158.639
2931.89	157.849
2933.19	156.829
2934.5	156.164
2935.8	155.332
2937.11	154.397
2938.41	152.915
2939.72	151.035
2941.02	149.221
2942.32	147.649
2943.63	145.441
2944.93	143.195
2946.24	141.168
2947.54	139.265
2948.84	136.41
2950.14	134.565
2951.45	132.306
2952.75	128.84
2954.05	125.862
2955.35	122.763
2956.65	120.416
2957.95	118.048
2959.26	115.906
2960.56	113.416
2961.86	111.005
2963.16	108.395
2964.46	106.359
2965.76	104.074
2967.06	102.585
2968.36	100.44
2969.66	99.182
2970.96	97.7257
2972.25	96.3082
2973.55	94.4431
2974.85	93.1505
2976.15	90.9283
2977.45	88.802
2978.74	87.0778
2980.04	84.6822
2981.34	82.8798
2982.64	80.8447
2983.93	78.8057
2985.23	76.5337
2986.52	73.6678
2987.82	71.2879
2989.12	68.5609
2990.41	65.6717
2991.71	62.6568
2993	59.8612
2994.3	57.8159
2995.59	55.451
2996.89	52.5594
2998.18	50.0586
2999.48	47.4058
3000.77	44.6477
3002.06	41.631
3003.36	39.3837
3004.65	37.467
3005.94	36.0873
3007.23	34.4012
3008.53	32.0358
3009.82	30.5643
3011.11	28.7614
3012.4	27.3895
3013.69	25.5585
3014.99	24.0224
3016.28	22.2233
3017.57	21.2628
3018.86	20.576
3020.15	19.8031
3021.44	19.988
3022.73	19.4628
3024.02	18.835
3025.31	18.2746
3026.6	17.9863
3027.89	17.5593
3029.18	17.5249
3030.46	18.0322
3031.75	17.9797
3033.04	18.4628
3034.33	18.5127
3035.62	18.3422
3036.9	18.5312
3038.19	18.5852
3039.48	19.3635
3040.76	19.3419
3042.05	20.1638
3043.34	20.7378
3044.62	20.9785
3045.91	21.6781
3047.19	21.862
3048.48	22.457
3049.77	22.7885
3051.05	22.9787
3052.34	23.1397
3053.62	23.4027
3054.9	23.2199
3056.19	23.312
3057.47	23.2831
3058.76	23.5524
3060.04	22.9375
3061.32	22.1862
3062.61	21.6329
3063.89	21.0666
3065.17	20.1331
3066.45	19.6862
3067.74	19.3933
3069.02	18.3086
3070.3	17.7376
3071.58	16.6976
3072.86	15.5266
3074.14	14.9265
3075.42	13.7904
3076.7	13.2023
3077.99	12.4004
3079.26	12.106
3080.54	12.2033
3081.82	11.4578
3083.1	10.6499
3084.38	9.97719
3085.66	9.33794
3086.94	8.50147
3088.22	7.80133
3089.5	7.57968
3090.78	6.92111
3092.05	6.79071
3093.33	6.37451
3094.61	5.96623
3095.89	5.34981
3097.16	4.99597
3098.44	4.00473
3099.72	3.76105
3100.99	3.69759
3102.27	3.77576
3103.54	3.80717
3104.82	3.81858
3106.1	4.20737
3107.37	4.50719
3108.65	4.61162
3109.92	5.23154
3111.2	4.96382
3112.47	5.37448
3113.74	5.04981
3115.02	4.86636
3116.29	4.95671
3117.56	5.55906
3118.84	5.35398
3120.11	5.15975
3121.38	4.66682
3122.66	4.49256
3123.93	4.07774
3125.2	3.66909
3126.47	2.92998
3127.74	2.54206
3129.01	1.96378
3130.29	2.17867
3131.56	1.98323
3132.83	1.48073
3134.1	1.55231
3135.37	1.13266
3136.64	0.661463
3137.91	0.767175
3139.18	0.184216
3140.45	-0.00693207
3141.72	-0.619285
3142.99	-1.28099
3144.26	-2.29331
3145.52	-3.20864
3146.79	-4.44473
3148.06	-5.62851
3149.33	-7.42776
