#Acq. time (s)=	45
#Accumulations=	2
#Range (cm-¹)=	200...3150
#Windows=	2
#Auto scanning=	Off
#Autofocus=	Off
#Macrospot=	Off
#AutoExposure=	Off
#Spike filter=	Multiple accum.
#Delay time (s)=	0
#Binning=	1
#Readout mode=	Signal
#DeNoise=	Off
#ICS correction=	On
#Dark correction=	Off
#Inst. Process=	Off
#Detector Gain=	Best Dynamic Range
#Detector ADC=	20 kHz       
#Detector temperature (°C)=	-69.85
#Instrument=	LabRAM HR Evol
#Detector=	Synapse
#Objective=	x100
#Grating=	600 gr/mm
#ND Filter=	100%
#Laser (nm)=	532 
#Hole=	100.021
#Range=	Auto
#Laser Pol.=	No
#Raman. Pol.=	No
#Laser Pol. (°)=	-0.0007625
#Raman Pol. (°)=	89.9995
#Collection=	Microscope
#StageXY=	Marzhauser
#StageZ=	Marzhauser
#X (µm)=	-5913.2
#Y (µm)=	2879.2
#Z (µm)=	-223.8
#Full time(mm:ss)=	3:18
#Project=	
#Sample=	
#Site=	
#Title=	Thy_20_09_23_2x_45s_532 nm_x100_100%_600 gr_mm
#Remark=	
#Date=	29.06.2022 12:16
#Acquired=	29.06.2022 12:16:56
#Base:Fit=	10.08.2022 09:52:02
#Base:Fit=	10.08.2022 09:52:12
#Base:Sub=	10.08.2022 09:54:21
#Filter:Polynom=	16.08.2022 10:24:04
#AxisType[0]=Intens
#AxisUnit[0]=Cnt
#AxisType[1]=Spectr
#AxisUnit[1]=1/cm
200.523	6.10683
202.339	6.1173
204.154	7.89099
205.967	9.65127
207.781	11.2916
209.596	12.4809
211.409	13.4586
213.222	14.9235
215.034	15.3967
216.848	15.7528
218.659	15.7042
220.47	16.184
222.281	17.0831
224.091	17.15
225.903	17.2448
227.713	17.5776
229.522	17.4954
231.331	17.4178
233.14	17.0627
234.948	16.7409
236.756	15.712
238.566	15.2428
240.373	15.1366
242.18	13.9166
243.986	14.2605
245.792	14.541
247.598	13.9519
249.403	14.0563
251.208	13.5101
253.013	13.6639
254.818	12.4702
256.624	12.3073
258.427	12.761
260.231	12.8973
262.034	12.592
263.836	12.8764
265.638	13.0524
267.44	13.0115
269.242	12.3877
271.043	12.8242
272.844	13.9183
274.645	14.0847
276.445	14.1309
278.245	14.1808
280.044	15.5038
281.843	14.98
283.642	15.133
285.44	16.3482
287.238	17.9393
289.036	19.156
290.833	20.9367
292.63	21.5182
294.425	21.954
296.221	22.931
298.017	24.0582
299.813	24.0123
301.608	25.2886
303.403	25.4859
305.198	25.3466
306.992	26.0747
308.786	25.8918
310.579	25.5213
312.371	24.7091
314.163	25.7067
315.956	25.1048
317.748	25.7479
319.54	25.5031
321.331	25.221
323.122	25.1362
324.911	24.3663
326.701	23.4482
328.491	23.3335
330.281	24.3117
332.071	24.2291
333.857	25.1865
335.646	25.1583
337.434	24.8504
339.222	25.4419
341.008	24.3557
342.795	23.5209
344.582	21.3355
346.369	21.0289
348.153	20.6941
349.939	19.6904
351.724	18.3911
353.51	18.1661
355.292	17.3472
357.077	16.3477
358.861	15.33
360.643	15.361
362.426	15.4009
364.21	14.0923
365.99	13.6418
367.773	12.8341
369.555	12.1769
371.335	11.3779
373.116	10.0838
374.897	10.4728
376.676	9.79677
378.456	9.68699
380.236	9.99565
382.014	8.36513
383.793	8.77865
385.57	8.34441
387.349	7.25684
389.127	5.25035
390.903	4.16963
392.681	3.84467
394.456	3.02902
396.233	2.22906
398.007	0.714378
399.784	0.809699
401.56	1.23189
403.333	2.71
405.108	1.20639
406.881	2.16421
408.656	1.46096
410.428	1.86684
412.202	1.82631
413.973	1.48306
415.746	1.9338
417.517	2.88289
419.29	4.50347
421.06	4.11817
422.831	4.52822
424.601	4.64673
426.37	4.31852
428.141	5.3361
429.909	4.2024
431.679	4.75779
433.447	4.65986
435.216	5.76055
436.983	6.64564
438.75	6.10543
440.519	6.62029
442.285	6.76759
444.052	6.01802
445.818	6.19623
447.583	5.38047
449.349	5.96262
451.114	6.22873
452.878	6.02123
454.643	6.19207
456.407	6.34394
458.169	6.73485
459.934	6.93567
461.696	7.34462
463.458	8.89398
465.222	9.32096
466.983	10.2781
468.744	9.75233
470.507	9.96889
472.267	10.9352
474.027	10.909
475.787	11.4465
477.548	11.6212
479.307	12.3804
481.065	12.9019
482.823	13.1262
484.583	14.0034
486.341	14.0595
488.098	14.6694
489.855	15.0077
491.612	15.6974
493.37	15.3223
495.126	16.359
496.881	15.7394
498.636	15.7363
500.391	14.8306
502.148	14.6932
503.902	14.5318
505.656	14.9859
507.409	15.0745
509.162	14.5723
510.915	14.2668
512.668	13.6965
514.42	13.7646
516.174	14.0591
517.925	13.517
519.676	13.9158
521.427	13.341
523.178	12.9764
524.928	12.047
526.678	11.0737
528.427	10.1975
530.176	8.97748
531.925	7.59095
533.673	6.89141
535.422	6.28515
537.169	7.25938
538.917	7.1228
540.664	6.21481
542.411	5.41568
544.157	5.01044
545.903	4.83843
547.649	4.95619
549.395	5.21015
551.14	4.99643
552.884	5.30532
554.629	5.06666
556.373	4.98771
558.117	5.97669
559.86	5.43285
561.603	5.01236
563.346	5.33725
565.089	4.39405
566.831	4.14704
568.573	4.70374
570.314	5.06476
572.053	4.53719
573.794	3.83851
575.534	2.91802
577.274	2.73534
579.014	2.93084
580.754	3.29969
582.493	3.25905
584.23	2.01087
585.968	1.93319
587.706	1.84839
589.444	1.6243
591.181	1.39519
592.919	1.23336
594.653	1.5765
596.39	1.0478
598.126	1.49116
599.862	2.19418
601.595	2.99783
603.33	3.57293
605.065	4.27615
606.8	3.43344
608.532	3.92802
610.266	3.68698
611.999	4.19138
613.732	4.13508
615.463	3.63238
617.196	3.76893
618.928	3.58792
620.66	4.59955
622.389	5.4415
624.12	5.89582
625.851	5.57065
627.58	5.8592
629.31	6.09191
631.04	6.55598
632.767	6.60424
634.497	7.01803
636.223	6.9356
637.952	6.57862
639.68	7.24118
641.406	7.66553
643.134	7.58445
644.861	7.3321
646.586	6.33278
648.312	7.00113
650.037	7.63398
651.762	7.60037
653.486	8.08009
655.211	9.09751
656.936	9.39303
658.659	9.49873
660.383	10.5912
662.105	11.3675
663.829	13.2587
665.55	14.3632
667.273	14.5873
668.994	14.925
670.716	14.3986
672.436	15.4171
674.158	16.3271
675.877	17.0801
677.598	17.7707
679.317	18.7803
681.035	19.6685
682.755	19.7163
684.473	20.538
686.192	21.1249
687.909	20.7195
689.628	21.2256
691.344	21.0444
693.06	20.8795
694.778	21.9131
696.493	20.6263
698.211	20.6052
699.925	20.5093
701.64	21.5544
703.356	22.1004
705.07	22.131
706.783	22.6781
708.498	22.8073
710.211	23.3665
711.924	23.9344
713.638	24.3406
715.35	24.1469
717.061	23.9904
718.774	24.8623
720.485	25.0458
722.196	26.0954
723.906	27.1545
725.618	27.779
727.328	27.9701
729.037	29.214
730.746	29.6572
732.456	30.4997
734.165	31.8631
735.873	33.8701
737.58	35.8463
739.289	36.9621
740.997	38.6073
742.703	40.1622
744.41	42.2054
746.116	43.3338
747.823	45.0726
749.529	46.5905
751.234	47.3728
752.938	47.9623
754.643	49.91
756.347	51.5571
758.051	53.4506
759.756	54.608
761.459	55.4502
763.162	55.9932
764.865	56.6381
766.567	55.6516
768.269	56.3244
769.97	56.6699
771.671	56.7186
773.372	57.1787
775.073	58.4504
776.773	58.7752
778.473	59.5089
780.174	59.2792
781.874	59.0257
783.573	59.8098
785.271	60.0023
786.97	61.4386
788.668	61.6587
790.365	61.5823
792.063	62.7527
793.76	64.0359
795.456	64.41
797.153	64.7558
798.847	64.3692
800.543	64.3078
802.238	64.6007
803.933	64.9878
805.628	65.5253
807.322	65.5992
809.017	65.2077
810.71	64.8939
812.404	64.7126
814.097	65.6005
815.79	65.1687
817.483	65.6782
819.173	66.2615
820.865	66.4033
822.556	66.9393
824.248	66.1936
825.939	67.2585
827.629	67.1243
829.318	66.9286
831.008	66.5587
832.697	66.8319
834.387	66.8288
836.076	66.4126
837.765	66.2243
839.451	66.7593
841.139	65.7309
842.827	64.6341
844.514	63.9435
846.2	63.1017
847.886	61.5694
849.573	59.992
851.259	58.6121
852.943	58.6123
854.629	57.5701
856.314	56.0925
857.997	55.7306
859.682	54.4317
861.366	53.7513
863.05	51.9798
864.732	50.8127
866.415	49.9306
868.098	50.1092
869.779	50.4371
871.461	50.6121
873.141	49.4811
874.823	48.0141
876.505	47.952
878.184	46.7441
879.865	45.2908
881.545	44.5597
883.223	43.9915
884.903	43.26
886.581	42.4025
888.26	42.2504
889.937	41.8936
891.616	40.0071
893.294	40.5542
894.97	39.6778
896.648	39.3846
898.323	40.0643
900	40.3916
901.675	40.4336
903.351	40.4809
905.026	41.019
906.701	41.7439
908.375	40.2173
910.05	39.8199
911.723	38.6278
913.398	39.3379
915.07	38.7586
916.742	38.4317
918.415	37.3477
920.087	36.4441
921.76	36.3025
923.43	35.78
925.103	36.0261
926.773	36.4877
928.443	35.3085
930.114	34.8924
931.783	34.5031
933.454	34.6383
935.123	34.1687
936.791	33.91
938.461	33.5675
940.128	32.9098
941.796	33.1653
943.464	32.9478
945.131	31.9989
946.797	31.1004
948.465	31.1166
950.131	31.5461
951.797	33.0322
953.462	31.514
955.128	30.585
956.793	30.028
958.457	29.1109
960.121	28.521
961.786	27.1358
963.45	28.058
965.113	28.9184
966.775	28.7929
968.44	28.7495
970.102	29.718
971.763	30.6527
973.425	30.4346
975.086	30.3647
976.748	31.8298
978.409	31.3942
980.069	32.36
981.729	32.8738
983.388	33.8014
985.048	33.7006
986.708	33.4834
988.367	33.3918
990.025	33.1021
991.683	32.043
993.341	31.5393
994.998	31.4263
996.655	32.2193
998.312	31.9505
999.969	32.6467
1001.62	33.0065
1003.28	33.2406
1004.94	32.8783
1006.59	32.675
1008.25	33.1055
1009.9	32.9404
1011.56	32.4844
1013.21	32.549
1014.86	33.1733
1016.52	32.4626
1018.17	31.3141
1019.82	30.3528
1021.48	29.2416
1023.13	27.9146
1024.78	27.4348
1026.43	25.857
1028.08	24.3249
1029.73	24.4186
1031.38	24.1439
1033.03	23.6449
1034.68	22.3303
1036.33	20.8461
1037.98	20.0844
1039.63	18.9018
1041.28	18.3325
1042.93	17.1685
1044.57	17.9693
1046.22	18.9329
1047.87	17.4846
1049.52	16.9777
1051.16	17.6391
1052.81	17.4664
1054.45	17.1872
1056.1	17.1225
1057.75	17.1468
1059.39	16.7038
1061.04	15.9002
1062.68	16.3381
1064.32	17.3678
1065.97	17.3986
1067.61	17.9434
1069.25	17.0143
1070.9	17.2403
1072.54	17.1069
1074.18	17.2902
1075.82	18.2908
1077.47	20.3101
1079.11	20.7989
1080.75	20.2122
1082.39	19.9221
1084.03	20.2306
1085.67	20.1135
1087.31	20.432
1088.95	21.5074
1090.59	21.8442
1092.22	22.6104
1093.86	23.1903
1095.5	22.9824
1097.14	23.3479
1098.78	22.8315
1100.41	22.4149
1102.05	22.7081
1103.69	23.0152
1105.32	23.2436
1106.96	23.4797
1108.59	22.7412
1110.23	22.441
1111.86	22.7687
1113.5	22.5
1115.13	22.3005
1116.77	22.8974
1118.4	22.9778
1120.03	21.148
1121.67	20.9863
1123.3	20.1124
1124.93	19.2005
1126.56	19.6465
1128.19	18.1898
1129.83	17.467
1131.46	17.1218
1133.09	16.76
1134.72	16.1748
1136.35	15.8877
1137.98	15.116
1139.61	14.0655
1141.24	13.071
1142.86	12.8668
1144.49	12.9892
1146.12	12.7985
1147.75	11.059
1149.38	10.2718
1151	8.91846
1152.63	8.58087
1154.26	7.84214
1155.88	7.48234
1157.51	5.92352
1159.14	5.04407
1160.76	3.65082
1162.39	3.3286
1164.01	3.39978
1165.63	2.50007
1167.26	2.18763
1168.88	2.74391
1170.51	3.31774
1172.13	3.61978
1173.75	4.03868
1175.38	4.76098
1177	4.57394
1178.62	5.95612
1180.24	6.07609
1181.86	6.68884
1183.48	6.94217
1185.1	7.11786
1186.72	8.16001
1188.34	9.93492
1189.96	11.463
1191.58	13.5358
1193.2	14.9844
1194.82	16.2883
1196.44	18.2078
1198.06	20.3097
1199.68	20.9329
1201.29	20.9801
1202.91	22.1508
1204.53	23.4113
1206.14	25.2108
1207.76	27.0565
1209.38	28.2846
1210.99	29.9362
1212.61	31.059
1214.22	34.1975
1215.84	36.7488
1217.45	38.4368
1219.07	40.7761
1220.68	42.8821
1222.29	45.3338
1223.91	46.9142
1225.52	48.4235
1227.13	49.5037
1228.74	50.2967
1230.36	50.9592
1231.97	52.1658
1233.58	52.6566
1235.19	54.3003
1236.8	54.2525
1238.41	54.6835
1240.02	55.8637
1241.63	56.4545
1243.24	57.1621
1244.85	57.7086
1246.46	57.9702
1248.07	59.4052
1249.67	60.3011
1251.28	61.5534
1252.89	61.9033
1254.5	62.7825
1256.1	63.5331
1257.71	63.3906
1259.32	64.7043
1260.92	65.2479
1262.53	64.9221
1264.13	65.5508
1265.74	67.0953
1267.34	69.429
1268.95	70.3652
1270.55	69.3809
1272.15	70.2595
1273.76	70.154
1275.36	71.0846
1276.97	71.7859
1278.57	72.555
1280.17	72.4614
1281.77	72.0292
1283.37	73.9727
1284.97	74.984
1286.58	75.5725
1288.18	76.8133
1289.78	77.719
1291.38	78.4175
1292.98	80.2721
1294.58	81.9461
1296.18	83.6137
1297.78	83.2432
1299.37	84.3067
1300.97	84.3632
1302.57	83.5836
1304.17	83.6425
1305.77	84.4384
1307.36	85.2189
1308.96	85.5206
1310.55	85.975
1312.15	87.2094
1313.75	87.2579
1315.34	87.1114
1316.94	87.1579
1318.53	88.044
1320.13	88.5018
1321.72	88.6399
1323.32	89.0354
1324.91	89.056
1326.5	89.3386
1328.1	90.4181
1329.69	91.1196
1331.28	91.3478
1332.87	89.4725
1334.47	88.7119
1336.06	88.054
1337.65	87.497
1339.24	87.199
1340.83	86.0969
1342.42	84.8103
1344.01	84.7401
1345.6	83.7446
1347.19	82.2237
1348.78	80.6977
1350.37	79.0093
1351.96	78.2597
1353.54	77.7397
1355.13	76.7357
1356.72	74.4033
1358.31	73.4529
1359.89	72.4583
1361.48	71.3444
1363.07	70.7474
1364.65	68.4871
1366.24	67.7199
1367.82	67.1928
1369.41	66.0796
1370.99	64.45
1372.58	62.1871
1374.16	59.895
1375.75	58.7173
1377.33	56.578
1378.91	55.5529
1380.5	54.0573
1382.08	53.2915
1383.66	53.7827
1385.25	53.2397
1386.83	52.2858
1388.41	51.5665
1389.99	50.8674
1391.57	50.2134
1393.15	49.3066
1394.73	49.0129
1396.31	49.3686
1397.89	48.8636
1399.47	48.4441
1401.05	47.6796
1402.63	48.1263
1404.21	47.9971
1405.78	47.7557
1407.36	47.3349
1408.94	46.8306
1410.52	45.7567
1412.1	47.1737
1413.67	48.7221
1415.25	50.9631
1416.82	52.6913
1418.4	54.7832
1419.98	56.6648
1421.55	58.7751
1423.13	61.3042
1424.7	63.8805
1426.28	66.4064
1427.85	70.0919
1429.42	72.6417
1431	75.9769
1432.57	79.2381
1434.14	81.325
1435.71	84.2545
1437.29	87.5352
1438.86	89.9644
1440.43	91.7018
1442	93.1098
1443.57	94.5582
1445.14	96.0898
1446.71	96.7713
1448.28	96.6531
1449.85	96.7737
1451.42	96.0232
1452.99	96.0394
1454.56	96.4516
1456.13	95.8218
1457.7	95.3427
1459.26	94.6269
1460.83	93.3202
1462.4	91.5745
1463.97	89.3259
1465.54	86.3182
1467.1	83.8043
1468.67	80.0322
1470.23	76.5867
1471.8	72.9082
1473.36	69.8049
1474.93	66.2808
1476.49	62.5922
1478.06	58.137
1479.62	54.8584
1481.19	51.715
1482.75	46.8168
1484.31	44.0309
1485.88	39.7629
1487.44	36.8996
1489	35.3863
1490.56	34.5776
1492.13	31.6774
1493.69	30.2784
1495.25	28.4755
1496.81	27.1205
1498.37	26.6438
1499.93	25.9516
1501.49	25.8231
1503.05	25.36
1504.61	25.1471
1506.17	25.0151
1507.73	24.9478
1509.28	24.5385
1510.84	24.7728
1512.4	24.3559
1513.96	23.912
1515.52	23.0265
1517.07	23.6398
1518.63	24.6255
1520.19	24.7052
1521.74	25.7389
1523.3	26.7296
1524.85	27.4963
1526.41	28.2867
1527.96	29.0304
1529.52	29.1795
1531.07	29.7913
1532.63	31.4
1534.18	32.1182
1535.73	32.9699
1537.29	33.0688
1538.84	33.5987
1540.39	33.4021
1541.94	34.7118
1543.5	35.3135
1545.05	36.5079
1546.6	36.8723
1548.15	38.8992
1549.7	41.1456
1551.25	43.146
1552.8	43.931
1554.35	45.407
1555.9	46.8675
1557.45	48.4866
1559	49.9197
1560.55	51.2137
1562.1	52.9619
1563.65	53.907
1565.19	57.2293
1566.74	60.3452
1568.29	61.8816
1569.83	63.6409
1571.38	65.7106
1572.93	67.5562
1574.47	69.7493
1576.02	72.2841
1577.56	73.43
1579.11	76.3566
1580.66	78.5412
1582.2	79.598
1583.74	81.6548
1585.29	83.4646
1586.83	84.5186
1588.38	86.1558
1589.92	85.6129
1591.46	86.9563
1593.01	87.7652
1594.55	88.6653
1596.09	88.7395
1597.63	88.4892
1599.17	88.226
1600.71	87.1982
1602.25	87.0807
1603.79	86.2981
1605.34	85.1551
1606.88	83.8975
1608.41	81.9042
1609.95	80.8736
1611.49	79.1739
1613.03	77.7222
1614.57	75.6825
1616.11	74.2725
1617.65	72.5046
1619.18	72.4991
1620.72	71.3525
1622.26	70.6983
1623.79	70.416
1625.33	70.2121
1626.87	69.9
1628.4	69.4566
1629.94	68.8886
1631.48	69.2143
1633.01	69.68
1634.55	68.9604
1636.08	69.203
1637.61	68.5617
1639.15	68.8991
1640.68	69.9797
1642.21	70.5428
1643.75	71.7513
1645.28	72.6395
1646.81	73.2363
1648.34	73.556
1649.88	74.5091
1651.41	75.944
1652.94	77.1483
1654.47	77.5536
1656	78.1925
1657.53	78.5496
1659.06	78.0652
1660.59	77.9181
1662.12	77.6038
1663.65	77.223
1665.18	76.7069
1666.71	75.3079
1668.24	75.0772
1669.76	73.8958
1671.29	73.194
1672.82	72.0826
1674.35	69.7814
1675.87	67.978
1677.4	66.0408
1678.93	64.2978
1680.45	61.5707
1681.98	58.7105
1683.5	56.4036
1685.03	53.4061
1686.55	51.2409
1688.08	48.6094
1689.6	45.8311
1691.13	43.6869
1692.65	42.3316
1694.17	39.6334
1695.7	38.2664
1697.22	36.4344
1698.74	34.0317
1700.27	32.3643
1701.79	29.8538
1703.31	28.3282
1704.83	26.2306
1706.35	24.0562
1707.87	22.5835
1709.39	20.6916
1710.91	18.3731
1712.43	17.4384
1713.95	15.611
1715.47	14.4575
1716.99	13.7843
1718.51	13.0603
1720.03	11.7665
1721.55	9.71865
1723.07	7.91481
1724.58	6.87549
1726.1	6.05053
1727.62	5.70804
1729.13	4.78554
1730.65	4.22274
1732.17	3.44606
1733.68	3.19194
1735.2	2.00748
1736.72	2.16812
1738.23	2.9174
1739.74	2.51094
1741.26	2.18127
1742.77	2.02914
1744.29	1.80407
1745.8	1.23545
1747.32	1.27089
1748.83	0.507647
1750.34	-0.491541
1751.85	0.332523
1753.37	0.343331
1754.88	1.10556
1756.39	1.02506
1757.9	0.779971
1759.41	0.914404
1760.92	1.00409
1762.44	1.51769
1763.95	1.68179
1765.46	2.11448
1766.96	2.79261
1768.47	2.48355
1769.98	2.03859
1771.49	2.20317
1773	2.0072
1774.51	2.09518
1776.02	2.90054
1777.53	2.63181
1779.03	2.91905
1780.54	2.96696
1782.05	3.06469
1783.55	3.00483
1785.06	3.12571
1786.57	3.11509
1788.07	3.04376
1789.58	2.44997
1791.08	2.97419
1792.59	3.26994
1794.09	2.86589
1795.6	2.243
1797.1	2.69307
1798.61	3.02839
1800.11	3.55406
1801.61	3.53352
1803.12	4.03762
1804.62	3.65149
1806.12	3.46509
1807.62	3.27937
1809.12	3.25305
1810.63	3.37496
1812.13	3.84852
1813.63	3.60896
1815.13	2.9975
1816.63	2.77021
1818.13	2.57215
1819.63	2.13574
1821.13	2.0185
1822.63	2.42542
1824.13	2.03327
1825.63	2.11746
1827.13	2.66144
1828.62	2.66689
1830.12	2.8129
1831.62	2.66653
1833.12	3.30804
1834.61	4.0042
1836.11	4.23645
1837.61	3.72652
1839.1	3.21913
1840.6	2.78064
1842.09	2.2081
1843.59	2.31502
1845.09	2.58979
1846.58	2.87269
1848.08	3.25201
1849.57	3.45566
1851.06	3.34543
1852.56	2.59967
1854.05	2.4921
1855.54	2.3605
1857.04	2.66582
1858.53	2.94323
1860.02	3.71886
1861.51	3.48813
1863.01	2.98942
1864.5	2.81292
1865.99	2.67351
1867.48	2.61698
1868.97	2.35886
1870.46	1.89695
1871.95	2.50642
1873.44	2.08574
1874.93	2.10574
1876.42	1.46328
1877.91	1.20947
1879.4	0.76726
1880.89	1.15556
1882.37	0.968454
1882.46	0.611589
1883.95	0.485901
1885.45	0.619686
1886.94	0.227898
1888.43	0.611528
1889.93	0.996462
1891.42	1.20675
1892.91	1.58116
1894.41	2.20487
1895.9	3.06423
1897.39	3.33902
1898.88	3.72333
1900.37	4.34134
1901.86	4.95745
1903.36	5.18838
1904.85	5.07095
1906.34	5.48337
1907.83	5.95211
1909.32	5.9476
1910.81	5.873
1912.29	5.74112
1913.78	5.8481
1915.27	6.17655
1916.76	6.23375
1918.25	6.37646
1919.74	5.72031
1921.23	5.0611
1922.71	4.48193
1924.2	5.09236
1925.69	5.41116
1927.17	5.82609
1928.66	6.56044
1930.15	7.00648
1931.63	6.7339
1933.12	6.01181
1934.6	5.3746
1936.09	5.54738
1937.57	5.60484
1939.06	4.87552
1940.54	4.79529
1942.02	4.45776
1943.51	4.2346
1944.99	3.83266
1946.47	2.7072
1947.96	2.90862
1949.44	2.76895
1950.92	2.59602
1952.4	2.22721
1953.88	2.19432
1955.37	1.97796
1956.85	1.67235
1958.33	2.03735
1959.81	2.33052
1961.29	2.51687
1962.77	3.24478
1964.25	3.33277
1965.73	3.10987
1967.21	3.3506
1968.69	3.29099
1970.16	3.71671
1971.64	3.66289
1973.12	3.14595
1974.6	3.28614
1976.08	3.1479
1977.55	3.05895
1979.03	3.42303
1980.51	3.59965
1981.98	3.75762
1983.46	3.58295
1984.94	3.66039
1986.41	3.80164
1987.89	4.54408
1989.36	4.61784
1990.84	4.5004
1992.31	4.93085
1993.79	5.18825
1995.26	5.67112
1996.73	6.28373
1998.21	7.55601
1999.68	7.58602
2001.15	7.9807
2002.63	8.20387
2004.1	7.71907
2005.57	7.01104
2007.04	6.84436
2008.51	7.32941
2009.99	7.00476
2011.46	6.23336
2012.93	5.97399
2014.4	6.18199
2015.87	6.29792
2017.34	6.32577
2018.81	6.73447
2020.28	6.738
2021.75	6.76426
2023.21	6.31231
2024.68	5.57672
2026.15	5.19277
2027.62	5.07902
2029.09	5.48819
2030.56	5.25107
2032.02	6.21835
2033.49	5.93553
2034.96	5.85657
2036.42	5.91989
2037.89	5.99167
2039.36	5.76013
2040.82	6.1052
2042.29	5.84987
2043.75	6.60204
2045.22	6.94395
2046.68	6.73877
2048.14	7.52357
2049.61	7.84547
2051.07	8.50848
2052.54	9.2262
2054	9.41715
2055.46	10.3362
2056.93	11.7288
2058.39	12.4086
2059.85	12.2402
2061.31	12.1657
2062.77	11.9663
2064.23	12.3192
2065.7	13.051
2067.16	13.4197
2068.62	13.6831
2070.08	13.7861
2071.54	14.4233
2073	14.3461
2074.46	14.5672
2075.92	14.3099
2077.38	14.2035
2078.83	14.893
2080.29	15.7215
2081.75	16.4982
2083.21	16.7582
2084.67	16.9476
2086.12	17.0504
2087.58	16.5514
2089.04	16.7648
2090.49	16.359
2091.95	16.0352
2093.41	15.8355
2094.86	16.205
2096.32	16.1903
2097.77	16.1866
2099.23	15.9825
2100.68	16.329
2102.14	16.7151
2103.59	16.8958
2105.05	16.8771
2106.5	16.7003
2107.95	17.5823
2109.41	17.9291
2110.86	18.1593
2112.31	18.9364
2113.76	19.77
2115.21	20.0429
2116.67	20.8065
2118.12	21.3821
2119.57	21.418
2121.02	22.0194
2122.47	23.3062
2123.92	24.3269
2125.37	25.3738
2126.82	25.7349
2128.27	27.1588
2129.72	28.2704
2131.17	28.6193
2132.62	29.2786
2134.07	30.9285
2135.51	32.2984
2136.96	34.0072
2138.41	35.4465
2139.86	36.9548
2141.31	38.2227
2142.75	39.5886
2144.2	41.2575
2145.65	42.3872
2147.09	43.8226
2148.54	45.0121
2149.98	46.1935
2151.43	47.2438
2152.87	47.582
2154.32	48.0707
2155.76	48.3596
2157.21	48.7626
2158.65	49.4998
2160.1	50.571
2161.54	51.8381
2162.98	52.703
2164.43	54.4848
2165.87	55.0193
2167.31	55.1249
2168.75	55.1176
2170.2	55.1549
2171.64	55.4844
2173.08	55.8527
2174.52	55.7786
2175.96	55.3868
2177.4	55.054
2178.84	55.5137
2180.28	54.9154
2181.72	53.9632
2183.16	53.068
2184.6	52.0414
2186.04	50.3067
2187.48	48.7008
2188.92	47.6708
2190.36	47.0293
2191.79	45.7883
2193.23	44.9084
2194.67	43.8429
2196.11	41.9035
2197.54	40.3466
2198.98	39.0058
2200.42	37.81
2201.85	36.12
2203.29	35.3555
2204.72	33.8876
2206.16	32.7349
2207.59	31.7813
2209.03	31.5905
2210.46	30.2524
2211.9	29.3368
2213.33	28.2273
2214.77	27.0133
2216.2	26.0287
2217.63	24.9524
2219.07	24.0184
2220.5	23.2047
2221.93	22.6752
2223.36	22.586
2224.8	22.6262
2226.23	22.8328
2227.66	23.5269
2229.09	23.6234
2230.52	24.0399
2231.95	24.3573
2233.39	24.1911
2234.81	24.2775
2236.25	24.0394
2237.67	22.6091
2239.1	23.6817
2240.53	23.2918
2241.96	22.7042
2243.39	23.0249
2244.82	22.518
2246.25	22.5485
2247.68	22.1079
2249.1	22.338
2250.53	21.6416
2251.96	20.6326
2253.38	20.2214
2254.81	20.3436
2256.24	20.258
2257.66	19.7349
2259.09	19.6189
2260.51	19.2958
2261.94	18.5556
2263.36	17.8479
2264.79	16.9605
2266.21	16.0705
2267.64	15.662
2269.06	15.1716
2270.49	14.5259
2271.91	14.258
2273.33	13.9327
2274.76	13.9384
2276.18	13.2588
2277.6	13.6976
2279.02	13.9944
2280.44	13.6481
2281.87	13.3446
2283.29	13.4944
2284.71	13.7916
2286.13	13.6539
2287.55	13.4848
2288.97	13.1344
2290.39	12.7079
2291.81	12.6951
2293.23	12.8723
2294.65	13.329
2296.07	13.5156
2297.49	13.8478
2298.91	14.1881
2300.33	13.7017
2301.74	13.9253
2303.16	14.2122
2304.58	13.8652
2306	13.4736
2307.41	13.1722
2308.83	13.4956
2310.25	14.0548
2311.66	13.4372
2313.08	13.4565
2314.5	13.8868
2315.91	13.4026
2317.33	13.6097
2318.74	12.7996
2320.16	12.4899
2321.57	12.4184
2322.98	12.3485
2324.4	12.2118
2325.81	12.2221
2327.23	11.6117
2328.64	11.175
2330.05	10.5309
2331.46	9.55164
2332.88	8.99782
2334.29	8.26482
2335.7	7.6608
2337.11	7.44811
2338.52	7.49885
2339.94	7.05567
2341.35	6.80756
2342.76	7.05224
2344.17	5.98256
2345.58	5.7821
2346.99	5.14931
2348.4	4.55377
2349.81	4.19977
2351.22	3.73581
2352.62	3.40157
2354.03	2.72455
2355.44	2.12788
2356.85	1.00152
2358.26	0.480452
2359.67	0.234482
2361.07	-0.0201522
2362.48	0.544411
2363.89	0.570301
2365.29	1.2851
2366.7	1.36198
2368.11	1.16216
2369.51	1.4445
2370.92	1.37853
2372.32	1.74821
2373.73	2.23826
2375.13	1.94816
2376.54	2.29071
2377.94	1.94435
2379.35	2.46342
2380.75	2.57656
2382.15	2.47947
2383.56	2.50323
2384.96	3.02839
2386.36	3.0256
2387.76	3.46742
2389.17	3.00062
2390.57	3.37841
2391.97	4.15654
2393.37	4.16405
2394.77	4.23321
2396.17	4.9509
2397.58	5.17616
2398.98	4.501
2400.38	4.30484
2401.78	4.84248
2403.18	5.70709
2404.58	5.70791
2405.97	6.14744
2407.37	5.87915
2408.77	6.05971
2410.17	5.66063
2411.57	4.81317
2412.97	4.36528
2414.37	3.97223
2415.76	4.11014
2417.16	4.33731
2418.56	4.61946
2419.95	4.4863
2421.35	4.48146
2422.75	4.22588
2424.14	3.87775
2425.54	3.83804
2426.93	4.69713
2428.33	4.57299
2429.72	3.87879
2431.12	4.03567
2432.51	3.90078
2433.91	3.6116
2435.3	3.98353
2436.7	3.76888
2438.09	4.11519
2439.48	4.39652
2440.88	4.14181
2442.27	4.41874
2443.66	4.40689
2445.05	3.60385
2446.44	3.66283
2447.84	3.58343
2449.23	4.60983
2450.62	4.68821
2452.01	4.44145
2453.4	4.41885
2454.79	4.01687
2456.18	3.56013
2457.57	3.40845
2458.96	3.15841
2460.35	3.77961
2461.74	4.03623
2463.13	3.5986
2464.52	2.99822
2465.91	3.07477
2467.29	2.73641
2468.68	2.52215
2470.07	3.22419
2471.46	3.29529
2472.85	3.08595
2474.23	2.18442
2475.62	1.83004
2477.01	1.18154
2478.39	1.15177
2479.78	0.436663
2481.16	0.517805
2482.55	1.13991
2483.93	1.32249
2485.32	1.19684
2486.7	1.25876
2488.09	0.812921
2489.47	0.0192825
2490.86	0.295163
2492.24	-0.289063
2493.62	0.0394375
2495.01	0.501894
2496.39	0.412388
2497.77	-0.619009
2499.15	-0.638684
2500.54	0.0441848
2501.92	0.406373
2503.3	0.912445
2504.68	1.07576
2506.06	1.43561
2507.45	1.95243
2508.83	2.17168
2510.21	2.77991
2511.59	3.45485
2512.97	3.68866
2514.35	4.08625
2515.73	4.488
2517.11	4.80585
2518.48	4.92694
2519.86	4.95185
2521.24	5.1877
2522.62	4.73829
2524	4.5742
2525.38	4.56992
2526.75	4.71213
2528.13	5.04623
2529.51	5.04326
2530.89	4.85218
2532.26	4.62278
2533.64	5.13141
2535.02	5.71049
2536.39	5.736
2537.77	5.33998
2539.14	5.36776
2540.52	5.39134
2541.89	5.2077
2543.27	4.98505
2544.64	5.24452
2546.01	5.45063
2547.39	5.3104
2548.76	5.184
2550.14	5.37255
2551.51	5.15489
2552.88	4.78899
2554.25	3.88907
2555.63	3.90241
2557	4.10104
2558.37	3.80714
2559.74	4.60559
2561.11	4.39113
2562.49	4.71691
2563.86	4.21067
2565.23	3.63606
2566.6	3.47828
2567.97	3.66604
2569.34	4.35625
2570.71	4.28143
2572.08	3.95533
2573.45	3.72588
2574.82	3.68761
2576.18	3.38143
2577.55	3.57351
2578.92	3.46674
2580.29	3.37343
2581.66	3.14357
2583.02	2.72279
2584.39	2.41294
2585.76	2.56355
2587.13	2.3034
2588.49	2.07548
2589.86	1.29731
2591.22	1.16885
2592.59	1.04794
2593.96	1.06542
2595.32	1.49057
2596.69	1.61536
2598.05	1.68735
2599.42	1.90374
2600.78	1.86918
2602.14	2.47402
2603.51	2.85392
2604.87	2.71131
2606.23	2.90378
2607.6	3.09236
2608.96	2.91583
2610.32	2.71712
2611.69	3.10989
2613.05	3.74212
2614.41	3.39991
2615.77	3.70853
2617.13	3.97607
2618.49	4.51923
2619.86	4.35252
2621.22	4.53795
2622.58	4.9137
2623.94	6.13923
2625.3	5.84417
2626.66	5.39297
2628.02	4.96035
2629.37	4.04243
2630.73	3.57119
2632.09	3.19283
2633.45	3.12853
2634.81	3.68315
2636.17	3.24058
2637.53	3.35657
2638.88	2.99419
2640.24	2.99861
2641.6	2.82327
2642.96	2.88751
2644.31	2.93697
2645.67	3.30559
2647.02	3.88668
2648.38	3.81775
2649.74	3.67321
2651.09	3.22719
2652.45	3.6757
2653.8	4.11127
2655.16	3.91772
2656.51	3.53921
2657.86	3.53854
2659.22	3.74013
2660.57	3.46374
2661.93	4.05033
2663.28	4.62885
2664.63	4.68276
2665.98	4.54552
2667.34	4.37024
2668.69	4.41636
2670.04	4.60326
2671.39	4.19832
2672.75	3.73079
2674.09	3.78399
2675.45	3.81011
2676.8	4.27349
2678.15	4.33905
2679.5	5.08787
2680.85	5.11247
2682.2	4.94567
2683.55	5.34342
2684.9	4.91167
2686.25	4.98006
2687.6	4.49978
2688.94	4.93167
2690.29	4.23955
2691.64	3.95035
2692.99	3.38138
2694.34	3.66547
2695.68	3.53459
2697.03	3.86374
2698.38	3.97119
2699.73	4.43459
2701.07	4.6471
2702.42	4.64154
2703.76	4.40375
2705.11	5.39596
2706.45	5.63381
2707.8	5.83173
2709.15	5.44692
2710.49	5.97825
2711.83	6.27079
2713.18	7.08105
2714.52	7.73193
2715.87	7.42534
2717.21	7.60004
2718.55	7.66474
2719.9	8.06545
2721.24	8.29525
2722.58	8.40331
2723.93	8.12444
2725.27	7.94788
2726.61	8.31204
2727.95	8.69648
2729.29	8.61031
2730.63	8.31537
2731.98	7.9373
2733.32	7.74869
2734.66	7.73311
2736	7.94962
2737.34	7.65377
2738.68	7.39702
2740.02	7.70036
2741.36	7.9577
2742.7	7.2125
2744.03	7.02237
2745.37	6.55375
2746.71	6.78816
2748.05	6.13693
2749.39	5.68107
2750.72	5.45227
2752.06	5.0127
2753.4	4.80768
2754.74	4.89874
2756.07	4.66675
2757.41	4.10014
2758.75	4.03913
2760.08	3.73402
2761.42	3.52855
2762.76	3.51162
2764.09	2.92838
2765.42	2.67974
2766.76	2.25201
2768.09	2.03325
2769.43	1.69081
2770.76	1.80358
2772.1	1.54635
2773.43	0.890332
2774.76	0.51573
2776.1	0.515681
2777.43	1.62606
2778.76	1.50609
2780.1	1.3803
2781.43	1.24918
2782.76	1.075
2784.09	0.396792
2785.42	-0.116786
2786.75	0.186132
2788.09	0.116274
2789.42	-0.338951
2790.75	-0.970428
2792.08	-0.553445
2793.41	-0.161907
2794.74	-0.221192
2796.07	0.00990232
2797.4	0.366617
2798.73	0.368896
2800.06	1.01984
2801.39	0.915931
2802.71	1.0195
2804.04	1.28817
2805.37	2.02024
2806.7	2.58788
2808.03	2.71068
2809.35	2.4602
2810.68	2.84725
2812.01	2.56952
2813.33	3.1148
2814.66	3.30523
2815.99	3.75602
2817.31	4.29959
2818.64	4.71906
2819.96	5.78031
2821.29	6.83633
2822.61	7.21363
2823.94	7.89848
2825.26	9.22388
2826.59	10.3499
2827.91	12.135
2829.23	13.8126
2830.56	15.0582
2831.88	17.2282
2833.21	18.9098
2834.53	21.352
2835.85	23.573
2837.17	25.4286
2838.5	27.7917
2839.82	30.4708
2841.14	33.9072
2842.46	37.7411
2843.78	40.7203
2845.1	43.7472
2846.42	47.417
2847.74	50.7819
2849.06	54.289
2850.38	57.7881
2851.71	62.1719
2853.03	66.5954
2854.34	70.593
2855.66	75.799
2856.98	79.7284
2858.3	84.0524
2859.62	89.152
2860.94	93.541
2862.26	98.2106
2863.57	102.71
2864.89	106.83
2866.21	111.168
2867.53	114.772
2868.84	118.649
2870.16	122.285
2871.48	125.142
2872.79	127.578
2874.11	129.69
2875.42	132.127
2876.74	134.586
2878.05	136.592
2879.37	139.704
2880.68	141.457
2882	143.564
2883.31	145.81
2884.63	147.746
2885.94	150.033
2887.26	152.464
2888.57	154.991
2889.88	156.95
2891.19	159.233
2892.51	161.656
2893.82	165.335
2895.13	167.739
2896.44	171.442
2897.76	174.399
2899.07	176.391
2900.38	179.724
2901.69	183.036
2903	186.369
2904.31	190.646
2905.62	194.922
2906.93	199.507
2908.24	203.662
2909.55	208.627
2910.86	213.422
2912.17	218.183
2913.48	223.127
2914.79	228.431
2916.1	233.207
2917.41	237.781
2918.71	242.436
2920.02	246.34
2921.33	249.823
2922.64	252.055
2923.94	255.369
2925.25	258.222
2926.56	259.345
2927.86	261.527
2929.17	262.471
2930.48	262.496
2931.78	261.888
2933.09	260.529
2934.39	259.649
2935.7	257.91
2937	255.517
2938.31	253.693
2939.61	251.116
2940.92	248.99
2942.22	245.834
2943.53	242.386
2944.83	239.359
2946.13	234.865
2947.43	230.72
2948.74	226.94
2950.04	222.575
2951.34	219.203
2952.64	215.114
2953.95	210.641
2955.25	205.433
2956.55	201.258
2957.85	196.988
2959.15	193.057
2960.45	188.3
2961.75	184.486
2963.05	179.284
2964.35	174.466
2965.65	170.765
2966.95	166.273
2968.25	161.995
2969.55	158.147
2970.85	153.783
2972.15	149.823
2973.45	146.137
2974.75	142.59
2976.05	138.23
2977.34	134.357
2978.64	129.941
2979.94	125.443
2981.24	120.683
2982.53	115.629
2983.83	110.989
2985.13	105.754
2986.42	101.351
2987.72	96.8559
2989.01	92.4969
2990.31	88.2632
2991.61	83.7159
2992.9	79.2366
2994.19	73.9786
2995.49	69.5365
2996.78	65.6341
2998.08	61.4535
2999.37	57.6765
3000.67	52.9526
3001.96	49.2231
3003.25	46.032
3004.55	42.464
3005.84	39.2245
3007.13	35.6132
3008.42	32.3958
3009.72	29.4627
3011.01	26.9908
3012.3	24.9583
3013.59	23.2613
3014.88	21.2133
3016.17	19.877
3017.46	18.2393
3018.76	16.6442
3020.05	14.8735
3021.34	14.3741
3022.63	13.8593
3023.92	13.65
3025.21	12.6927
3026.49	11.7013
3027.78	10.5407
3029.07	9.29115
3030.36	8.845
3031.65	8.60479
3032.94	8.94807
3034.23	9.09718
3035.51	9.79791
3036.8	10.6954
3038.09	11.0196
3039.38	11.2821
3040.66	11.7267
3041.95	12.0478
3043.23	12.7457
3044.52	13.3419
3045.81	13.9823
3047.09	14.3406
3048.38	14.718
3049.66	15.0684
3050.95	15.3559
3052.23	15.2631
3053.52	15.8287
3054.8	15.863
3056.09	15.1974
3057.37	14.9699
3058.65	14.4755
3059.94	14.208
3061.22	13.5144
3062.5	12.4095
3063.79	11.9692
3065.07	11.5056
3066.35	11.3172
3067.63	10.7489
3068.92	9.99417
3070.2	8.81659
3071.48	8.33206
3072.76	7.72783
3074.04	7.20328
3075.32	6.45143
3076.6	5.74892
3077.88	4.75474
3079.16	3.6537
3080.44	3.25158
3081.72	2.44624
3083	1.97102
3084.28	1.52425
3085.56	1.03475
3086.84	0.107574
3088.12	-0.329378
3089.4	-1.09428
3090.67	-1.45473
3091.95	-1.41862
3093.23	-1.78869
3094.51	-1.45063
3095.78	-1.34596
3097.06	-0.952429
3098.34	-1.01279
3099.61	-0.42109
3100.89	-1.1038
3102.17	-1.16627
3103.44	-0.612316
3104.72	-0.471971
3105.99	-0.085669
3107.27	0.32839
3108.54	0.787019
3109.82	1.04033
3111.09	1.06596
3112.37	1.24118
3113.64	2.0366
3114.92	2.42836
3116.19	2.78828
3117.46	3.04645
3118.74	2.8311
3120.01	3.0138
3121.28	3.34329
3122.55	3.35506
3123.83	3.92883
3125.1	4.45445
3126.37	4.84115
3127.64	5.17468
3128.91	5.37761
3130.19	5.67912
3131.46	5.77888
3132.73	6.05124
3134	6.44172
3135.27	7.01541
3136.54	6.95906
3137.81	7.22063
3139.08	7.4209
3140.35	7.79877
3141.62	7.75679
3142.89	7.86161
3144.16	7.84931
3145.42	7.73935
3146.69	7.28174
3147.96	7.62197
3149.23	7.73214
