#Acq. time (s)=	45
#Accumulations=	2
#Range (cm-¹)=	200...3150
#Windows=	2
#Auto scanning=	Off
#Autofocus=	Off
#Macrospot=	Off
#AutoExposure=	Off
#Spike filter=	Multiple accum.
#Delay time (s)=	0
#Binning=	1
#Readout mode=	Signal
#DeNoise=	Off
#ICS correction=	On
#Dark correction=	Off
#Inst. Process=	Off
#Detector Gain=	Best Dynamic Range
#Detector ADC=	20 kHz       
#Detector temperature (°C)=	-69.85
#Instrument=	LabRAM HR Evol
#Detector=	Synapse
#Objective=	x100
#Grating=	600 gr/mm
#ND Filter=	100%
#Laser (nm)=	532 
#Hole=	100.021
#Range=	Auto
#Laser Pol.=	No
#Raman. Pol.=	No
#Laser Pol. (°)=	-0.0007625
#Raman Pol. (°)=	89.9995
#Collection=	Microscope
#StageXY=	Marzhauser
#StageZ=	Marzhauser
#X (µm)=	2204.6
#Y (µm)=	1225.1
#Z (µm)=	442.15
#Full time(mm:ss)=	3:19
#Project=	
#Sample=	
#Site=	
#Title=	Thy_10_08_23_2x_45s_532 nm_x100_100%_600 gr_mm
#Remark=	
#Date=	05.07.2022 15:48
#Acquired=	05.07.2022 15:48:39
#Base:Fit=	10.08.2022 09:46:25
#Base:Sub=	10.08.2022 09:46:49
#Filter:Polynom=	16.08.2022 10:24:56
#AxisType[0]=Intens
#AxisUnit[0]=Cnt
#AxisType[1]=Spectr
#AxisUnit[1]=1/cm
200.43	12.6176
202.244	14.9485
204.059	15.8845
205.873	15.2689
207.688	14.4344
209.501	13.1069
211.314	11.8206
213.127	11.2315
214.941	10.0351
216.753	9.76989
218.564	9.62533
220.375	9.70223
222.186	9.12412
223.999	7.35583
225.809	7.55322
227.618	7.55615
229.428	8.82972
231.236	8.02092
233.045	7.35519
234.855	5.50952
236.663	4.91858
238.471	5.10975
240.278	5.59473
242.085	5.88226
243.891	6.37819
245.698	6.32832
247.503	6.53375
249.309	6.0681
251.116	6.20827
252.921	5.10679
254.725	5.92803
256.529	6.57686
258.333	6.58932
260.136	7.06578
261.939	6.35903
263.742	5.81333
265.544	6.53098
267.346	5.75114
269.148	6.19475
270.949	5.79446
272.75	6.75402
274.55	7.30769
276.351	8.00391
278.15	7.54033
279.95	7.05255
281.749	8.69595
283.548	8.24022
285.346	8.33656
287.144	8.20905
288.942	8.17129
290.739	7.04615
292.536	6.66621
294.333	7.39789
296.129	7.65503
297.925	7.832
299.721	8.20758
301.514	9.81551
303.309	10.4866
305.104	10.4373
306.898	10.9261
308.692	11.7719
310.486	11.9798
312.279	11.7298
314.072	12.2769
315.862	13.791
317.654	13.2941
319.446	13.6911
321.238	12.5069
323.029	12.8831
324.819	13.3348
326.608	15.2594
328.398	15.8722
330.188	15.6072
331.977	15.5345
333.766	15.8083
335.553	16.1225
337.341	16.5913
339.129	16.517
340.917	16.8873
342.704	16.546
344.489	17.4458
346.275	16.8371
348.062	17.3725
349.845	16.9255
351.631	15.0632
353.416	14.4945
355.201	13.678
356.984	13.2288
358.768	13.5812
360.552	12.7049
362.333	12.3323
364.116	11.9295
365.899	12.0753
367.68	11.3355
369.462	11.2126
371.243	10.3784
373.023	9.40057
374.804	8.63453
376.585	8.06691
378.363	8.79621
380.143	8.9064
381.923	10.0704
383.7	10.3658
385.479	10.5444
387.256	11.8927
389.034	12.2892
390.812	13.6573
392.588	13.5098
394.365	13.9536
396.14	14.5174
397.916	15.8968
399.691	15.7811
401.467	15.8823
403.24	16.589
405.015	16.341
406.788	16.1126
408.563	16.6702
410.335	16.7882
412.109	17.421
413.88	18.4815
415.654	18.1383
417.424	18.2714
419.197	18.5952
420.967	20.2791
422.739	20.8258
424.508	21.0802
426.279	20.8131
428.048	20.3588
429.819	19.7018
431.587	19.0166
433.356	18.3768
435.124	17.7154
436.891	16.8565
438.66	16.1952
440.426	16.5363
442.194	16.3655
443.96	15.7167
445.725	16.4661
447.492	15.8338
449.257	15.1741
451.021	14.9742
452.787	14.629
454.551	14.3421
456.314	12.8425
458.079	12.8728
459.842	12.4416
461.604	13.8022
463.368	14.3021
465.13	15.306
466.891	17.7631
468.654	18.0429
470.415	19.0347
472.175	20.4003
473.935	21.1869
475.696	21.3427
477.456	20.8986
479.215	21.2089
480.973	21.8339
482.733	22.495
484.491	23.5543
486.249	24.365
488.006	24.3098
489.765	24.454
491.522	25.6671
493.278	26.3599
495.034	27.2954
496.789	27.896
498.544	29.291
500.301	29.4186
502.056	30.0515
503.81	29.8782
505.564	30.2067
507.317	30.5169
509.071	31.3679
510.825	30.9743
512.578	31.6031
514.33	32.179
516.082	32.1866
517.833	31.9029
519.585	32.2481
521.335	32.5704
523.086	33.1883
524.836	33.957
526.586	33.9305
528.335	33.3707
530.085	33.3446
531.835	33.3909
533.584	33.4495
535.332	32.7941
537.08	32.358
538.827	32.2676
540.574	32.5307
542.321	32.4573
544.068	32.2587
545.814	32.081
547.56	31.8222
549.305	31.3342
551.05	30.11
552.795	30.8061
554.54	30.9492
556.282	30.1333
558.025	30.0141
559.769	30.0234
561.512	28.5072
563.255	27.8361
564.997	27.7618
566.739	27.8063
568.481	27.1229
570.223	25.6383
571.964	24.6664
573.705	22.3757
575.443	20.7927
577.183	20.3036
578.923	19.6702
580.663	19.074
582.402	17.3603
584.141	16.1203
585.879	15.4872
587.615	14.5658
589.353	14.189
591.09	13.9514
592.828	12.6722
594.564	12.6821
596.299	12.1224
598.035	11.8659
599.771	12.4687
601.506	12.7258
603.242	13.0338
604.974	12.6585
606.709	13.1353
608.443	12.9745
610.177	13.3662
611.908	13.3442
613.642	13.053
615.374	15.0122
617.105	15.7607
618.837	16.0097
620.569	16.2821
622.3	16.4244
624.03	16.7239
625.761	17.6605
627.491	18.5234
629.219	18.7657
630.949	19.0001
632.677	19.7857
634.406	21.5464
636.135	22.2186
637.861	23.8958
639.59	25.6047
641.318	25.9574
643.043	27.1529
644.77	27.5705
646.495	28.4913
648.222	28.1063
649.948	28.0117
651.672	27.713
653.398	26.0937
655.121	25.2193
656.846	25.3181
658.569	25.3839
660.293	26.3525
662.015	27.1552
663.738	28.832
665.46	29.5349
667.183	30.4807
668.903	29.8688
670.626	31.5653
672.346	32.4975
674.067	34.6688
675.787	34.2209
677.508	35.1348
679.226	34.8802
680.947	35.8735
682.665	37.1008
684.385	38.2145
686.102	39.8002
687.821	40.6781
689.538	40.7724
691.254	41.7356
692.972	42.8355
694.688	43.8069
696.406	44.4194
698.121	44.6091
699.835	46.4436
701.552	46.828
703.266	46.3688
704.98	46.9488
706.695	47.4334
708.409	48.1636
710.121	49.1983
711.836	49.9206
713.548	50.9058
715.26	50.9952
716.973	52.0457
718.685	52.7176
720.396	53.9601
722.108	54.9474
723.818	55.6189
725.528	56.0165
727.238	56.6061
728.949	56.8884
730.658	56.9474
732.367	57.408
734.075	57.6586
735.785	58.61
737.493	58.2718
739.2	59.2913
740.907	61.2202
742.614	62.2749
744.322	64.1978
746.028	65.9471
747.734	67.5456
749.439	69.9176
751.144	71.4311
752.849	72.015
754.555	73.7891
756.26	76.5908
757.963	77.8329
759.667	79.5346
761.37	79.5286
763.073	81.3109
764.775	82.1714
766.477	83.3466
768.179	84.8189
769.883	86.2041
771.584	87.4904
773.285	88.0814
774.986	88.4908
776.686	89.2366
778.386	88.8816
780.085	89.2661
781.785	89.6502
783.484	89.928
785.182	91.1213
786.881	91.3488
788.579	91.6978
790.276	93.0051
791.974	93.0419
793.671	93.7225
795.367	94.3698
797.064	94.9214
798.76	95.8045
800.456	95.8178
802.151	96.3385
803.846	96.1555
805.541	96.641
807.234	97.0379
808.928	96.3119
810.622	95.267
812.315	95.4281
814.008	95.1924
815.701	95.3579
817.394	95.5718
819.086	95.6198
820.778	95.3358
822.468	95.1653
824.159	95.6956
825.85	95.5763
827.541	96.2373
829.231	96.3554
830.921	96.6794
832.609	96.9036
834.298	95.459
835.987	94.8375
837.676	93.4985
839.364	93.7865
841.051	93.3396
842.738	92.1364
844.426	91.2846
846.113	90.6658
847.798	89.434
849.484	87.4495
851.171	85.76
852.857	85.3855
854.54	84.0049
856.226	82.051
857.911	80.9963
859.593	79.4929
861.278	79.1412
862.961	77.9661
864.645	77.2253
866.327	76.9134
868.01	75.0769
869.692	74.0485
871.373	72.9913
873.055	72.0618
874.735	71.806
876.416	70.4794
878.097	70.8039
879.776	70.2559
881.457	68.2372
883.135	67.579
884.815	65.4627
886.495	65.1389
888.172	64.1338
889.851	63.5585
891.528	63.2009
893.206	61.7275
894.882	61.2868
896.56	62.3971
898.237	61.6544
899.912	61.9257
901.589	61.8891
903.263	61.7538
904.94	63.3183
906.614	63.4478
908.289	63.0141
909.962	63.8666
911.635	63.7708
913.31	63.9802
914.982	64.8196
916.656	65.0863
918.328	64.8678
920.001	65.2656
921.672	65.3061
923.345	65.4819
925.015	65.3916
926.685	65.6792
928.357	65.4437
930.026	65.4074
931.698	65.6939
933.366	66.6271
935.035	67.163
936.705	66.9609
938.373	66.3133
940.041	66.7639
941.71	66.7434
943.377	65.5694
945.044	65.0837
946.712	63.6724
948.378	62.6141
950.044	61.6707
951.709	61.1815
953.376	60.4909
955.041	59.9074
956.706	59.3178
958.372	57.1689
960.036	55.2644
961.699	53.65
963.362	52.7142
965.027	51.7515
966.69	53.3114
968.352	52.7248
970.014	54.3178
971.676	54.1351
973.339	54.8435
975	55.1628
976.661	55.8042
978.322	56.1907
979.982	56.7644
981.642	57.3483
983.303	59.4805
984.962	59.6862
986.621	59.984
988.28	60.0493
989.938	58.9566
991.596	59.8774
993.254	60.4599
994.911	60.2299
996.57	61.1311
998.227	61.5484
999.884	61.9531
1001.54	61.1776
1003.2	59.8659
1004.85	59.5729
1006.51	60.2686
1008.16	60.2027
1009.82	59.1842
1011.47	58.4077
1013.12	59.0105
1014.78	58.7633
1016.43	57.5832
1018.08	54.6185
1019.74	53.0957
1021.39	52.3931
1023.04	50.4211
1024.69	47.8665
1026.34	45.689
1028	43.7217
1029.65	42.6422
1031.3	41.0967
1032.95	40.6246
1034.6	39.5696
1036.25	36.9198
1037.9	34.7695
1039.54	33.3189
1041.19	31.1403
1042.84	30.5844
1044.49	30.9801
1046.14	31.1055
1047.78	30.8418
1049.43	31.0888
1051.08	30.8521
1052.72	31.5894
1054.37	30.5957
1056.02	30.4974
1057.66	30.5732
1059.31	30.4456
1060.95	30.7489
1062.6	30.8524
1064.24	30.327
1065.88	29.8963
1067.53	28.8073
1069.17	29.1655
1070.81	29.8012
1072.45	30.1489
1074.1	30.4629
1075.74	30.0071
1077.38	30.3461
1079.02	30.1307
1080.66	30.3498
1082.3	30.0717
1083.94	30.4358
1085.58	29.6707
1087.22	30.5563
1088.86	30.2112
1090.5	29.4383
1092.14	29.6692
1093.78	30.4244
1095.42	30.462
1097.05	29.9016
1098.69	29.5962
1100.33	29.9376
1101.96	30.0416
1103.6	30.3289
1105.24	30.3143
1106.87	30.5642
1108.51	30.6494
1110.14	30.979
1111.78	31.7888
1113.41	30.2267
1115.05	28.5502
1116.68	27.4247
1118.31	25.8525
1119.95	24.1352
1121.58	23.184
1123.21	22.3655
1124.85	21.7662
1126.48	21.1975
1128.11	20.5134
1129.74	20.4644
1131.37	20.6965
1133	20.843
1134.63	20.7051
1136.26	19.4569
1137.89	19.1522
1139.52	18.2502
1141.15	17.6031
1142.78	17.3915
1144.41	16.2525
1146.04	15.5046
1147.66	16.0466
1149.29	15.989
1150.92	14.4994
1152.55	12.9459
1154.17	11.3291
1155.8	10.5796
1157.43	9.90062
1159.05	8.71606
1160.68	8.05166
1162.3	7.65705
1163.93	7.16126
1165.55	6.7342
1167.17	6.40834
1168.8	7.70982
1170.42	7.68384
1172.05	9.47546
1173.67	9.6962
1175.29	9.03075
1176.91	10.1804
1178.54	11.2845
1180.16	12.4986
1181.78	13.7628
1183.4	13.8594
1185.02	14.7577
1186.64	15.3312
1188.26	15.6757
1189.88	16.1828
1191.5	17.6439
1193.12	18.5305
1194.74	18.7924
1196.36	20.3956
1197.97	22.4667
1199.59	23.3088
1201.21	25.5218
1202.83	28.8811
1204.44	31.9482
1206.06	34.7639
1207.68	37.7235
1209.29	40.5344
1210.91	43.3835
1212.52	46.2574
1214.14	48.1548
1215.75	50.596
1217.37	51.561
1218.98	53.9903
1220.59	56.8328
1222.21	60.3581
1223.82	62.0901
1225.43	63.6035
1227.05	64.8019
1228.66	66.5554
1230.27	66.8446
1231.88	66.6158
1233.49	68.0924
1235.1	69.4969
1236.72	70.8235
1238.33	71.604
1239.94	72.2592
1241.55	73.5906
1243.16	74.3372
1244.76	75.7316
1246.37	76.3263
1247.98	76.9022
1249.59	76.6865
1251.2	76.514
1252.8	75.7939
1254.41	74.9522
1256.02	74.5741
1257.62	75.3063
1259.23	74.252
1260.84	72.9436
1262.44	72.1674
1264.05	71.2981
1265.66	71.4246
1267.26	70.5339
1268.86	70.9915
1270.47	71.3184
1272.07	72.7875
1273.67	73.0105
1275.28	73.4844
1276.88	74.5264
1278.48	75.2426
1280.09	75.4583
1281.69	77.0248
1283.29	78.2729
1284.89	78.7346
1286.49	79.2487
1288.09	79.9604
1289.69	79.7242
1291.29	81.1173
1292.89	82.0507
1294.49	82.8224
1296.09	84.6426
1297.69	84.9674
1299.29	86.27
1300.89	87.5084
1302.49	88.604
1304.08	89.5087
1305.68	89.9831
1307.28	91.1521
1308.88	93.1244
1310.47	93.6693
1312.07	95.4623
1313.66	98.1181
1315.26	99.6182
1316.85	100.976
1318.45	101.817
1320.04	102.605
1321.64	102.976
1323.23	103.225
1324.83	102.166
1326.42	101.763
1328.01	101.855
1329.61	101.411
1331.2	100.893
1332.79	100.009
1334.38	100.014
1335.97	98.7594
1337.56	98.1866
1339.16	96.7321
1340.75	95.2202
1342.34	95.0158
1343.93	94.5645
1345.52	93.9863
1347.11	92.809
1348.7	92.6352
1350.29	91.0224
1351.87	89.9618
1353.46	87.1327
1355.05	85.0016
1356.64	83.1087
1358.22	80.5163
1359.81	78.5055
1361.4	77.8767
1362.98	76.4587
1364.57	74.6968
1366.16	72.9917
1367.74	71.1515
1369.33	68.5104
1370.91	67.5565
1372.5	64.6069
1374.08	62.3664
1375.67	61.2662
1377.25	59.4559
1378.83	58.9902
1380.41	58.1561
1382	57.6319
1383.58	55.5644
1385.16	53.9905
1386.74	54.3237
1388.33	54.0142
1389.91	52.8702
1391.49	52.3893
1393.07	51.7285
1394.65	50.1999
1396.23	49.4599
1397.81	47.7013
1399.39	46.3304
1400.97	45.0855
1402.55	43.9839
1404.13	43.6753
1405.7	43.1712
1407.28	43.6509
1408.86	44.4323
1410.44	45.7846
1412.01	46.6896
1413.59	47.9752
1415.17	49.937
1416.74	53.112
1418.32	55.2971
1419.89	58.3374
1421.47	61.4371
1423.04	64.9223
1424.62	67.7115
1426.19	70.873
1427.77	74.1923
1429.34	77.8872
1430.91	82.2527
1432.49	85.3213
1434.06	89.6579
1435.63	94.1562
1437.2	97.701
1438.78	101.05
1440.35	104.275
1441.92	106.106
1443.49	108.4
1445.06	109.825
1446.63	111.099
1448.2	111.703
1449.77	112.576
1451.34	111.717
1452.91	112.322
1454.48	112.459
1456.05	110.519
1457.62	109.365
1459.18	106.456
1460.75	103.681
1462.32	99.8335
1463.89	97.1725
1465.45	94.2572
1467.02	89.7238
1468.59	84.9191
1470.15	80.6899
1471.72	75.7262
1473.28	70.9262
1474.85	66.8461
1476.41	61.3701
1477.98	56.9846
1479.54	52.2386
1481.1	47.9343
1482.67	44.0673
1484.23	39.8826
1485.79	37.9906
1487.36	33.9619
1488.92	30.6412
1490.48	27.7427
1492.04	26.2188
1493.61	25.0835
1495.17	23.2995
1496.73	20.5009
1498.29	20.1296
1499.85	19.498
1501.41	19.7614
1502.97	19.301
1504.53	19.402
1506.09	20.0698
1507.65	20.7226
1509.2	21.252
1510.76	21.0139
1512.32	22.236
1513.88	23.473
1515.43	23.7227
1516.99	23.869
1518.55	24.5098
1520.1	25.6519
1521.66	27.0086
1523.22	27.6421
1524.77	29.1726
1526.33	29.5008
1527.88	30.6803
1529.44	31.6965
1530.99	33.5941
1532.54	33.6887
1534.1	34.5396
1535.65	35.8869
1537.21	36.9781
1538.76	38.7785
1540.31	39.7161
1541.86	42.1341
1543.42	43.6155
1544.97	45.0377
1546.52	46.7146
1548.07	48.7509
1549.62	50.651
1551.17	53.5721
1552.72	55.9341
1554.27	56.6031
1555.82	58.7702
1557.37	59.5847
1558.92	61.251
1560.47	62.4991
1562.02	63.8054
1563.56	65.1609
1565.11	65.7228
1566.66	68.1975
1568.21	70.0718
1569.75	72.1671
1571.3	73.9965
1572.85	74.9462
1574.39	76.8368
1575.94	79.3069
1577.49	80.8909
1579.03	81.9265
1580.57	83.1852
1582.12	84.221
1583.66	85.3813
1585.21	86.8049
1586.75	87.3367
1588.3	88.3989
1589.84	88.6872
1591.38	88.6872
1592.92	89.3473
1594.47	88.994
1596.01	89.3581
1597.55	89.8509
1599.09	89.4221
1600.63	88.9088
1602.17	89.0836
1603.71	87.742
1605.25	87.2327
1606.79	86.7331
1608.33	86.5681
1609.87	85.3574
1611.41	86.0135
1612.95	84.4535
1614.49	84.2229
1616.03	83.4907
1617.57	82.965
1619.1	83.1674
1620.64	83.1103
1622.18	82.5782
1623.72	81.7288
1625.25	82.2564
1626.79	82.0145
1628.32	81.5019
1629.86	80.4601
1631.39	81.1085
1632.93	81.7641
1634.46	82.0923
1636	84.1701
1637.53	85.7038
1639.07	87.5964
1640.6	89.3078
1642.13	91.6274
1643.67	92.9286
1645.2	94.4389
1646.73	96.3484
1648.26	98.3472
1649.8	99.3197
1651.33	101.589
1652.86	102.809
1654.39	104.43
1655.92	104.937
1657.45	106.09
1658.98	106.295
1660.51	107.031
1662.04	107.122
1663.57	106.274
1665.1	105.991
1666.63	104.378
1668.16	103.116
1669.68	102.17
1671.21	99.4672
1672.74	97.3218
1674.27	94.5212
1675.79	91.981
1677.32	89.3355
1678.85	86.4078
1680.37	83.3501
1681.9	80.5747
1683.42	76.9935
1684.95	73.5408
1686.47	68.5487
1688	65.2266
1689.52	61.5224
1691.05	58.9457
1692.57	55.4269
1694.09	51.6451
1695.62	48.4363
1697.14	44.7776
1698.66	39.9207
1700.18	37.4856
1701.71	35.0023
1703.23	31.7544
1704.75	29.5563
1706.27	27.8515
1707.79	27.7517
1709.31	25.1443
1710.83	23.7919
1712.35	22.4743
1713.87	20.8193
1715.39	19.1364
1716.91	18.1443
1718.43	17.196
1719.95	15.8164
1721.47	15.5309
1722.99	15.4126
1724.5	15.186
1726.02	14.6
1727.54	14.2176
1729.06	13.1584
1730.57	12.8767
1732.09	11.8429
1733.61	12.0463
1735.12	11.1859
1736.64	10.6831
1738.15	10.1905
1739.67	9.99145
1741.18	9.15178
1742.7	8.08332
1744.21	7.85781
1745.72	7.83731
1747.24	7.10837
1748.75	6.66517
1750.26	6.60164
1751.77	6.85483
1753.29	7.00304
1754.8	6.97566
1756.31	7.27385
1757.82	6.79644
1759.33	6.40704
1760.84	6.24136
1762.36	5.86841
1763.87	6.60426
1765.38	6.81264
1766.89	6.25518
1768.4	5.80705
1769.91	5.40046
1771.41	4.9857
1772.92	4.18418
1774.43	4.27452
1775.94	4.47965
1777.45	4.53806
1778.95	4.96404
1780.46	5.24374
1781.97	5.27725
1783.48	5.22864
1784.98	4.27946
1786.49	4.41923
1787.99	4.51323
1789.5	4.40699
1791.01	4.25306
1792.51	5.05962
1794.01	4.51138
1795.52	4.37349
1797.02	4.1891
1798.53	4.40922
1800.03	3.89943
1801.53	3.571
1803.04	3.13348
1804.54	3.41808
1806.04	3.67107
1807.54	3.60288
1809.05	3.75252
1810.55	3.20276
1812.05	3.09147
1813.55	2.99498
1815.05	3.04966
1816.55	3.05719
1818.05	3.70453
1819.55	4.19702
1821.05	3.82973
1822.55	3.71788
1824.05	3.59229
1825.55	3.70887
1827.05	4.06903
1828.55	3.87772
1830.04	3.52542
1831.54	3.31421
1833.04	2.83349
1834.54	2.61152
1836.03	2.17751
1837.53	1.84942
1839.03	1.45114
1840.52	1.07331
1842.02	1.0096
1843.51	0.742092
1845.01	0.829388
1846.5	1.17691
1848	1.98556
1849.49	2.19265
1850.99	2.3094
1852.48	2.14329
1853.97	1.32691
1855.47	0.514741
1856.96	0.00346333
1858.45	-0.382882
1859.94	-0.661712
1861.44	-1.11493
1862.93	-1.77637
1864.42	-2.20606
1865.91	-1.67564
1867.4	-0.910787
1868.89	-1.29336
1870.38	-1.13904
1871.87	-0.889201
1873.36	-0.538337
1874.85	-1.18547
1876.34	-0.97479
1877.83	-0.341081
1879.32	0.628204
1880.81	1.31473
1882.3	1.61682
1882.57	2.15506
1884.07	2.96387
1885.56	3.59422
1887.06	4.41623
1888.55	5.63798
1890.04	6.35356
1891.54	7.15141
1893.03	7.93352
1894.52	7.92614
1896.02	8.31585
1897.51	8.9494
1899	9.88099
1900.49	10.2976
1901.98	11.1708
1903.47	11.7276
1904.96	11.9333
1906.45	11.7355
1907.94	12.0024
1909.43	11.5759
1910.92	11.4276
1912.41	11.6095
1913.9	12.4064
1915.39	11.8521
1916.88	11.8977
1918.37	12.1092
1919.85	11.3508
1921.34	11.0719
1922.83	9.8425
1924.32	9.07235
1925.8	7.99158
1927.29	7.58601
1928.78	7.29792
1930.26	7.14959
1931.75	6.05705
1933.23	5.11764
1934.72	4.54258
1936.2	4.3537
1937.69	4.42186
1939.17	4.53793
1940.66	3.93715
1942.14	3.25713
1943.63	3.303
1945.11	2.93763
1946.59	2.80281
1948.07	2.81098
1949.56	3.77981
1951.04	4.53548
1952.52	4.01316
1954	3.9047
1955.48	4.05916
1956.96	4.4546
1958.45	4.60878
1959.93	4.94288
1961.41	5.81957
1962.89	6.1456
1964.37	6.51673
1965.85	7.05497
1967.32	7.04957
1968.8	7.5858
1970.28	9.20992
1971.76	9.75749
1973.24	9.7463
1974.72	9.86959
1976.19	10.2137
1977.67	9.81667
1979.15	9.75051
1980.63	9.50942
1982.1	9.59677
1983.58	9.9689
1985.05	10.4574
1986.53	10.6528
1988	10.7744
1989.48	11.1642
1990.95	12.2327
1992.43	11.9419
1993.9	11.8794
1995.38	12.4001
1996.85	12.5919
1998.32	13.1038
1999.8	13.5343
2001.27	13.8426
2002.74	14.1656
2004.22	14.3846
2005.69	14.6188
2007.16	15.2403
2008.63	16.0005
2010.1	16.48
2011.57	17.0065
2013.04	17.1275
2014.51	17.4973
2015.98	18.1525
2017.45	18.7474
2018.92	18.784
2020.39	19.7989
2021.86	19.7456
2023.33	19.6126
2024.8	19.8556
2026.27	19.5249
2027.74	20.533
2029.2	20.7419
2030.67	21.1932
2032.14	21.0281
2033.61	21.3186
2035.07	21.6725
2036.54	21.5124
2038.01	21.861
2039.47	22.8784
2040.94	23.1687
2042.4	23.4214
2043.87	23.4001
2045.33	22.5323
2046.8	22.6876
2048.26	23.1928
2049.72	22.8735
2051.19	22.7509
2052.65	22.1829
2054.12	22.0533
2055.58	22.0029
2057.04	22.1731
2058.5	21.2249
2059.97	21.4131
2061.43	21.5756
2062.89	21.5388
2064.35	21.1709
2065.81	21.0369
2067.27	21.5361
2068.73	21.5803
2070.19	21.9923
2071.65	21.8491
2073.11	22.1231
2074.57	22.403
2076.03	22.5202
2077.49	22.8991
2078.95	23.0757
2080.41	22.3073
2081.87	22.7781
2083.32	23.0519
2084.78	22.9877
2086.24	22.927
2087.7	23.3444
2089.15	23.675
2090.61	23.7901
2092.07	24.0941
2093.52	23.6931
2094.98	22.7985
2096.43	23.1479
2097.89	22.9328
2099.34	22.3664
2100.8	22.6906
2102.25	22.1908
2103.71	22.5953
2105.16	22.5158
2106.61	22.9966
2108.07	23.3808
2109.52	24.0185
2110.97	25.0683
2112.43	25.6877
2113.88	26.0374
2115.33	25.4406
2116.78	26.3966
2118.23	26.903
2119.68	27.1087
2121.13	27.4005
2122.59	27.4718
2124.04	28.2435
2125.49	28.7494
2126.94	29.7496
2128.39	30.1831
2129.83	31.2884
2131.28	31.5562
2132.73	32.6878
2134.18	32.5982
2135.63	33.4634
2137.08	35.0157
2138.53	35.4321
2139.97	36.6738
2141.42	37.6894
2142.87	38.5652
2144.31	39.8143
2145.76	40.7796
2147.21	42.133
2148.65	42.2155
2150.1	43.8509
2151.54	44.222
2152.99	45.2512
2154.43	46.3642
2155.88	46.5891
2157.32	47.1924
2158.77	47.9468
2160.21	48.694
2161.65	49.5044
2163.1	49.8177
2164.54	50.3204
2165.98	50.3037
2167.43	51.387
2168.87	52.3167
2170.31	52.5636
2171.75	52.9813
2173.19	53.5263
2174.64	54.0189
2176.07	54.5623
2177.52	54.1761
2178.96	54.1016
2180.4	55.0185
2181.84	54.9272
2183.28	55.204
2184.72	55.4538
2186.15	55.7554
2187.59	54.4528
2189.03	54.4607
2190.47	53.5421
2191.91	52.7619
2193.35	51.7104
2194.78	51.2543
2196.22	49.9438
2197.66	48.9934
2199.09	47.8699
2200.53	46.7436
2201.97	46.3936
2203.4	44.8941
2204.84	43.8504
2206.27	43.0053
2207.71	42.7423
2209.14	42.1672
2210.58	40.9753
2212.01	40.2881
2213.45	38.8641
2214.88	37.373
2216.31	35.9906
2217.75	34.2325
2219.18	33.2556
2220.61	31.9621
2222.05	31.6725
2223.48	30.5898
2224.91	29.796
2226.34	28.3408
2227.78	27.2812
2229.21	26.3093
2230.64	25.5483
2232.07	24.9683
2233.5	24.4595
2234.93	24.3867
2236.36	24.7181
2237.79	24.9591
2239.22	25.6122
2240.65	25.3254
2242.08	24.9401
2243.5	24.0656
2244.93	23.7851
2246.36	23.6341
2247.79	22.8774
2249.22	22.4775
2250.64	22.7818
2252.07	23.0854
2253.5	22.4166
2254.92	22.8659
2256.35	22.6486
2257.78	22.0733
2259.2	21.5015
2260.63	21.643
2262.05	22.0464
2263.48	22.4893
2264.9	22.6354
2266.33	23.6434
2267.75	23.6372
2269.18	24.6763
2270.6	25.009
2272.02	25.9049
2273.45	26.1938
2274.87	25.9305
2276.29	25.9801
2277.71	26.3508
2279.14	26.4671
2280.56	26.2968
2281.98	26.1762
2283.4	25.8164
2284.82	25.5455
2286.24	25.4859
2287.66	25.9942
2289.08	25.9751
2290.5	25.7233
2291.92	25.2504
2293.34	24.0212
2294.76	23.7742
2296.18	23.3269
2297.6	23.1057
2299.02	23.4268
2300.44	23.3513
2301.86	24.1142
2303.27	24.3436
2304.69	24.7275
2306.11	25.0325
2307.53	24.7353
2308.94	24.9767
2310.36	24.4265
2311.78	23.6305
2313.19	22.9532
2314.61	22.341
2316.02	21.8871
2317.44	21.487
2318.85	21.0219
2320.27	20.7802
2321.68	20.9194
2323.1	20.9175
2324.51	21.6288
2325.92	21.8881
2327.34	21.6917
2328.75	22.5098
2330.16	21.9791
2331.58	21.8386
2332.99	22.1589
2334.4	22.223
2335.81	21.9784
2337.23	21.6017
2338.64	21.1242
2340.05	20.9387
2341.46	20.5777
2342.87	20.2351
2344.28	19.6629
2345.69	19.4168
2347.1	18.7181
2348.51	18.7972
2349.92	18.8092
2351.33	18.1832
2352.74	17.6107
2354.15	16.1063
2355.55	15.888
2356.96	15.0208
2358.37	14.7598
2359.78	13.6709
2361.19	13.0614
2362.59	13.0337
2364	13.4012
2365.41	13.8954
2366.81	14.1847
2368.22	13.4817
2369.62	13.8871
2371.03	12.8865
2372.44	12.971
2373.84	12.6204
2375.24	12.3949
2376.65	12.2811
2378.05	12.8967
2379.46	12.6787
2380.86	11.8472
2382.26	11.8146
2383.67	11.4116
2385.07	11.1118
2386.47	10.7527
2387.88	11.4277
2389.28	11.692
2390.68	11.8413
2392.08	11.6923
2393.48	11.4322
2394.89	11.8219
2396.29	10.8505
2397.69	11.063
2399.09	11.438
2400.49	10.8688
2401.89	11.0743
2403.29	11.2756
2404.69	10.7269
2406.09	10.5352
2407.48	11.3169
2408.88	11.8076
2410.28	11.8996
2411.68	11.894
2413.08	11.7274
2414.48	11.4324
2415.87	11.8573
2417.27	11.3609
2418.67	11.4151
2420.06	11.4601
2421.46	11.3271
2422.86	11.1381
2424.25	11.2453
2425.65	12.1577
2427.04	11.8547
2428.44	12.2057
2429.83	12.4726
2431.23	12.9112
2432.62	12.7104
2434.02	12.8013
2435.41	12.0614
2436.81	12.1034
2438.2	11.4027
2439.59	11.8502
2440.99	10.9232
2442.38	11.0008
2443.77	11.4441
2445.16	10.9977
2446.56	10.9563
2447.95	10.4744
2449.34	9.20127
2450.73	8.9997
2452.12	8.47258
2453.51	8.26466
2454.9	7.69436
2456.29	7.45038
2457.68	7.04552
2459.07	6.51225
2460.46	6.06727
2461.85	4.92891
2463.24	4.66979
2464.63	5.31666
2466.02	4.52409
2467.4	5.04554
2468.79	4.6616
2470.18	3.95802
2471.57	3.80651
2472.95	4.11853
2474.34	3.76553
2475.73	3.56403
2477.12	3.61832
2478.5	2.86332
2479.89	2.78221
2481.27	2.85423
2482.66	3.40176
2484.04	3.317
2485.43	3.67248
2486.81	3.74235
2488.2	4.42986
2489.58	5.27737
2490.97	5.45318
2492.35	5.11231
2493.73	5.39555
2495.12	5.37038
2496.5	4.9371
2497.88	5.21504
2499.27	5.99427
2500.65	5.69006
2502.03	5.34792
2503.41	5.4568
2504.79	5.12099
2506.17	5.53497
2507.56	5.52018
2508.94	5.78805
2510.32	5.95529
2511.7	6.41152
2513.08	6.34036
2514.46	5.64445
2515.84	5.81813
2517.22	5.69637
2518.59	6.01448
2519.97	6.10132
2521.35	5.68721
2522.73	6.01813
2524.11	5.8035
2525.49	6.46327
2526.86	6.37819
2528.24	6.12016
2529.62	6.11519
2530.99	5.88893
2532.37	6.45588
2533.75	6.1237
2535.12	4.84623
2536.5	5.00072
2537.88	4.31279
2539.25	4.04517
2540.63	4.02245
2542	3.67358
2543.38	3.2696
2544.75	3.93769
2546.12	4.36063
2547.5	4.67704
2548.87	4.94535
2550.24	4.9232
2551.62	4.8054
2552.99	5.00734
2554.36	5.02935
2555.74	4.80204
2557.11	4.54924
2558.48	4.35469
2559.85	3.75156
2561.22	2.97181
2562.59	2.70341
2563.96	1.93703
2565.34	2.14623
2566.71	2.68227
2568.08	2.77804
2569.45	2.47993
2570.82	2.28529
2572.18	1.80692
2573.55	1.84206
2574.92	2.03592
2576.29	1.51103
2577.66	1.05488
2579.03	1.26426
2580.4	1.24675
2581.77	0.323836
2583.13	0.269467
2584.5	0.378423
2585.87	0.0666694
2587.23	-0.306355
2588.6	-0.270825
2589.97	0.153107
2591.33	0.39074
2592.7	0.145064
2594.06	0.179989
2595.43	-0.502625
2596.79	-0.835328
2598.16	-0.739905
2599.52	-1.44443
2600.89	-1.59555
2602.25	-2.1316
2603.62	-2.02496
2604.98	-1.68382
2606.34	-1.73448
2607.71	-1.31346
2609.07	-0.415613
2610.43	0.290094
2611.79	0.720956
2613.16	1.2386
2614.52	0.584757
2615.88	1.09803
2617.24	1.31067
2618.6	1.50466
2619.96	1.81581
2621.32	2.05445
2622.68	1.51779
2624.04	1.5197
2625.4	1.88906
2626.76	1.71604
2628.12	1.91026
2629.48	1.9037
2630.84	2.35685
2632.2	2.80103
2633.56	3.63659
2634.92	3.47048
2636.28	3.13305
2637.63	2.96501
2638.99	2.8965
2640.35	2.99401
2641.71	2.96045
2643.06	2.60461
2644.42	2.0768
2645.77	1.66065
2647.13	1.71006
2648.49	1.3207
2649.84	0.707654
2651.2	0.455149
2652.55	0.427316
2653.91	0.0492642
2655.26	0.534485
2656.62	0.829894
2657.97	0.984698
2659.33	0.439779
2660.68	0.666193
2662.03	0.890777
2663.39	0.415921
2664.74	0.79116
2666.09	0.479098
2667.44	0.722077
2668.8	1.05792
2670.15	0.870766
2671.5	1.13758
2672.85	1.89922
2674.2	2.27953
2675.55	2.70178
2676.91	2.99132
2678.26	2.78338
2679.61	2.76881
2680.96	2.77167
2682.31	2.81202
2683.66	3.23833
2685	3.33403
2686.35	3.25673
2687.7	3.26014
2689.05	3.43162
2690.4	3.80107
2691.75	4.24303
2693.1	4.71232
2694.44	5.0547
2695.79	5.4986
2697.14	5.55969
2698.49	6.24103
2699.83	6.77888
2701.18	6.70038
2702.52	7.19329
2703.87	7.56738
2705.22	8.1517
2706.56	8.74784
2707.91	8.83977
2709.25	8.82909
2710.6	8.6964
2711.94	9.08701
2713.29	9.79536
2714.63	10.3708
2715.97	10.7315
2717.32	11.0371
2718.66	11.5284
2720.01	12.8363
2721.35	13.633
2722.69	14.0931
2724.03	14.48
2725.38	15.0718
2726.72	15.2792
2728.06	15.9554
2729.4	15.9879
2730.74	15.8556
2732.08	16.1156
2733.42	15.8816
2734.76	16.4303
2736.1	16.3703
2737.44	16.1814
2738.78	16.0223
2740.12	16.1483
2741.46	15.5582
2742.8	14.8512
2744.14	14.4837
2745.48	14.0649
2746.82	13.1358
2748.16	12.2193
2749.49	11.5996
2750.83	10.6721
2752.17	9.99528
2753.51	9.6223
2754.84	8.94717
2756.18	8.82059
2757.52	8.35193
2758.85	7.53572
2760.19	6.48887
2761.53	5.43346
2762.86	4.79587
2764.2	4.47578
2765.53	3.93112
2766.87	3.12507
2768.2	2.37147
2769.54	2.38784
2770.87	1.72694
2772.2	1.43028
2773.54	0.723475
2774.87	0.399526
2776.2	0.193519
2777.54	0.0642365
2778.87	-0.14958
2780.2	-0.243046
2781.53	-0.932967
2782.87	-0.713013
2784.2	-0.771725
2785.53	-0.81187
2786.86	-1.21642
2788.19	-1.63744
2789.52	-1.40247
2790.85	-0.896418
2792.18	-0.667096
2793.51	-0.486487
2794.84	-0.530111
2796.17	-0.95576
2797.5	-0.842111
2798.83	-0.34562
2800.16	0.0210398
2801.49	0.120052
2802.82	0.46692
2804.15	0.625074
2805.47	0.789246
2806.8	1.26392
2808.13	1.26788
2809.46	0.970223
2810.78	1.79119
2812.11	0.911013
2813.44	0.481184
2814.76	1.06788
2816.09	1.21356
2817.42	1.91353
2818.74	3.36653
2820.07	4.5686
2821.39	5.67912
2822.72	7.0787
2824.04	8.53233
2825.37	10.6349
2826.69	13.2643
2828.02	15.9548
2829.34	18.8313
2830.66	21.5127
2831.99	23.79
2833.31	27.061
2834.63	30.6549
2835.96	33.8521
2837.28	37.531
2838.6	41.2875
2839.92	45.7132
2841.24	50.0133
2842.57	54.3419
2843.89	59.4836
2845.21	64.8236
2846.53	70.4179
2847.85	76.0737
2849.17	82.8911
2850.49	88.5675
2851.81	94.5601
2853.13	101.168
2854.45	107.953
2855.77	115.339
2857.09	121.798
2858.41	128.498
2859.72	134.91
2861.04	140.75
2862.36	146.497
2863.68	152.582
2865	158.367
2866.31	163.352
2867.63	169.024
2868.95	174.513
2870.26	179.233
2871.58	183.141
2872.9	187.551
2874.21	191.412
2875.53	194.782
2876.84	198.331
2878.16	201.054
2879.47	204.41
2880.79	207.325
2882.1	210.569
2883.42	214.277
2884.73	217.615
2886.05	220.653
2887.36	223.198
2888.67	226.283
2889.99	229.816
2891.3	232.763
2892.61	235.682
2893.92	238.224
2895.24	241.118
2896.55	244.568
2897.86	248.14
2899.17	251.596
2900.48	255.704
2901.79	260.433
2903.11	265.862
2904.42	270.797
2905.73	276.354
2907.04	282.715
2908.35	289.543
2909.66	296.86
2910.97	304.564
2912.27	312.093
2913.58	319.462
2914.89	327.012
2916.2	333.769
2917.51	341.102
2918.82	348.442
2920.13	354.884
2921.43	360.907
2922.74	366.068
2924.05	370.322
2925.35	373.967
2926.66	377.068
2927.97	380.349
2929.27	383.072
2930.58	384.492
2931.89	385.676
2933.19	386.168
2934.5	384.76
2935.8	382.739
2937.11	381.097
2938.41	378.983
2939.72	375.715
2941.02	371.598
2942.32	367.453
2943.63	362.484
2944.93	357.224
2946.24	351.857
2947.54	346.571
2948.84	340.451
2950.14	333.697
2951.45	327.29
2952.75	320.865
2954.05	314.661
2955.35	308.02
2956.65	301.21
2957.95	294.355
2959.26	286.724
2960.56	280.336
2961.86	273.91
2963.16	267.305
2964.46	260.289
2965.76	254.369
2967.06	248.445
2968.36	241.866
2969.66	235.444
2970.96	230.241
2972.25	225.025
2973.55	219.511
2974.85	214.644
2976.15	209.122
2977.45	203.766
2978.74	198.009
2980.04	192.592
2981.34	187.12
2982.64	180.867
2983.93	174.584
2985.23	168.355
2986.52	161.93
2987.82	155.869
2989.12	149.384
2990.41	143.437
2991.71	136.831
2993	130.44
2994.3	124.011
2995.59	117.596
2996.89	112.188
2998.18	105.858
2999.48	100.076
3000.77	95.0439
3002.06	90.1954
3003.36	84.4487
3004.65	79.4194
3005.94	74.9114
3007.23	71.0458
3008.53	66.7908
3009.82	63.1098
3011.11	59.7055
3012.4	56.9718
3013.69	54.018
3014.99	51.4767
3016.28	49.4213
3017.57	46.8398
3018.86	44.1192
3020.15	41.7021
3021.44	39.35
3022.73	37.0703
3024.02	35.2812
3025.31	34.527
3026.6	32.751
3027.89	31.176
3029.18	29.8487
3030.46	28.9396
3031.75	28.5432
3033.04	27.7208
3034.33	27.6284
3035.62	28.3281
3036.9	28.3446
3038.19	28.8922
3039.48	29.557
3040.76	30.2732
3042.05	31.6611
3043.34	31.709
3044.62	32.3824
3045.91	33.2671
3047.19	34.4131
3048.48	35.4307
3049.77	36.1495
3051.05	36.5037
3052.34	37.3645
3053.62	37.962
3054.9	38.2616
3056.19	38.2089
3057.47	38.9688
3058.76	38.8174
3060.04	39.2535
3061.32	39.1586
3062.61	38.9928
3063.89	38.699
3065.17	38.2366
3066.45	37.7502
3067.74	36.9217
3069.02	36.3609
3070.3	35.7599
3071.58	34.4532
3072.86	32.7583
3074.14	31.3771
3075.42	29.9817
3076.7	28.4822
3077.99	26.3342
3079.26	24.6753
3080.54	22.7012
3081.82	20.8338
3083.1	19.1326
3084.38	17.3342
3085.66	15.7301
3086.94	14.0111
3088.22	12.5016
3089.5	11.054
3090.78	9.37279
3092.05	8.1991
3093.33	7.41428
3094.61	6.55016
3095.89	5.5945
3097.16	4.52108
3098.44	3.94495
3099.72	2.90843
3100.99	1.89357
3102.27	1.82486
3103.54	2.00747
3104.82	1.57449
3106.1	1.15785
3107.37	0.837362
3108.65	1.06195
3109.92	1.38968
3111.2	1.08328
3112.47	0.237876
3113.74	-0.0454871
3115.02	-0.152749
3116.29	0.102797
3117.56	0.0112402
3118.84	-0.275723
3120.11	-0.402414
3121.38	-0.172925
3122.66	-0.307926
3123.93	0.4946
3125.2	0.300154
3126.47	0.620112
3127.74	0.256167
3129.01	0.220997
3130.29	0.0268502
3131.56	-0.0938929
3132.83	0.264708
3134.1	0.276852
3135.37	-0.0512078
3136.64	0.274772
3137.91	0.8937
3139.18	1.25918
3140.45	1.59646
3141.72	1.70179
3142.99	2.03897
3144.26	2.25676
3145.52	2.48931
3146.79	2.72644
3148.06	3.04541
3149.33	3.38295
