#Acq. time (s)=	45
#Accumulations=	2
#Range (cm-¹)=	200...3150
#Windows=	2
#Auto scanning=	Off
#Autofocus=	Off
#Macrospot=	Off
#AutoExposure=	Off
#Spike filter=	Multiple accum.
#Delay time (s)=	0
#Binning=	1
#Readout mode=	Signal
#DeNoise=	Off
#ICS correction=	On
#Dark correction=	Off
#Inst. Process=	Off
#Detector Gain=	Best Dynamic Range
#Detector ADC=	20 kHz       
#Detector temperature (°C)=	-69.85
#Instrument=	LabRAM HR Evol
#Detector=	Synapse
#Objective=	x100
#Grating=	600 gr/mm
#ND Filter=	100%
#Laser (nm)=	532 
#Hole=	100.021
#Range=	Auto
#Laser Pol.=	No
#Raman. Pol.=	No
#Laser Pol. (°)=	-0.0007625
#Raman Pol. (°)=	89.9995
#Collection=	Microscope
#StageXY=	Marzhauser
#StageZ=	Marzhauser
#X (µm)=	-5106.8
#Y (µm)=	1508.8
#Z (µm)=	63.1
#Full time(mm:ss)=	3:19
#Project=	
#Sample=	
#Site=	
#Title=	Thy_50_12_10_2x_45s_532 nm_x100_100%_600 gr_mm
#Remark=	
#Date=	07.07.2022 09:56
#Acquired=	07.07.2022 09:56:57
#Base:Fit=	10.08.2022 10:03:08
#Base:Fit=	10.08.2022 10:03:15
#Base:Fit=	10.08.2022 10:03:19
#Base:Fit=	10.08.2022 10:04:29
#Base:Sub=	10.08.2022 10:04:45
#Filter:Polynom=	16.08.2022 10:20:24
#AxisType[0]=Intens
#AxisUnit[0]=Cnt
#AxisType[1]=Spectr
#AxisUnit[1]=1/cm
200.43	8.8805
202.246	9.07118
204.061	7.43778
205.875	7.15038
207.688	6.05218
209.501	5.17526
211.316	4.94925
213.129	5.29553
214.941	4.6336
216.753	4.11079
218.566	4.28565
220.377	3.26518
222.188	2.40051
223.999	2.32826
225.809	1.76382
227.618	1.41917
229.43	1.48206
231.239	1.04341
233.047	0.807801
234.855	1.59997
236.663	1.4981
238.471	1.07623
240.278	1.47587
242.087	2.81206
243.894	2.86272
245.7	2.67728
247.506	2.43604
249.311	2.55885
251.116	3.27109
252.921	3.74204
254.725	3.37483
256.529	3.28969
258.333	3.5915
260.136	3.1242
261.939	3.8699
263.744	4.79271
265.546	5.71309
267.348	7.7345
269.15	8.48972
270.951	9.84733
272.752	9.0694
274.552	10.2003
276.353	10.3945
278.152	11.2248
279.952	12.0023
281.751	13.2313
283.55	12.4316
285.348	13.5511
287.146	13.468
288.942	14.4488
290.739	16.0496
292.536	16.0426
294.333	16.7271
296.129	16.4388
297.925	17.8819
299.721	19.1097
301.516	18.1133
303.311	17.2271
305.106	16.2834
306.9	16.5647
308.694	17.1822
310.486	16.0031
312.279	16.1738
314.072	15.8167
315.864	15.1053
317.656	14.7357
319.448	15.0082
321.24	15.1114
323.029	14.9362
324.819	15.0684
326.61	14.5156
328.4	14.4182
330.19	14.178
331.977	13.5905
333.766	11.5163
335.555	10.5021
337.343	10.1727
339.131	10.2076
340.917	10.589
342.704	10.9565
344.491	10.1783
346.277	9.72309
348.062	9.84633
349.848	9.95103
351.633	10.2094
353.416	9.53001
355.201	9.10572
356.986	9.47174
358.77	8.34913
360.552	8.53987
362.335	7.91274
364.118	7.75537
365.899	6.60782
367.682	7.27409
369.464	7.1638
371.243	6.88062
373.025	6.36575
374.806	5.93364
376.585	6.17719
378.365	6.6281
380.143	6.71301
381.923	6.47368
383.702	6.71213
385.479	6.33022
387.258	6.71062
389.034	5.74808
390.812	4.70304
392.59	5.46661
394.365	5.81653
396.142	6.1335
397.916	5.76794
399.693	4.59587
401.467	5.33766
403.242	4.5692
405.015	5.24914
406.79	5.42715
408.565	6.13717
410.337	5.97876
412.111	5.3473
413.882	5.09863
415.656	4.89007
417.426	4.59635
419.197	4.3175
420.969	5.05091
422.739	4.58513
424.51	4.65553
426.279	5.02209
428.05	5.09575
429.819	4.99654
431.589	4.63377
433.356	3.9795
435.124	4.22077
436.893	3.58096
438.66	3.79591
440.428	3.74067
442.194	3.66442
443.96	5.26021
445.727	5.95213
447.492	5.80402
449.259	6.77166
451.023	6.96848
452.787	7.32293
454.553	8.49662
456.316	8.60114
458.079	8.24817
459.844	8.25546
461.606	8.88836
463.368	9.67752
465.132	11.5227
466.893	12.2155
468.654	12.8974
470.415	13.7329
472.177	12.3457
473.937	12.7479
475.696	14.191
477.456	14.5102
479.217	15.4914
480.975	16.0579
482.733	15.5514
484.491	15.402
486.251	15.7287
488.008	15.4281
489.765	15.5954
491.522	15.2296
493.278	15.2958
495.036	15.3722
496.791	15.4604
498.546	15.505
500.301	15.384
502.056	16.1885
503.81	17.1664
505.566	17.4857
507.319	17.7325
509.073	18.5435
510.825	17.5451
512.578	18.1167
514.33	18.6503
516.082	18.8422
517.833	19.5745
519.587	19.2229
521.337	19.1467
523.088	18.7298
524.838	17.9678
526.588	18.501
528.337	19.4273
530.087	19.219
531.835	19.9782
533.584	18.6129
535.332	18.3053
537.08	16.8499
538.827	16.4333
540.574	15.9244
542.321	15.0333
544.068	14.1857
545.814	14.5229
547.56	14.4865
549.305	14.9838
551.05	14.8491
552.795	14.2172
554.54	13.7039
556.284	12.8221
558.027	11.7458
559.771	10.3508
561.514	11.0698
563.257	10.0318
564.999	9.00557
566.742	7.93967
568.481	7.24582
570.223	6.1409
571.964	6.0836
573.705	5.5024
575.445	4.99581
577.185	5.61318
578.925	5.36064
580.665	4.87352
582.402	6.0124
584.141	5.85358
585.879	6.04257
587.617	5.38434
589.355	5.84485
591.092	4.83509
592.828	4.15378
594.564	4.54334
596.301	4.15181
598.037	4.11028
599.773	5.16409
601.506	5.53384
603.242	5.78503
604.976	5.64813
606.711	4.8759
608.443	5.56711
610.177	6.30821
611.91	6.77405
613.644	7.05759
615.374	7.87152
617.107	6.53091
618.839	6.12521
620.569	4.651
622.3	5.51012
624.032	5.60853
625.761	7.53882
627.491	7.62349
629.221	8.80793
630.949	9.92978
632.679	10.423
634.408	10.6216
636.135	10.9861
637.863	10.5611
639.592	11.3524
641.318	12.0215
643.045	12.1647
644.77	11.9162
646.497	12.9149
648.224	13.6564
649.948	13.8765
651.674	15.2517
653.398	15.6913
655.123	16.7422
656.846	16.6519
658.57	17.4781
660.293	18.4124
662.017	18.9556
663.738	18.7554
665.462	18.4086
667.185	18.4825
668.905	19.2505
670.628	18.4122
672.348	18.2157
674.067	17.7526
675.789	17.7365
677.508	18.0945
679.228	19.4484
680.947	19.8696
682.667	20.2433
684.385	21.4728
686.104	21.8789
687.821	21.265
689.538	21.116
691.256	20.7451
692.972	20.4978
694.69	20.9084
696.406	20.636
698.121	20.1012
699.837	19.4693
701.552	18.678
703.268	16.9095
704.982	16.6953
706.695	16.6799
708.41	18.3176
710.123	18.6387
711.836	19.6377
713.55	20.1833
715.262	21.9179
716.973	23.0527
718.685	23.6699
720.398	24.1061
722.108	25.0802
723.818	26.4976
725.53	27.8939
727.24	27.702
728.949	27.4318
730.658	27.8012
732.369	30.1927
734.077	30.8884
735.785	32.3421
737.493	33.6815
739.2	35.0896
740.909	36.6358
742.616	37.6853
744.322	39.0252
746.028	39.7439
747.734	40.7036
749.441	42.178
751.146	43.6496
752.851	45.1472
754.555	46.7008
756.26	47.8427
757.963	49.2423
759.667	51.4492
761.372	53.5081
763.075	54.8486
764.777	56.3029
766.479	57.324
768.181	59.5535
769.883	61.3326
771.584	62.244
773.285	62.5357
774.986	63.7932
776.686	65.0982
778.386	66.7646
780.085	66.9963
781.785	67.5003
783.484	67.9331
785.182	68.6165
786.881	68.7059
788.579	69.6962
790.276	70.3875
791.974	72.7806
793.671	73.8501
795.367	74.7273
797.064	75.6029
798.76	76.6863
800.456	77.3388
802.151	76.2913
803.846	75.4692
805.541	74.989
807.236	74.396
808.93	74.413
810.624	73.0151
812.317	72.3468
814.01	72.3278
815.703	72.1518
817.394	72.0423
819.086	71.5406
820.778	71.2448
822.47	71.5351
824.161	72.1824
825.852	71.6662
827.543	71.0034
829.231	70.1208
830.921	70.0984
832.611	70.9984
834.3	69.5415
835.989	68.8703
837.676	68.0258
839.364	67.4385
841.053	67.3699
842.74	66.1267
844.426	66.0362
846.113	63.8763
847.8	62.619
849.486	62.4973
851.171	61.3173
852.857	60.9672
854.542	59.7929
856.227	58.0206
857.911	56.8778
859.595	56.0828
861.279	55.645
862.961	54.3198
864.645	53.6481
866.329	55.0027
868.01	55.1029
869.692	54.5445
871.375	53.7486
873.055	54.2893
874.737	53.0434
876.418	53.4414
878.097	51.5881
879.778	50.8908
881.457	49.8277
883.137	48.7585
884.817	47.5753
886.495	47.0841
888.174	46.8919
889.851	46.3988
891.53	45.5798
893.206	45.3391
894.884	44.1572
896.562	44.2126
898.237	44.3329
899.914	42.7914
901.589	42.9037
903.265	43.0886
904.94	43.0087
906.615	42.84
908.289	42.18
909.964	40.901
911.637	39.4503
913.31	39.1832
914.984	39.4667
916.656	38.7493
918.33	37.4475
920.001	37.4125
921.674	37.2537
923.345	37.4939
925.015	36.1403
926.687	34.4834
928.357	34.7767
930.028	33.8883
931.698	33.8368
933.366	33.0194
935.037	33.1011
936.705	33.5982
938.373	33.3585
940.043	33.4779
941.71	34.3162
943.379	35.3434
945.046	36.2424
946.712	36.3519
948.378	37.8986
950.046	39.0117
951.711	38.6074
953.376	38.8714
955.043	39.4819
956.708	39.5569
958.372	38.9293
960.036	39.2418
961.701	39.2727
963.364	38.8407
965.027	38.8449
966.69	38.9981
968.354	39.3285
970.016	39.2467
971.678	38.8007
973.339	37.998
975	37.5284
976.661	37.2337
978.324	36.8636
979.984	36.919
981.644	35.57
983.303	34.1243
984.962	34.501
986.621	34.734
988.282	34.6257
989.94	34.1038
991.598	33.5314
993.256	33.2514
994.913	32.5493
996.57	32.3381
998.227	32.3517
999.884	31.6666
1001.54	30.9136
1003.2	29.654
1004.85	28.34
1006.51	27.4869
1008.16	26.8507
1009.82	26.5844
1011.47	27.7338
1013.12	27.2085
1014.78	27.5096
1016.43	28.0158
1018.08	28.8799
1019.74	28.3508
1021.39	28.4918
1023.04	29.5658
1024.69	30.2845
1026.34	30.8568
1028	31.2177
1029.65	31.772
1031.3	33.6107
1032.95	34.3453
1034.6	34.5541
1036.25	35.3601
1037.9	34.1415
1039.55	34.3703
1041.19	35.0809
1042.84	34.815
1044.49	35.2351
1046.14	35.1804
1047.79	35.8748
1049.43	35.6952
1051.08	35.3733
1052.73	35.4994
1054.37	35.3898
1056.02	34.3301
1057.66	33.5873
1059.31	32.8328
1060.95	32.2163
1062.6	32.3502
1064.24	31.5632
1065.88	32.4428
1067.53	31.5239
1069.17	30.7514
1070.81	29.4792
1072.46	28.236
1074.1	27.1929
1075.74	26.9149
1077.38	24.9573
1079.02	24.0159
1080.66	23.0691
1082.3	21.8623
1083.94	21.091
1085.58	21.0534
1087.22	20.0963
1088.86	20.4086
1090.5	20.3508
1092.14	20.2062
1093.78	20.0434
1095.42	19.1802
1097.05	19.5648
1098.69	19.4091
1100.33	18.7432
1101.97	18.7033
1103.6	19.6171
1105.24	20.5661
1106.87	20.0494
1108.51	20.7611
1110.15	20.5023
1111.78	21.3807
1113.41	21.959
1115.05	21.7659
1116.68	21.6043
1118.31	21.1834
1119.95	21.4311
1121.58	21.6529
1123.21	22.2458
1124.85	21.4607
1126.48	20.967
1128.11	20.8605
1129.74	20.9663
1131.37	21.2161
1133	21.4413
1134.63	21.9842
1136.26	21.8168
1137.89	21.5463
1139.52	21.1559
1141.15	21.1325
1142.78	21.5476
1144.41	21.0859
1146.04	19.4389
1147.66	19.6081
1149.29	17.8422
1150.92	16.8202
1152.55	16.0039
1154.17	15.6898
1155.8	15.0608
1157.43	14.2083
1159.05	13.0724
1160.68	12.5191
1162.3	12.439
1163.93	12.723
1165.55	11.9861
1167.17	11.6063
1168.8	10.4718
1170.42	9.68851
1172.05	9.05494
1173.67	8.7708
1175.29	8.15061
1176.91	8.88758
1178.54	8.84619
1180.16	8.4054
1181.78	8.27387
1183.4	8.88625
1185.02	8.71036
1186.64	9.67799
1188.26	9.94799
1189.88	11.0292
1191.5	11.3459
1193.12	11.6813
1194.74	11.7008
1196.36	12.0216
1197.97	12.9739
1199.59	13.9296
1201.21	14.6591
1202.83	15.3181
1204.44	18.1214
1206.06	19.0101
1207.68	20.6293
1209.29	23.0998
1210.91	24.2817
1212.52	25.2419
1214.14	26.0815
1215.75	28.2143
1217.37	29.8188
1218.98	30.5914
1220.6	31.451
1222.21	32.7292
1223.82	34.8042
1225.44	34.9521
1227.05	35.9555
1228.66	37.5509
1230.27	36.7337
1231.88	38.1762
1233.49	39.5589
1235.1	40.5275
1236.72	40.8624
1238.33	41.6761
1239.94	42.6421
1241.55	43.0466
1243.16	43.6334
1244.76	44.2057
1246.37	43.9833
1247.98	45.4628
1249.59	45.4762
1251.2	45.0528
1252.8	46.0746
1254.41	47.7549
1256.02	48.6535
1257.63	50.1558
1259.23	51.6163
1260.84	53.6876
1262.44	54.9538
1264.05	56.6973
1265.66	57.8927
1267.26	59.4262
1268.87	60.3775
1270.47	62.0856
1272.07	64.1035
1273.68	64.5377
1275.28	65.7338
1276.88	67.172
1278.48	69.2647
1280.09	70.4544
1281.69	71.2881
1283.29	72.5778
1284.89	73.1498
1286.49	73.3532
1288.09	73.1003
1289.69	74.1053
1291.3	74.5555
1292.9	75.8609
1294.49	76.7994
1296.09	77.462
1297.69	77.1294
1299.29	76.2247
1300.89	76.7805
1302.49	76.9882
1304.09	76.4763
1305.68	75.5019
1307.28	74.9333
1308.88	74.8816
1310.47	74.1361
1312.07	73.3319
1313.66	72.2093
1315.26	71.6227
1316.86	71.435
1318.45	71.4915
1320.05	70.9177
1321.64	70.1893
1323.23	69.5239
1324.83	68.6415
1326.42	66.477
1328.01	64.9719
1329.61	63.5101
1331.2	61.793
1332.79	62.2911
1334.38	61.5925
1335.98	60.6356
1337.57	60.7015
1339.16	59.9904
1340.75	58.3055
1342.34	56.7496
1343.93	55.6005
1345.52	54.1826
1347.11	53.1782
1348.7	52.8438
1350.29	52.3597
1351.87	51.5819
1353.46	49.5679
1355.05	49.7813
1356.64	49.4397
1358.23	49.0737
1359.81	47.6829
1361.4	46.7155
1362.99	46.5478
1364.57	45.9348
1366.16	45.5289
1367.74	44.8401
1369.33	45.263
1370.91	45.0887
1372.5	44.7283
1374.08	44.7428
1375.67	44.7262
1377.25	45.251
1378.83	45.8708
1380.42	47.1448
1382	46.8066
1383.58	47.274
1385.16	47.6149
1386.75	47.2548
1388.33	48.3047
1389.91	48.3912
1391.49	48.787
1393.07	49.5225
1394.65	48.8248
1396.23	48.6385
1397.81	48.1212
1399.39	46.8467
1400.97	45.7429
1402.55	44.2921
1404.13	43.8037
1405.7	43.0802
1407.28	43.102
1408.86	43.2891
1410.44	42.6378
1412.01	43.512
1413.59	42.6606
1415.17	43.8261
1416.74	44.8767
1418.32	45.2677
1419.89	45.1041
1421.47	45.9181
1423.05	47.3717
1424.62	49.319
1426.19	51.4532
1427.77	53.9997
1429.34	55.7567
1430.92	58.1959
1432.49	60.3598
1434.06	62.9887
1435.63	64.8435
1437.2	67.5725
1438.78	69.2778
1440.35	71.0353
1441.92	72.9989
1443.49	73.9786
1445.06	75.2169
1446.63	76.5099
1448.2	77.6722
1449.77	78.488
1451.34	77.9461
1452.91	78.1711
1454.48	78.0558
1456.05	78.1437
1457.62	78.3165
1459.18	77.6578
1460.75	76.764
1462.32	76.1865
1463.89	74.5517
1465.45	72.9324
1467.02	71.3239
1468.59	68.8387
1470.15	66.302
1471.72	63.1598
1473.28	60.9505
1474.85	58.1081
1476.41	55.7558
1477.98	52.9613
1479.54	50.2469
1481.11	47.8999
1482.67	45.8112
1484.23	43.2413
1485.8	40.5983
1487.36	38.1792
1488.92	36.7579
1490.48	34.4259
1492.05	32.6634
1493.61	31.732
1495.17	30.8982
1496.73	29.1285
1498.29	28.2796
1499.85	27.9541
1501.41	27.781
1502.97	28.4135
1504.53	28.3863
1506.09	27.7618
1507.65	27.9075
1509.2	27.5974
1510.76	27.9807
1512.32	27.6855
1513.88	27.6875
1515.44	28.0589
1516.99	27.5799
1518.55	28.0733
1520.1	28.1137
1521.66	28.1275
1523.22	28.8303
1524.77	29.0714
1526.33	29.6512
1527.88	30.291
1529.44	31.4262
1530.99	32.7671
1532.55	34.0493
1534.1	35.6587
1535.65	36.6896
1537.21	38.3946
1538.76	39.6921
1540.31	40.6954
1541.86	41.6477
1543.42	43.3837
1544.97	45.0609
1546.52	47.5156
1548.07	49.7783
1549.62	52.2199
1551.17	53.898
1552.72	55.0415
1554.27	57.1493
1555.82	58.2007
1557.37	60.2447
1558.92	60.9095
1560.47	62.1179
1562.02	63.6805
1563.57	64.7473
1565.11	65.9578
1566.66	66.8907
1568.21	67.7792
1569.75	69.5413
1571.3	70.369
1572.85	71.6366
1574.39	72.3404
1575.94	72.9112
1577.49	73.0259
1579.03	73.9203
1580.58	74.1073
1582.12	73.9775
1583.67	74.0751
1585.21	74.5284
1586.75	73.7423
1588.3	74.5405
1589.84	74.0893
1591.38	73.4319
1592.93	73.1484
1594.47	72.777
1596.01	72.9555
1597.55	71.7657
1599.09	71.4221
1600.63	71.1589
1602.18	69.9562
1603.72	69.9008
1605.26	70.1015
1606.8	69.3675
1608.34	67.9437
1609.87	67.2558
1611.41	66.7076
1612.95	66.397
1614.49	65.8614
1616.03	65.0089
1617.57	64.8949
1619.11	64.3769
1620.64	64.4446
1622.18	65.3219
1623.72	65.9341
1625.25	65.5154
1626.79	65.1158
1628.32	63.7171
1629.86	63.361
1631.4	62.7939
1632.93	62.5292
1634.47	62.8673
1636	61.6471
1637.53	62.7838
1639.07	62.4869
1640.6	62.1711
1642.14	62.4643
1643.67	62.7738
1645.2	63.5114
1646.73	63.9804
1648.27	64.2786
1649.8	64.5434
1651.33	65.0446
1652.86	64.6208
1654.39	64.8399
1655.92	65.0066
1657.45	64.3018
1658.98	65.2723
1660.51	64.2502
1662.04	63.768
1663.57	62.9588
1665.1	62.013
1666.63	61.1247
1668.16	60.2365
1669.69	59.5995
1671.21	59.0826
1672.74	57.7927
1674.27	56.0529
1675.79	54.834
1677.32	52.7374
1678.85	50.5664
1680.37	48.489
1681.9	47.034
1683.42	44.766
1684.95	43.1374
1686.47	41.3917
1688	40.249
1689.52	38.2081
1691.05	35.3548
1692.57	33.7309
1694.1	31.9824
1695.62	30.4042
1697.14	29.3572
1698.66	28.21
1700.19	25.6543
1701.71	23.9726
1703.23	22.1726
1704.75	21.2255
1706.27	19.8235
1707.79	18.6874
1709.32	17.6405
1710.83	16.4274
1712.35	15.2857
1713.88	14.9334
1715.39	14.062
1716.91	14.6401
1718.43	14.8179
1719.95	14.9407
1721.47	14.802
1722.99	14.106
1724.5	13.8621
1726.02	13.7596
1727.54	14.3784
1729.06	13.5389
1730.57	13.0654
1732.09	12.8571
1733.61	12.5962
1735.12	12.5859
1736.64	11.9317
1738.15	11.7954
1739.67	11.4493
1741.18	11.8817
1742.7	11.8831
1744.21	11.2177
1745.72	10.1938
1747.24	10.2603
1748.75	9.05212
1750.26	8.14828
1751.78	7.4695
1753.29	6.92976
1754.8	7.36902
1756.31	6.89387
1757.82	7.30484
1759.34	7.06607
1760.85	6.48108
1762.36	5.61041
1763.87	4.81294
1765.38	3.64172
1766.89	2.59697
1768.4	2.21744
1769.91	2.2876
1771.41	1.61954
1772.92	0.93444
1774.43	0.637786
1775.94	0.0972608
1777.45	0.0910506
1778.96	-0.851497
1780.46	-0.734104
1781.97	-1.3713
1783.48	-0.857539
1784.98	-0.699107
1786.49	-0.733511
1788	-0.169974
1789.5	0.048576
1791.01	0.504384
1792.51	1.27515
1794.01	1.3088
1795.52	1.11054
1797.02	0.786762
1798.53	0.960837
1800.03	1.25674
1801.54	1.22806
1803.04	1.45784
1804.54	1.10472
1806.04	1.22965
1807.54	1.81479
1809.05	2.03735
1810.55	2.30546
1812.05	2.77468
1813.55	3.44578
1815.05	3.31157
1816.55	3.84181
1818.05	3.60269
1819.55	3.83522
1821.05	4.44635
1822.55	4.54926
1824.05	3.68088
1825.55	3.80293
1827.05	3.83952
1828.55	4.01328
1830.04	4.12385
1831.54	3.72714
1833.04	3.841
1834.54	3.83854
1836.03	3.44534
1837.53	3.45524
1839.03	3.44927
1840.52	3.11442
1842.02	2.8511
1843.51	2.97474
1845.01	2.98768
1846.5	2.51827
1848	2.67188
1849.49	3.02509
1850.99	2.55625
1852.48	3.05347
1853.97	2.59243
1855.47	3.36414
1856.96	3.67962
1858.45	3.83613
1859.94	3.70372
1861.44	3.17862
1862.93	3.35711
1864.42	4.05836
1865.91	4.7826
1867.4	4.74059
1868.89	4.22588
1870.38	3.89154
1871.87	4.12811
1873.36	4.59201
1874.85	4.33213
1876.34	4.82419
1877.83	5.31434
1879.32	5.62138
1880.81	6.17538
1882.3	7.03585
1882.56	6.93376
1884.06	6.99674
1885.55	7.38013
1887.04	7.61755
1888.54	7.32129
1890.03	7.66417
1891.52	7.47985
1893.02	7.53304
1894.51	7.69859
1896	7.55928
1897.49	7.67047
1898.99	8.32052
1900.48	8.48865
1901.97	8.56443
1903.46	8.43019
1904.95	8.52414
1906.44	8.15117
1907.93	7.90494
1909.42	8.17898
1910.91	7.82437
1912.4	7.8086
1913.89	7.27791
1915.38	6.8934
1916.86	6.19725
1918.35	6.1071
1919.84	6.24128
1921.33	6.41075
1922.82	6.05498
1924.3	5.24775
1925.79	5.17382
1927.28	4.49597
1928.76	4.93993
1930.25	5.19912
1931.74	5.17814
1933.22	4.93453
1934.71	4.27781
1936.19	4.1327
1937.67	4.79389
1939.16	3.98173
1940.64	3.45972
1942.13	4.01842
1943.61	3.67172
1945.09	3.7646
1946.58	4.22408
1948.06	4.92356
1949.54	5.48803
1951.03	6.09311
1952.51	6.68038
1953.99	6.56033
1955.47	6.11256
1956.95	6.23113
1958.43	6.58466
1959.91	6.83406
1961.39	6.52939
1962.87	6.72427
1964.35	6.20647
1965.83	6.48841
1967.31	6.60742
1968.79	6.74024
1970.27	6.24294
1971.75	6.55521
1973.22	6.41316
1974.7	5.32277
1976.18	4.78919
1977.66	4.9493
1979.13	4.50257
1980.61	4.18036
1982.09	4.19555
1983.56	3.83707
1985.04	3.02975
1986.52	3.32301
1987.99	2.85963
1989.47	2.65524
1990.94	2.71267
1992.41	2.72642
1993.89	3.30341
1995.36	2.7672
1996.84	2.58672
1998.31	2.49139
1999.78	3.10229
2001.26	3.12571
2002.73	3.6333
2004.2	3.83663
2005.67	4.00214
2007.15	3.77361
2008.62	3.83693
2010.09	4.66206
2011.56	5.1698
2013.03	5.27426
2014.5	5.70929
2015.97	6.09473
2017.44	5.80591
2018.91	6.4301
2020.38	7.46881
2021.85	8.11891
2023.32	7.80064
2024.79	8.13436
2026.25	8.25192
2027.72	8.32908
2029.19	8.50754
2030.66	8.72102
2032.13	8.27955
2033.59	8.29091
2035.06	8.62292
2036.53	9.1259
2037.99	8.6842
2039.46	9.36545
2040.92	9.93272
2042.39	10.493
2043.85	10.4118
2045.32	10.7649
2046.78	9.80918
2048.25	9.50284
2049.71	9.64326
2051.18	9.81446
2052.64	9.22484
2054.1	9.5946
2055.56	9.52416
2057.03	9.30782
2058.49	10.5839
2059.95	10.8246
2061.42	10.9311
2062.88	11.5092
2064.34	12.2925
2065.8	13.2932
2067.26	14.3329
2068.72	14.3069
2070.18	15.2446
2071.64	16.327
2073.1	17.6041
2074.56	18.4554
2076.02	19.7736
2077.48	20.9025
2078.94	22.0484
2080.39	21.812
2081.85	22.5997
2083.31	23.6547
2084.77	24.3226
2086.22	25.1872
2087.68	25.59
2089.14	26.7266
2090.6	27.7521
2092.05	29.0655
2093.51	30.5635
2094.96	31.2445
2096.42	31.9834
2097.87	32.695
2099.33	33.6244
2100.78	34.1469
2102.24	34.4566
2103.69	35.2815
2105.15	36.8354
2106.6	38.3564
2108.05	39.4328
2109.51	39.8224
2110.96	40.2251
2112.41	41.3023
2113.86	41.8633
2115.32	41.8188
2116.77	42.2902
2118.22	43.2258
2119.67	44.4325
2121.12	44.6792
2122.57	45.722
2124.02	46.7371
2125.47	48.0368
2126.92	48.9621
2128.37	50.0309
2129.82	50.9624
2131.27	52.3442
2132.72	53.0494
2134.17	54.3861
2135.62	55.5948
2137.06	56.7412
2138.51	57.6092
2139.96	58.6428
2141.41	60.4319
2142.85	62.4656
2144.3	64.0693
2145.75	65.2671
2147.19	66.4259
2148.64	67.8759
2150.09	68.1514
2151.53	68.8626
2152.97	70.0201
2154.42	70.9769
2155.86	71.8316
2157.31	72.1212
2158.75	72.5365
2160.2	73.6017
2161.64	75.3222
2163.08	75.7223
2164.53	76.2236
2165.97	75.9957
2167.41	76.2454
2168.86	76.6463
2170.3	76.8267
2171.74	77.1304
2173.18	77.2647
2174.62	77.9024
2176.06	77.8087
2177.5	78.3001
2178.94	78.2417
2180.38	77.0446
2181.82	76.837
2183.26	76.8126
2184.7	76.4279
2186.14	75.9919
2187.58	75.6515
2189.02	75.473
2190.46	75.0855
2191.89	74.5376
2193.33	73.472
2194.77	72.5662
2196.21	70.6322
2197.64	69.6077
2199.08	68.3172
2200.52	67.2734
2201.95	66.0772
2203.39	65.1355
2204.83	64.5568
2206.26	62.9801
2207.7	61.9152
2209.13	61.662
2210.57	61.0453
2212	60.5475
2213.43	60.2395
2214.87	59.195
2216.3	57.5673
2217.73	56.6042
2219.17	55.476
2220.6	54.168
2222.03	52.9479
2223.47	51.94
2224.9	50.979
2226.33	49.3505
2227.76	48.8101
2229.19	47.6449
2230.62	46.7119
2232.05	45.842
2233.49	45.0779
2234.91	44.0532
2236.34	43.4636
2237.77	42.233
2239.2	41.741
2240.63	41.0374
2242.06	39.5621
2243.49	38.8199
2244.92	38.185
2246.35	37.2923
2247.78	36.1408
2249.2	35.1872
2250.63	33.6561
2252.06	32.6512
2253.48	33.1516
2254.91	32.3405
2256.34	31.484
2257.76	31.1896
2259.19	30.2634
2260.61	29.3495
2262.04	29.5018
2263.46	28.5676
2264.89	27.1831
2266.31	25.4852
2267.74	25.2672
2269.16	24.5268
2270.59	24.0908
2272.01	23.5534
2273.43	23.5818
2274.85	23.3419
2276.28	22.8782
2277.7	22.201
2279.12	21.3406
2280.54	21.1297
2281.97	20.5925
2283.39	20.0435
2284.81	19.234
2286.23	18.5438
2287.65	18.3502
2289.07	18.3776
2290.49	17.8011
2291.91	16.4879
2293.33	15.4346
2294.75	14.9819
2296.17	15.0917
2297.59	15.2901
2299.01	15.3475
2300.42	15.659
2301.84	16.0277
2303.26	16.5191
2304.68	17.1257
2306.1	17.7455
2307.51	16.6657
2308.93	16.2974
2310.35	16.638
2311.76	17.0373
2313.18	17.0785
2314.59	17.9511
2316.01	18.4302
2317.43	18.1494
2318.84	17.7717
2320.26	17.9268
2321.67	18.078
2323.08	17.9843
2324.5	18.0424
2325.91	17.4896
2327.33	17.2153
2328.74	17.1123
2330.15	16.7499
2331.56	16.6903
2332.98	16.519
2334.39	15.4681
2335.8	15.5516
2337.21	14.9963
2338.62	14.6739
2340.04	14.2665
2341.45	13.8246
2342.86	13.7747
2344.27	13.3721
2345.68	12.0824
2347.09	11.0055
2348.5	10.4538
2349.91	9.06323
2351.31	8.53634
2352.72	7.86758
2354.13	6.83592
2355.54	5.8518
2356.95	5.73793
2358.36	5.37866
2359.76	4.79667
2361.17	4.50939
2362.58	4.28535
2363.98	4.10155
2365.39	4.68441
2366.8	4.6755
2368.21	5.22385
2369.61	4.81744
2371.02	4.64568
2372.42	3.80855
2373.83	3.65436
2375.23	3.1445
2376.64	2.97722
2378.04	2.15823
2379.44	2.75172
2380.85	3.35342
2382.25	3.6359
2383.66	3.73006
2385.06	3.72393
2386.46	3.87298
2387.86	3.28251
2389.26	4.00645
2390.67	4.7256
2392.07	4.20071
2393.47	4.16093
2394.87	4.7464
2396.27	5.26703
2397.67	5.42534
2399.07	6.23982
2400.47	6.57084
2401.87	6.78961
2403.27	6.76601
2404.67	7.35326
2406.07	8.05116
2407.47	7.15475
2408.87	7.53775
2410.27	7.60729
2411.67	7.3476
2413.07	7.65589
2414.46	6.92466
2415.86	6.21761
2417.26	6.59084
2418.66	6.80995
2420.05	6.38745
2421.45	6.75719
2422.84	6.36743
2424.24	6.30349
2425.64	5.52448
2427.03	5.40603
2428.43	4.96677
2429.82	4.12078
2431.22	3.89508
2432.61	3.05622
2434.01	2.20947
2435.4	2.31927
2436.79	1.70666
2438.19	1.34457
2439.58	0.599023
2440.97	0.623262
2442.37	0.435194
2443.76	0.710895
2445.15	0.574163
2446.54	0.786293
2447.93	1.20164
2449.33	1.08911
2450.72	1.72198
2452.11	1.6564
2453.5	1.72899
2454.89	2.73324
2456.28	3.17687
2457.67	3.61348
2459.06	4.51367
2460.45	4.09289
2461.84	3.84547
2463.23	3.7261
2464.62	3.95799
2466	4.07331
2467.39	3.7907
2468.78	4.29604
2470.17	4.37229
2471.55	5.0098
2472.94	5.16652
2474.33	5.21125
2475.72	4.49283
2477.1	4.27458
2478.49	4.53853
2479.87	4.77861
2481.26	4.89872
2482.65	4.71548
2484.03	4.97903
2485.42	5.27958
2486.8	5.53605
2488.19	5.55841
2489.57	4.91515
2490.95	4.34823
2492.34	3.47435
2493.72	3.05354
2495.1	2.46485
2496.49	3.52564
2497.87	3.14777
2499.25	2.9346
2500.63	3.15952
2502.02	2.90124
2503.4	2.66162
2504.78	2.65218
2506.16	2.86092
2507.54	3.06328
2508.92	3.49101
2510.3	3.85046
2511.68	3.66068
2513.06	3.37023
2514.44	3.26846
2515.82	3.00522
2517.2	3.17754
2518.58	2.8027
2519.96	3.60657
2521.34	2.88358
2522.72	3.53424
2524.1	3.94299
2525.47	3.60557
2526.85	3.78006
2528.23	3.89209
2529.6	3.01309
2530.98	2.20588
2532.36	1.82791
2533.74	2.0448
2535.11	2.40097
2536.49	2.5871
2537.86	3.30334
2539.24	3.86283
2540.61	3.96986
2541.99	4.01515
2543.36	3.63508
2544.74	4.05978
2546.11	5.52021
2547.49	5.28056
2548.86	5.12028
2550.23	4.88376
2551.61	4.82745
2552.98	4.97093
2554.35	5.34559
2555.72	4.94901
2557.09	5.4106
2558.47	4.73691
2559.84	4.79889
2561.21	5.12305
2562.58	4.91593
2563.95	5.61517
2565.32	5.41182
2566.69	4.55885
2568.06	4.95842
2569.43	4.94282
2570.8	4.90926
2572.17	5.09651
2573.54	5.60165
2574.91	5.37679
2576.28	5.48165
2577.65	5.50885
2579.02	5.0531
2580.39	4.2919
2581.75	3.72432
2583.12	3.92422
2584.49	3.72849
2585.85	4.11534
2587.22	3.80456
2588.59	3.62452
2589.95	3.36829
2591.32	3.83927
2592.68	3.30801
2594.05	3.2602
2595.42	2.86911
2596.78	2.00967
2598.15	1.02279
2599.51	0.785778
2600.88	1.75015
2602.24	1.91582
2603.6	1.91831
2604.97	2.16796
2606.33	2.37563
2607.69	2.51978
2609.06	2.43779
2610.42	2.13892
2611.78	0.97226
2613.14	0.787761
2614.51	0.587624
2615.87	-0.556705
2617.23	-0.174654
2618.59	0.160954
2619.95	0.134896
2621.31	0.734645
2622.67	0.980186
2624.03	0.708854
2625.39	0.968727
2626.75	0.936128
2628.11	1.21009
2629.47	1.33865
2630.83	1.27185
2632.19	1.64904
2633.55	1.04212
2634.91	1.52893
2636.26	2.09361
2637.62	1.97058
2638.98	2.27456
2640.34	2.6337
2641.69	2.26585
2643.05	2.20869
2644.41	2.37638
2645.76	2.07925
2647.12	2.08429
2648.48	2.24332
2649.83	2.53686
2651.19	2.49939
2652.54	2.48639
2653.9	2.52285
2655.25	2.29096
2656.6	2.24567
2657.96	2.12126
2659.31	2.20075
2660.67	2.26183
2662.02	2.06999
2663.37	1.93665
2664.73	2.57601
2666.08	2.97873
2667.43	3.60364
2668.78	3.81293
2670.14	2.95691
2671.49	2.85143
2672.84	2.59739
2674.19	2.3494
2675.54	2.49832
2676.89	2.40626
2678.24	1.71489
2679.59	2.35419
2680.94	3.27833
2682.29	3.94562
2683.64	4.15583
2684.99	4.39325
2686.34	4.66675
2687.69	5.35523
2689.04	6.02877
2690.39	5.93755
2691.74	6.26867
2693.08	6.2085
2694.43	6.60048
2695.78	6.50112
2697.13	6.82906
2698.47	7.55484
2699.82	7.59736
2701.17	7.31706
2702.51	8.11476
2703.86	8.14604
2705.21	7.95788
2706.55	8.35237
2707.9	8.59779
2709.24	8.39904
2710.58	8.94785
2711.93	9.0745
2713.27	9.8953
2714.62	10.0599
2715.96	10.0666
2717.3	9.60142
2718.65	9.54042
2719.99	9.51334
2721.33	9.59047
2722.68	9.67315
2724.02	9.86048
2725.36	9.95898
2726.71	10.3591
2728.05	10.5069
2729.39	10.8822
2730.73	11.0164
2732.07	10.622
2733.41	10.3891
2734.75	9.70275
2736.09	8.70343
2737.43	8.6112
2738.77	8.76764
2740.11	8.4957
2741.45	7.96342
2742.79	7.58845
2744.13	7.13363
2745.47	6.72494
2746.81	7.13969
2748.14	6.33476
2749.48	5.44287
2750.82	4.83119
2752.16	4.39424
2753.49	4.3329
2754.83	4.10448
2756.17	3.50176
2757.5	2.70346
2758.84	2.49575
2760.18	1.79416
2761.51	1.23554
2762.85	1.21182
2764.18	1.07191
2765.52	0.699022
2766.85	0.0385426
2768.19	-0.0272997
2769.52	0.609259
2770.86	0.355264
2772.19	0.771337
2773.52	0.852483
2774.86	0.547092
2776.19	0.393307
2777.52	0.507277
2778.86	0.315065
2780.19	0.412275
2781.52	0.167163
2782.85	-0.421906
2784.19	-0.281474
2785.52	0.199867
2786.85	0.311775
2788.18	1.1652
2789.51	1.45638
2790.84	1.78075
2792.17	1.71263
2793.5	1.91283
2794.83	2.30366
2796.16	2.06952
2797.49	1.35371
2798.82	1.69419
2800.15	1.87992
2801.48	1.35333
2802.81	2.32505
2804.13	2.24372
2805.46	1.85283
2806.79	1.8964
2808.12	1.38163
2809.45	2.13878
2810.77	2.67453
2812.1	3.27676
2813.43	4.13595
2814.75	4.14879
2816.08	4.19973
2817.41	4.83353
2818.73	5.27295
2820.06	6.2405
2821.38	7.33878
2822.71	8.22471
2824.03	9.13287
2825.36	10.4034
2826.68	11.9688
2828	13.5803
2829.33	16.0811
2830.65	17.8206
2831.98	19.5778
2833.3	21.2939
2834.62	22.9659
2835.94	24.4388
2837.27	26.5499
2838.59	28.4144
2839.91	30.1958
2841.23	31.8275
2842.55	33.9736
2843.87	36.0794
2845.2	38.5638
2846.52	41.5362
2847.84	43.6479
2849.16	46.2741
2850.48	49.1315
2851.8	51.5587
2853.12	54.7262
2854.44	57.3791
2855.76	60.179
2857.08	62.9847
2858.39	65.6923
2859.71	67.8408
2861.03	70.5443
2862.35	72.6709
2863.67	74.9063
2864.98	77.3959
2866.3	79.7944
2867.62	82.3441
2868.94	84.3895
2870.25	85.6995
2871.57	88.1495
2872.88	90.1571
2874.2	91.3265
2875.52	93.7986
2876.83	96.028
2878.15	97.4033
2879.46	98.4679
2880.78	99.7943
2882.09	101.537
2883.41	103.511
2884.72	105.127
2886.03	107.189
2887.35	108.343
2888.66	109.884
2889.97	111.069
2891.29	113.075
2892.6	115.135
2893.91	116.903
2895.22	119.215
2896.54	120.496
2897.85	121.302
2899.16	123.083
2900.47	125.342
2901.78	127.173
2903.09	129.769
2904.4	131.715
2905.71	134.521
2907.02	137.075
2908.33	140.578
2909.64	143.337
2910.95	147.48
2912.26	151.505
2913.57	154.592
2914.88	158.084
2916.19	161.224
2917.5	163.984
2918.81	167.152
2920.11	168.98
2921.42	171.484
2922.73	173.947
2924.04	175.601
2925.34	176.58
2926.65	178.18
2927.96	179.415
2929.26	180.487
2930.57	181.207
2931.87	181.522
2933.18	180.982
2934.49	181.632
2935.79	181.653
2937.1	181.577
2938.4	180.105
2939.7	178.965
2941.01	177.26
2942.31	175.221
2943.62	172.65
2944.92	170.524
2946.22	168.904
2947.53	166.039
2948.83	163.368
2950.13	160.414
2951.43	157.574
2952.74	154.38
2954.04	151.51
2955.34	148.208
2956.64	144.955
2957.94	141.855
2959.24	138.45
2960.54	134.794
2961.84	130.988
2963.15	127.132
2964.45	124.231
2965.75	120.991
2967.05	117.282
2968.34	114.345
2969.64	111.18
2970.94	108.625
2972.24	105.598
2973.54	102.856
2974.84	99.9923
2976.14	98.2041
2977.43	94.4998
2978.73	90.8615
2980.03	87.6491
2981.33	84.1267
2982.62	80.6344
2983.92	77.8056
2985.22	74.8862
2986.51	72.3365
2987.81	68.8247
2989.11	64.6599
2990.4	61.2473
2991.7	57.9231
2992.99	54.9
2994.29	51.1745
2995.58	48.1931
2996.88	45.0086
2998.17	42.8531
2999.46	40.9735
3000.76	37.8327
3002.05	34.6218
3003.34	31.5693
3004.64	28.68
3005.93	26.0614
3007.22	24.2996
3008.52	22.762
3009.81	21.0011
3011.1	19.2799
3012.39	17.0553
3013.68	15.5054
3014.97	13.4332
3016.27	11.8636
3017.56	10.2375
3018.85	8.79166
3020.14	7.57969
3021.43	6.47118
3022.72	5.67804
3024.01	4.55262
3025.3	3.34622
3026.59	2.61737
3027.88	1.99385
3029.16	1.72286
3030.45	1.34754
3031.74	1.14281
3033.03	1.23244
3034.32	2.1719
3035.6	2.65101
3036.89	3.10706
3038.18	3.33682
3039.47	3.87376
3040.75	4.12795
3042.04	4.5182
3043.33	4.74703
3044.61	5.19241
3045.9	5.45727
3047.18	5.87742
3048.47	5.79683
3049.75	6.25719
3051.04	6.41928
3052.32	6.22867
3053.61	6.6536
3054.89	7.04839
3056.18	7.24061
3057.46	7.76916
3058.74	8.06068
3060.03	8.62216
3061.31	8.30749
3062.59	8.81243
3063.88	8.82215
3065.16	8.50262
3066.44	8.36353
3067.72	8.43113
3069	8.00626
3070.29	7.94271
3071.57	7.23836
3072.85	6.67906
3074.13	5.73771
3075.41	5.73314
3076.69	5.19012
3077.97	4.45841
3079.25	3.89658
3080.53	3.88431
3081.81	3.66488
3083.09	3.38936
3084.37	3.60292
3085.65	2.9404
3086.93	1.70807
3088.21	1.51303
3089.49	1.46765
3090.76	1.49857
3092.04	1.30498
3093.32	0.957315
3094.6	1.13792
3095.87	1.33942
3097.15	0.975929
3098.43	0.796981
3099.7	0.345347
3100.98	-0.0118424
3102.26	-0.581214
3103.53	-0.37565
3104.81	-0.0647197
3106.08	0.540125
3107.36	0.269259
3108.63	0.867183
3109.91	0.929858
3111.18	1.35047
3112.46	1.64207
3113.73	2.07818
3115	2.35512
3116.28	2.53608
3117.55	2.42901
3118.83	2.48145
3120.1	2.77242
3121.37	2.85504
3122.64	2.99099
3123.92	2.94776
3125.19	3.09476
3126.46	3.55329
3127.73	3.90271
3129	4.15581
3130.27	4.51433
3131.55	4.20238
3132.82	4.03404
3134.09	3.94496
3135.36	4.36348
3136.63	4.98281
3137.9	5.65761
3139.17	6.29672
3140.44	6.09633
3141.71	6.46295
3142.98	6.98448
3144.24	7.14958
3145.51	7.16091
3146.78	7.2028
3148.05	6.86899
3149.32	9.16645
