#Acq. time (s)=	45
#Accumulations=	2
#Range (cm-¹)=	200...3150
#Windows=	2
#Auto scanning=	Off
#Autofocus=	Off
#Macrospot=	Off
#AutoExposure=	Off
#Spike filter=	Multiple accum.
#Delay time (s)=	0
#Binning=	1
#Readout mode=	Signal
#DeNoise=	Off
#ICS correction=	On
#Dark correction=	Off
#Inst. Process=	Off
#Detector Gain=	Best Dynamic Range
#Detector ADC=	20 kHz       
#Detector temperature (°C)=	-69.85
#Instrument=	LabRAM HR Evol
#Detector=	Synapse
#Objective=	x100
#Grating=	600 gr/mm
#ND Filter=	100%
#Laser (nm)=	532 
#Hole=	100.021
#Range=	Auto
#Laser Pol.=	No
#Raman. Pol.=	No
#Laser Pol. (°)=	-0.0007625
#Raman Pol. (°)=	89.9995
#Collection=	Microscope
#StageXY=	Marzhauser
#StageZ=	Marzhauser
#X (µm)=	4727.8
#Y (µm)=	-7696
#Z (µm)=	584.4
#Full time(mm:ss)=	3:18
#Project=	
#Sample=	
#Site=	
#Title=	Thy_30_10_48_2x_45s_532 nm_x100_100%_600 gr_mm
#Remark=	
#Date=	30.06.2022 14:50
#Acquired=	30.06.2022 14:50:49
#Base:Fit=	10.08.2022 09:58:11
#Base:Sub=	10.08.2022 09:58:44
#Filter:Polynom=	16.08.2022 10:22:53
#AxisType[0]=Intens
#AxisUnit[0]=Cnt
#AxisType[1]=Spectr
#AxisUnit[1]=1/cm
200.533	-2.49714
202.348	-1.57314
204.162	-0.944035
205.976	-0.429619
207.792	-0.326991
209.605	-0.260414
211.418	-0.224577
213.23	0.143988
215.044	-0.622421
216.856	-0.717154
218.667	-1.09583
220.478	-0.441134
222.289	-0.00108366
224.102	0.0490038
225.912	-0.143691
227.721	-0.0863557
229.531	0.81704
231.34	0.788717
233.148	1.21694
234.956	1.17285
236.766	1.57338
238.574	2.5435
240.381	2.19591
242.188	2.02727
243.994	2.64827
245.801	2.91266
247.606	3.44619
249.412	3.31642
251.217	3.7037
253.024	4.43777
254.828	5.55547
256.632	4.97927
258.436	4.5255
260.239	4.57664
262.042	4.25788
263.845	4.65183
265.647	5.34201
267.449	6.1623
269.25	6.0702
271.052	7.09686
272.852	7.20513
274.653	6.78508
276.453	7.09452
278.253	7.34773
280.052	7.34902
281.852	6.44514
283.65	6.5738
285.449	6.83052
287.247	7.00298
289.044	7.32071
290.842	7.14303
292.639	7.11214
294.436	7.34067
296.232	7.50855
298.028	7.64385
299.821	7.64334
301.617	8.20192
303.412	8.37785
305.206	7.93126
307	8.17322
308.794	8.58032
310.588	9.72244
312.381	9.84915
314.172	10.2435
315.964	10.4332
317.756	10.7387
319.548	11.1855
321.34	11.0097
323.131	11.2304
324.921	11.2366
326.71	11.6324
328.5	11.5449
330.29	11.0945
332.079	11.658
333.868	11.967
335.654	11.7055
337.443	11.9175
339.231	11.6153
341.018	11.5676
342.804	11.0981
344.591	10.9509
346.377	10.5386
348.163	10.5993
349.947	10.8121
351.733	11.0854
353.518	11.501
355.303	11.313
357.085	11.0952
358.869	10.8286
360.653	10.5234
362.435	9.61126
364.218	8.80582
366.001	9.05027
367.781	8.58948
369.563	8.76463
371.345	8.25914
373.124	9.07925
374.905	8.4526
376.686	8.43859
378.464	8.71021
380.244	8.42126
382.022	7.70314
383.801	7.48475
385.58	6.8638
387.357	6.43301
389.135	6.03595
390.911	6.23767
392.689	5.5333
394.466	5.0749
396.241	5.59258
398.018	5.99729
399.792	6.31455
401.568	6.22947
403.341	5.91966
405.117	5.51196
406.889	5.6787
408.664	5.58877
410.436	5.54683
412.21	5.89277
413.981	5.82689
415.755	5.26606
417.525	5.20793
419.298	4.98729
421.068	4.7855
422.84	5.83858
424.609	5.79249
426.38	5.51724
428.149	5.92759
429.919	5.55196
431.688	5.50745
433.455	5.15877
435.225	5.07777
436.992	4.75052
438.76	5.62753
440.527	5.13552
442.293	5.10622
444.06	5.00693
445.826	5.05828
447.593	5.33777
449.357	5.08596
451.122	5.58914
452.888	6.27526
454.651	6.68658
456.415	5.9665
458.18	6.53809
459.942	5.9306
461.705	5.94705
463.469	5.61463
465.23	5.73543
466.991	5.76817
468.752	4.70114
470.515	4.96142
472.275	5.02952
474.035	5.71023
475.797	6.45155
477.556	6.44735
479.315	6.99365
481.073	7.69335
482.834	8.73356
484.592	9.64117
486.349	10.0019
488.106	11.0955
489.863	11.5568
491.622	11.9186
493.378	11.9617
495.134	12.5038
496.889	12.59
498.645	12.835
500.401	13.5286
502.156	13.0628
503.91	13.2303
505.664	13.6085
507.417	13.1939
509.171	13.7366
510.923	13.121
512.678	11.7982
514.43	10.8458
516.182	10.8388
517.933	9.46872
519.684	8.95966
521.435	8.79908
523.186	9.13397
524.936	9.2181
526.686	9.24009
528.435	8.29632
530.184	7.94007
531.933	7.84358
533.682	7.62396
535.43	6.71056
537.18	6.69401
538.927	6.12746
540.674	5.95815
542.421	5.20212
544.167	4.12946
545.913	4.19573
547.659	2.74567
549.403	2.51424
551.148	2.05659
552.893	1.91996
554.637	1.71896
556.381	0.955729
558.125	1.09631
559.868	0.756766
561.611	1.07748
563.354	0.619328
565.097	0.82273
566.839	1.34943
568.581	1.83496
570.322	2.22759
572.063	1.84842
573.802	1.84414
575.542	1.97006
577.283	1.87232
579.022	1.88062
580.762	1.74298
582.501	2.35611
584.24	2.31916
585.976	1.9814
587.714	2.34445
589.452	1.10421
591.19	1.59716
592.927	1.0126
594.663	0.836616
596.398	1.39358
598.134	1.00057
599.87	1.6313
601.605	1.24464
603.338	1.80638
605.073	2.36794
606.808	2.71927
608.542	2.91557
610.274	3.20671
612.007	3.20546
613.74	3.70713
615.473	3.98472
617.204	4.43327
618.936	5.42881
620.668	5.78172
622.397	5.98616
624.128	6.95249
625.859	6.27316
627.588	6.80138
629.318	7.05796
631.048	7.54349
632.775	7.97293
634.505	8.43521
636.233	9.04403
637.96	9.63952
639.688	9.43017
641.416	9.27884
643.142	10.1853
644.869	11.1149
646.594	11.7258
648.32	12.1117
650.045	12.5709
651.771	12.6375
653.496	12.2705
655.219	12.4925
656.944	12.4615
658.667	12.0275
660.391	12.4086
662.113	13.4039
663.837	13.3653
665.558	13.9978
667.281	14.399
669.002	14.7638
670.724	15.499
672.444	15.7519
674.166	16.0531
675.885	16.2675
677.606	17.0702
679.325	16.8842
681.045	18.0226
682.763	19.06
684.483	18.8617
686.2	19.4356
687.917	19.9846
689.636	20.8691
691.352	22.0853
693.07	22.6449
694.786	22.9613
696.501	24.3163
698.219	25.7387
699.933	27.7007
701.65	29.0089
703.364	30.3207
705.078	31.6561
706.793	32.4465
708.506	32.6261
710.219	33.1288
711.934	34.1534
713.646	35.4824
715.358	37.3546
717.071	37.5535
718.782	38.0412
720.493	38.4816
722.204	38.5062
723.916	39.113
725.626	39.6673
727.336	40.9854
729.045	42.1164
730.756	41.9565
732.464	41.6775
734.173	41.9237
735.881	42.036
737.59	42.1211
739.297	43.0348
741.004	44.1002
742.711	44.1209
744.417	45.0075
746.125	45.8769
747.831	46.9118
749.537	47.2728
751.242	48.4174
752.946	49.2088
754.651	50.003
756.357	50.5988
758.061	50.2246
759.764	50.6751
761.467	51.8731
763.17	52.2218
764.872	52.9291
766.575	54.2785
768.276	54.9253
769.978	55.1595
771.679	56.3334
773.382	57.2559
775.083	57.8664
776.783	58.3727
778.483	59.7125
780.182	60.557
781.882	62.7331
783.581	63.6282
785.279	64.1674
786.978	64.93
788.676	65.4367
790.373	65.9828
792.071	66.8402
793.768	66.7582
795.464	67.3096
797.161	67.7528
798.857	67.7514
800.552	67.8826
802.248	67.4984
803.941	68.0303
805.636	67.8755
807.33	68.7317
809.024	69.0112
810.718	68.9782
812.412	69.3641
814.105	69.5395
815.798	68.9628
817.49	69.1515
819.183	69.1673
820.873	68.9029
822.564	69.5092
824.256	69.847
825.947	68.8928
827.637	67.7788
829.328	67.4912
831.016	67.1237
832.705	67.0133
834.395	66.9515
836.084	66.628
837.772	66.1449
839.459	64.7454
841.147	64.4051
842.835	63.4221
844.522	63.4358
846.209	62.9927
847.894	61.8977
849.581	60.7317
851.267	60.2331
852.953	59.1687
854.637	58.9197
856.322	58.0058
858.007	57.3934
859.689	56.5192
861.374	55.7665
863.058	55.7337
864.739	54.6389
866.423	54.2469
868.106	53.2149
869.787	52.5835
871.469	51.881
873.151	50.8166
874.831	49.1302
876.512	47.9563
878.193	46
879.872	46.0693
881.553	44.9805
883.231	44.4671
884.911	44.3617
886.591	43.9241
888.268	43.438
889.947	42.6889
891.623	43.0771
893.302	42.2322
894.978	42.2306
896.656	42.0811
898.331	41.4619
900.008	40.5146
901.683	39.7205
903.359	38.9973
905.033	38.9503
906.709	39.0591
908.383	38.6603
910.058	37.8173
911.731	38.14
913.405	37.8313
915.078	38.3382
916.752	38.9014
918.423	39.2872
920.096	38.7088
921.768	38.0589
923.438	38.4151
925.111	38.5793
926.781	37.5968
928.452	37.5757
930.122	37.4367
931.791	36.6659
933.462	36.4076
935.13	36.5602
936.799	36.5366
938.468	36.5864
940.136	36.0036
941.803	36.4006
943.472	35.6598
945.139	35.4947
946.805	35.5462
948.473	35.5456
950.139	34.7172
951.804	34.0208
953.471	32.727
955.136	32.05
956.801	32.2937
958.465	31.2624
960.131	30.8815
961.794	30.9573
963.458	31.1659
965.12	30.2066
966.785	30.4642
968.447	29.699
970.109	29.0121
971.771	28.7505
973.432	28.1501
975.095	28.3132
976.756	27.8617
978.417	27.8363
980.077	26.7219
981.737	26.4737
983.396	25.2662
985.057	24.6822
986.716	24.185
988.375	23.8591
990.033	23.3382
991.691	23.1249
993.349	21.9804
995.006	21.9427
996.663	21.3091
998.32	21.6578
999.976	21.431
1001.63	20.674
1003.29	20.1004
1004.95	19.9071
1006.6	20.275
1008.26	19.8944
1009.91	19.8568
1011.56	20.3647
1013.22	20.1569
1014.87	19.7126
1016.53	19.1101
1018.18	18.8703
1019.83	19.115
1021.48	19.3047
1023.14	19.118
1024.79	18.3105
1026.44	17.5085
1028.09	17.8949
1029.74	17.7321
1031.39	17.1207
1033.04	16.2175
1034.69	16.6897
1036.34	15.7643
1037.99	15.9983
1039.64	16.1903
1041.29	14.8986
1042.94	15.4335
1044.58	15.9992
1046.23	16.2198
1047.88	16.7288
1049.52	16.7557
1051.17	16.1583
1052.82	16.0984
1054.46	16.0205
1056.11	16.8072
1057.75	17.5669
1059.4	17.1799
1061.04	16.2732
1062.69	15.4588
1064.33	14.7333
1065.98	13.957
1067.62	13.654
1069.26	13.6711
1070.9	13.7682
1072.55	13.8997
1074.19	13.7331
1075.83	13.9292
1077.47	14.4899
1079.11	14.2132
1080.76	14.2599
1082.4	14.6013
1084.04	14.5179
1085.68	14.9705
1087.32	14.5346
1088.95	14.4463
1090.59	15.6248
1092.23	16.1511
1093.87	16.4904
1095.51	16.2843
1097.15	16.2782
1098.78	16.5425
1100.42	17.6174
1102.06	17.9214
1103.69	17.7626
1105.33	17.769
1106.97	16.5029
1108.6	16.8451
1110.24	16.5345
1111.87	15.8667
1113.51	15.4519
1115.14	15.3616
1116.77	15.4186
1118.41	14.9064
1120.04	14.7537
1121.67	14.9419
1123.31	14.4124
1124.94	14.5824
1126.57	14.1407
1128.2	14.0289
1129.83	13.5749
1131.47	12.588
1133.1	11.4199
1134.72	11.1078
1136.36	11.1191
1137.98	10.41
1139.62	9.57314
1141.24	8.82274
1142.87	8.7911
1144.5	8.54821
1146.13	7.826
1147.76	8.04483
1149.38	7.47844
1151.01	7.60417
1152.64	7.49142
1154.27	7.56066
1155.89	7.3394
1157.52	7.78155
1159.14	7.33456
1160.77	7.16313
1162.39	7.27038
1164.02	7.61631
1165.64	7.8878
1167.27	8.52068
1168.89	9.06016
1170.51	10.0455
1172.14	11.6631
1173.76	11.1818
1175.38	10.9931
1177	11.052
1178.63	11.4348
1180.25	11.3252
1181.87	11.1151
1183.49	10.5256
1185.11	10.4687
1186.73	10.114
1188.35	9.2384
1189.97	10.4421
1191.59	9.95441
1193.21	9.84073
1194.83	9.89245
1196.45	9.99068
1198.07	10.1127
1199.68	10.7539
1201.3	10.6111
1202.92	11.1964
1204.53	11.2911
1206.15	11.7004
1207.77	12.1239
1209.38	12.6943
1211	12.8111
1212.62	13.4717
1214.23	13.5543
1215.84	14.4667
1217.46	15.6621
1219.07	16.258
1220.69	17.9111
1222.3	18.8673
1223.91	18.9894
1225.53	19.0415
1227.14	19.815
1228.75	20.635
1230.36	21.3789
1231.97	22.3761
1233.59	22.9379
1235.2	23.7757
1236.81	24.9447
1238.42	25.3739
1240.03	25.8466
1241.64	26.8478
1243.25	28.0281
1244.85	29.2505
1246.46	30.368
1248.07	30.6796
1249.68	31.6657
1251.29	32.3736
1252.9	33.0247
1254.5	33.1086
1256.11	33.9692
1257.72	34.1522
1259.32	34.7719
1260.93	34.2854
1262.54	34.8489
1264.14	35.2695
1265.75	35.7614
1267.35	35.5078
1268.96	35.5157
1270.56	35.3249
1272.16	35.189
1273.77	35.7444
1275.37	35.9529
1276.97	36.6774
1278.57	37.3581
1280.18	37.7584
1281.78	37.9729
1283.38	38.4222
1284.98	38.4354
1286.58	39.0102
1288.18	39.0207
1289.78	39.0132
1291.38	39.189
1292.99	39.1097
1294.58	38.3393
1296.18	39.1453
1297.78	39.3303
1299.38	39.2602
1300.98	39.7099
1302.58	39.5132
1304.17	38.962
1305.77	38.9817
1307.37	39.8704
1308.97	40.1514
1310.56	41.016
1312.16	41.4413
1313.76	42.0308
1315.35	42.4801
1316.95	42.6706
1318.54	42.48
1320.14	42.9359
1321.73	43.935
1323.32	44.3085
1324.92	43.9126
1326.51	44.2884
1328.1	44.3589
1329.7	45.0375
1331.29	43.968
1332.88	42.9922
1334.47	42.7804
1336.07	42.5665
1337.66	42.1195
1339.25	41.6846
1340.84	40.7847
1342.43	40.838
1344.02	39.998
1345.61	39.6081
1347.2	38.3857
1348.79	37.3533
1350.37	36.6752
1351.96	36.5594
1353.55	36.6356
1355.14	36.1149
1356.73	35.8891
1358.31	35.096
1359.9	33.7283
1361.49	33.9575
1363.07	33.2542
1364.66	32.1772
1366.25	31.9254
1367.83	31.2736
1369.42	30.7042
1371	30.7574
1372.59	29.9709
1374.17	29.6019
1375.75	30.0133
1377.34	29.0166
1378.92	28.6484
1380.5	27.8303
1382.09	27.0245
1383.67	26.6451
1385.25	26.8497
1386.83	26.8786
1388.42	26.6246
1390	26.0856
1391.58	25.8953
1393.16	26.0658
1394.74	25.5855
1396.32	25.4035
1397.9	25.4618
1399.48	25.6513
1401.06	25.7677
1402.64	24.9951
1404.21	24.7308
1405.79	25.119
1407.37	24.9645
1408.95	24.2506
1410.53	23.6609
1412.1	24.4174
1413.68	25.4354
1415.26	26.3903
1416.83	26.8605
1418.41	26.9214
1419.98	27.6843
1421.56	28.4013
1423.13	28.2769
1424.71	28.6102
1426.28	28.4178
1427.86	30.0857
1429.43	31.0319
1431	32.585
1432.58	33.9427
1434.15	34.395
1435.72	35.2729
1437.29	36.3455
1438.87	37.1573
1440.44	38.3408
1442.01	38.4017
1443.58	38.912
1445.15	40.3129
1446.72	40.8289
1448.29	40.5418
1449.86	40.8226
1451.43	40.0565
1453	40.1148
1454.57	39.6981
1456.14	38.2534
1457.71	37.2172
1459.27	36.5535
1460.84	35.8081
1462.41	35.3297
1463.98	33.6194
1465.54	32.6087
1467.11	31.7391
1468.67	30.2591
1470.24	29.9582
1471.81	28.2883
1473.37	26.6041
1474.94	25.2708
1476.5	23.7884
1478.07	22.448
1479.63	20.6649
1481.19	19.2462
1482.76	18.1391
1484.32	17.1189
1485.88	16.1132
1487.45	14.4861
1489.01	14.171
1490.57	13.4832
1492.13	12.5997
1493.69	11.1301
1495.26	9.78088
1496.82	8.84472
1498.38	8.06647
1499.94	6.93372
1501.5	6.15323
1503.06	6.28673
1504.62	7.39451
1506.17	8.16799
1507.73	7.87282
1509.29	8.62784
1510.85	8.9897
1512.41	9.12224
1513.97	8.8837
1515.52	9.57977
1517.08	10.211
1518.64	11.604
1520.19	12.7389
1521.75	14.115
1523.31	14.4476
1524.86	14.9668
1526.42	15.1379
1527.97	16.3241
1529.52	17.0965
1531.08	18.0032
1532.63	17.7796
1534.19	18.4854
1535.74	19.0458
1537.29	20.5926
1538.85	20.7671
1540.4	21.5022
1541.95	22.1061
1543.5	23.6419
1545.06	24.9373
1546.61	26.1716
1548.16	27.4414
1549.71	28.0701
1551.26	28.57
1552.81	29.2162
1554.36	30.1566
1555.91	31.3464
1557.46	32.0873
1559.01	32.4673
1560.56	32.8054
1562.11	33.2687
1563.65	34.1668
1565.2	34.8054
1566.75	35.3909
1568.29	35.9654
1569.84	35.9629
1571.39	36.5333
1572.94	36.8313
1574.48	37.2814
1576.03	37.6091
1577.57	38.944
1579.12	39.5984
1580.66	40.4275
1582.21	40.8029
1583.75	40.7513
1585.3	41.0973
1586.84	41.8824
1588.38	42.0593
1589.93	41.3974
1591.47	41.4686
1593.01	42.3195
1594.55	42.0762
1596.1	42.0576
1597.64	41.7984
1599.18	41.2155
1600.72	40.6603
1602.26	40.6892
1603.8	39.9597
1605.34	40.0071
1606.88	39.436
1608.42	39.1944
1609.96	38.0542
1611.5	37.643
1613.04	36.5064
1614.58	36.0395
1616.12	35.2149
1617.65	34.9948
1619.19	34.9941
1620.73	34.5421
1622.27	33.953
1623.8	33.1414
1625.34	32.6238
1626.87	32.5799
1628.41	32.1639
1629.95	32.2895
1631.48	32.1908
1633.02	32.0536
1634.55	32.4162
1636.09	32.026
1637.62	32.0058
1639.15	32.9177
1640.69	33.2614
1642.22	33.244
1643.76	33.0024
1645.29	33.1826
1646.82	32.7937
1648.35	33.1778
1649.88	33.0651
1651.42	33.3104
1652.95	33.931
1654.48	33.6726
1656.01	32.8222
1657.54	32.8918
1659.07	32.6794
1660.6	32.2743
1662.13	31.6515
1663.66	31.212
1665.19	30.2375
1666.72	29.2859
1668.24	28.522
1669.77	27.8391
1671.3	27.4469
1672.83	27.1463
1674.35	26.345
1675.88	25.0093
1677.41	24.1952
1678.93	23.1526
1680.46	21.8104
1681.99	20.7046
1683.51	19.8318
1685.04	18.3915
1686.56	16.2807
1688.09	15.5881
1689.61	14.5404
1691.13	13.6509
1692.66	12.7239
1694.18	11.8624
1695.71	11.2747
1697.23	9.64651
1698.75	9.16365
1700.27	8.34722
1701.8	7.89989
1703.32	7.84804
1704.84	7.5386
1706.36	6.48099
1707.88	5.92661
1709.4	5.47955
1710.92	5.29425
1712.44	3.76266
1713.96	3.33861
1715.48	3.2366
1717	2.61297
1718.52	3.15853
1720.04	3.10568
1721.56	2.68254
1723.07	2.53013
1724.59	2.70188
1726.11	2.81017
1727.63	2.56579
1729.14	2.60485
1730.66	1.92304
1732.18	1.5993
1733.69	1.5488
1735.21	1.83885
1736.72	1.45374
1738.24	1.8316
1739.75	1.90661
1741.27	1.91488
1742.78	1.80775
1744.3	1.75593
1745.81	2.4949
1747.32	2.45233
1748.84	2.16443
1750.35	1.9331
1751.86	1.63477
1753.37	1.49521
1754.89	1.74297
1756.4	1.555
1757.91	2.25466
1759.42	2.70892
1760.93	2.45899
1762.44	2.45034
1763.95	2.85672
1765.46	2.61494
1766.97	2.70115
1768.48	2.7996
1769.99	2.96888
1771.5	2.98089
1773.01	2.74376
1774.52	3.12367
1776.03	2.9163
1777.53	3.22273
1779.04	3.2199
1780.55	3.13415
1782.06	2.43712
1783.56	2.60968
1785.07	2.63248
1786.57	2.68485
1788.08	2.46296
1789.59	2.75982
1791.09	3.02636
1792.6	3.54868
1794.1	3.51214
1795.6	3.14655
1797.11	2.92448
1798.61	3.12097
1800.12	3.33641
1801.62	3.24284
1803.12	3.01708
1804.63	2.95844
1806.13	2.89958
1807.63	2.61782
1809.13	3.23512
1810.63	3.49668
1812.14	3.57316
1813.64	3.75289
1815.14	3.71668
1816.64	4.13882
1818.14	4.01997
1819.64	4.00193
1821.14	4.00455
1822.64	3.863
1824.14	4.49724
1825.63	4.75791
1827.13	5.00431
1828.63	5.5295
1830.13	5.9183
1831.63	6.24232
1833.12	6.48767
1834.62	6.27849
1836.12	5.88906
1837.62	6.34015
1839.11	6.22964
1840.61	5.43092
1842.1	5.14798
1843.6	5.1328
1845.09	4.70604
1846.59	4.39931
1848.08	3.61944
1849.58	3.60451
1851.07	3.76014
1852.57	3.76527
1854.06	3.96553
1855.55	3.93713
1857.04	4.0482
1858.54	3.86937
1860.03	3.63589
1861.52	3.18499
1863.01	3.0284
1864.5	2.91788
1866	3.52821
1867.49	3.13645
1868.98	3.10914
1870.47	3.14285
1871.96	3.01809
1873.45	3.74211
1874.94	4.2268
1876.43	4.25749
1877.92	4.14185
1879.41	4.47246
1880.89	4.79201
1882.38	5.05386
1882.48	5.22301
1883.97	5.95826
1885.47	6.90796
1886.96	6.81707
1888.46	7.27515
1889.95	7.47656
1891.44	7.24058
1892.94	7.7946
1894.43	8.15901
1895.92	8.93338
1897.41	9.59012
1898.9	10.3973
1900.4	10.1831
1901.89	10.2613
1903.38	10.3414
1904.87	10.1042
1906.36	10.1601
1907.85	10.1934
1909.34	10.1879
1910.83	10.2584
1912.32	9.97758
1913.81	9.74412
1915.29	10.4895
1916.78	10.8702
1918.27	10.8981
1919.76	11.4473
1921.25	11.9475
1922.74	12.702
1924.22	12.6232
1925.71	12.3521
1927.2	12.2744
1928.68	12.4381
1930.17	12.2983
1931.65	11.4809
1933.14	11.1831
1934.63	10.6983
1936.11	10.5619
1937.59	10.1565
1939.08	10.5373
1940.56	10.0633
1942.05	10.5649
1943.53	10.0232
1945.01	10.2941
1946.5	10.6608
1947.98	10.3234
1949.46	10.253
1950.94	9.97398
1952.43	10.7822
1953.91	10.9919
1955.39	11.0209
1956.87	11.1883
1958.35	11.4026
1959.83	10.8966
1961.31	10.226
1962.79	9.9799
1964.27	9.68605
1965.75	9.42768
1967.23	10.4601
1968.71	10.1228
1970.19	9.95366
1971.67	9.75964
1973.14	9.66645
1974.62	8.58598
1976.1	8.93737
1977.58	8.98455
1979.05	8.6993
1980.53	9.17722
1982.01	9.22723
1983.48	9.72842
1984.96	9.55132
1986.43	9.79191
1987.91	9.41864
1989.38	10.3095
1990.86	10.4263
1992.33	10.6424
1993.81	11.2408
1995.28	11.2691
1996.76	10.9069
1998.23	10.5045
1999.7	10.334
2001.18	10.6054
2002.65	10.3536
2004.12	9.76526
2005.59	9.30761
2007.06	9.45608
2008.54	9.65893
2010.01	10.0474
2011.48	10.4504
2012.95	11.1421
2014.42	11.0501
2015.89	11.3266
2017.36	11.3829
2018.83	11.8332
2020.3	12.1413
2021.77	12.1231
2023.24	12.1265
2024.71	12.2573
2026.17	12.5785
2027.64	12.5113
2029.11	12.2466
2030.58	12.4535
2032.04	12.3586
2033.51	12.4178
2034.98	12.7071
2036.45	12.8171
2037.91	13.3714
2039.38	13.6169
2040.84	14.3837
2042.31	13.8721
2043.77	13.741
2045.24	14.1837
2046.7	14.5677
2048.17	14.0817
2049.63	13.8808
2051.1	14.1211
2052.56	14.1662
2054.02	14.2417
2055.48	14.4029
2056.95	14.5147
2058.41	14.0945
2059.87	14.1655
2061.33	14.0747
2062.8	14.3985
2064.26	14.2032
2065.72	14.6457
2067.18	14.7807
2068.64	14.6742
2070.1	14.1099
2071.56	14.2787
2073.02	14.3471
2074.48	14.4568
2075.94	14.1786
2077.4	14.3551
2078.86	14.4168
2080.31	14.9756
2081.77	15.2952
2083.23	15.6319
2084.69	15.5635
2086.14	15.5483
2087.6	15.5157
2089.06	15.6085
2090.52	15.5851
2091.97	15.9942
2093.43	16.0596
2094.88	15.592
2096.34	15.5233
2097.79	15.9324
2099.25	15.8153
2100.7	16.2601
2102.16	16.3454
2103.61	16.884
2105.07	17.0153
2106.52	17.6228
2107.97	18.4658
2109.43	18.6249
2110.88	19.0739
2112.33	19.3852
2113.78	19.9763
2115.24	19.8741
2116.69	20.2172
2118.14	20.7772
2119.59	20.6222
2121.04	20.3948
2122.49	21.0354
2123.94	22.4762
2125.39	22.4837
2126.84	22.9077
2128.29	23.9449
2129.74	24.1434
2131.19	24.5005
2132.64	25.1564
2134.09	25.8532
2135.54	26.8862
2136.98	27.1764
2138.43	27.8376
2139.88	28.1692
2141.33	28.7728
2142.77	29.0774
2144.22	29.58
2145.67	29.9892
2147.11	30.2715
2148.56	30.9245
2150.01	31.2012
2151.45	31.4128
2152.9	31.7796
2154.34	31.9359
2155.79	32.2476
2157.23	32.7031
2158.67	33.4767
2160.12	34.3512
2161.56	34.6945
2163	34.7653
2164.45	34.7248
2165.89	34.0088
2167.33	33.9009
2168.78	33.8768
2170.22	34.0603
2171.66	33.8099
2173.1	34.4864
2174.54	34.6311
2175.98	34.6162
2177.42	34.8972
2178.86	35.5227
2180.3	35.805
2181.74	35.5331
2183.18	36.0241
2184.62	36.2268
2186.06	35.9664
2187.5	35.8965
2188.94	35.825
2190.38	35.5449
2191.82	35.7058
2193.25	35.5279
2194.69	35.5969
2196.13	35.4686
2197.57	34.4165
2199	34.2425
2200.44	33.7244
2201.88	32.9023
2203.31	32.533
2204.75	32.0662
2206.18	31.2959
2207.62	30.5392
2209.05	29.4015
2210.49	29.3564
2211.92	28.6061
2213.36	27.8701
2214.79	27.1851
2216.22	26.5887
2217.66	26.1741
2219.09	25.4086
2220.52	25.0935
2221.96	24.4052
2223.39	24.082
2224.82	23.5751
2226.25	23.7297
2227.68	24.0081
2229.11	24.2919
2230.55	23.7952
2231.98	23.1056
2233.41	22.1352
2234.84	21.3962
2236.27	20.9062
2237.7	20.8391
2239.12	21.4739
2240.55	21.2924
2241.98	21.9042
2243.41	21.835
2244.84	21.9261
2246.27	21.7895
2247.7	21.4947
2249.12	21.7339
2250.55	21.0859
2251.98	20.5404
2253.41	20.2592
2254.83	20.0896
2256.26	19.4643
2257.68	19.5939
2259.11	19.6897
2260.54	19.1734
2261.96	19.2152
2263.39	18.5719
2264.81	18.3516
2266.24	18.0362
2267.66	17.4543
2269.08	16.3572
2270.51	15.97
2271.93	15.7162
2273.35	15.4846
2274.78	14.5993
2276.2	14.3701
2277.62	13.9672
2279.04	13.9023
2280.47	13.7049
2281.89	13.553
2283.31	12.9071
2284.73	12.9082
2286.15	12.9061
2287.57	12.574
2288.99	11.9843
2290.41	11.5118
2291.83	10.9578
2293.25	10.4191
2294.67	10.181
2296.09	10.0927
2297.51	10.3867
2298.93	10.3698
2300.35	10.4897
2301.76	10.4324
2303.18	10.4249
2304.6	10.8769
2306.02	11.4465
2307.44	12.5591
2308.85	13.2998
2310.27	13.6029
2311.69	13.2408
2313.1	13.4418
2314.52	13.2298
2315.93	13.4288
2317.35	13.1859
2318.76	12.5704
2320.18	12.404
2321.59	12.317
2323.01	12.879
2324.42	13.2507
2325.83	13.5162
2327.25	13.8124
2328.66	14.4776
2330.07	13.6557
2331.49	13.4748
2332.9	13.5289
2334.31	13.095
2335.72	13.4419
2337.13	13.223
2338.55	12.9187
2339.96	12.2585
2341.37	12.6323
2342.78	12.2101
2344.19	12.0063
2345.6	11.4604
2347.01	11.2893
2348.42	11.4708
2349.83	11.1649
2351.24	10.415
2352.65	9.62314
2354.05	8.76686
2355.46	8.39454
2356.87	7.39548
2358.28	6.55037
2359.69	5.66819
2361.09	5.0997
2362.5	4.34314
2363.91	4.75635
2365.31	5.17653
2366.72	5.01469
2368.13	5.43032
2369.53	5.69353
2370.94	5.77447
2372.34	5.9716
2373.75	6.11568
2375.15	6.12528
2376.56	6.11376
2377.96	6.06373
2379.37	5.337
2380.77	5.79065
2382.17	5.95093
2383.58	6.00138
2384.98	6.32057
2386.38	6.16043
2387.79	6.12126
2389.19	6.09333
2390.59	6.44606
2391.99	7.06547
2393.39	7.675
2394.8	8.13896
2396.2	8.30204
2397.6	8.8716
2399	9.08779
2400.4	8.98995
2401.8	9.78073
2403.2	9.83931
2404.6	10.5153
2406	10.9943
2407.4	11.4011
2408.79	11.6281
2410.19	11.9817
2411.59	12.5992
2412.99	12.5546
2414.39	12.9608
2415.78	13.097
2417.18	13.3994
2418.58	13.6674
2419.98	13.0051
2421.37	12.5588
2422.77	12.0452
2424.16	11.4423
2425.56	11.4316
2426.96	10.9783
2428.35	10.7634
2429.74	10.332
2431.14	10.1037
2432.53	9.97569
2433.93	10.0653
2435.32	9.6694
2436.72	9.47765
2438.11	9.89176
2439.5	9.34465
2440.9	8.83033
2442.29	8.58887
2443.68	8.13692
2445.07	8.1057
2446.47	7.79624
2447.86	7.35688
2449.25	7.03903
2450.64	7.38885
2452.03	7.11685
2453.42	6.62356
2454.81	6.38481
2456.2	5.60239
2457.59	5.37386
2458.98	5.3706
2460.37	5.20954
2461.76	5.56084
2463.15	5.69892
2464.54	5.59824
2465.93	5.52274
2467.32	5.77938
2468.7	5.62494
2470.09	5.8472
2471.48	5.70806
2472.87	6.14904
2474.25	6.7374
2475.64	6.94991
2477.03	7.33366
2478.41	6.93377
2479.8	7.23617
2481.18	6.93918
2482.57	6.41264
2483.95	5.96159
2485.34	5.54747
2486.72	4.99443
2488.11	4.5286
2489.49	4.09087
2490.88	3.8955
2492.26	3.89768
2493.65	4.14185
2495.03	4.23784
2496.41	3.52708
2497.79	3.39105
2499.18	3.00838
2500.56	3.01895
2501.94	3.04079
2503.32	2.50384
2504.7	2.45182
2506.09	2.26477
2507.47	1.97
2508.85	1.3758
2510.23	1.22602
2511.61	1.19259
2512.99	1.30722
2514.37	1.34056
2515.75	0.660538
2517.13	0.734221
2518.51	0.936894
2519.89	1.38084
2521.26	1.69877
2522.64	1.01922
2524.02	0.703474
2525.4	0.581296
2526.78	0.59577
2528.15	0.921518
2529.53	0.964834
2530.91	2.10203
2532.28	2.18897
2533.66	2.34645
2535.04	2.70062
2536.41	3.22514
2537.79	3.11064
2539.16	3.65807
2540.54	4.19571
2541.91	4.62481
2543.29	4.52841
2544.66	4.3997
2546.04	4.35769
2547.41	4.41936
2548.78	5.2774
2550.16	4.76417
2551.53	4.97869
2552.9	5.21473
2554.27	5.46883
2555.65	5.54449
2557.02	5.62004
2558.39	5.88268
2559.76	6.12047
2561.13	6.35224
2562.51	6.23934
2563.88	5.51769
2565.25	5.34363
2566.62	5.3781
2567.99	4.52143
2569.36	4.51419
2570.73	4.1552
2572.1	4.10304
2573.47	4.27336
2574.84	4.08805
2576.2	4.09774
2577.57	3.93695
2578.94	4.1524
2580.31	4.09645
2581.68	3.68958
2583.05	3.97292
2584.41	3.49109
2585.78	3.30263
2587.15	3.34636
2588.51	3.00105
2589.88	2.42564
2591.24	1.57989
2592.61	2.14943
2593.98	2.43989
2595.34	2.64305
2596.71	3.8471
2598.07	3.33383
2599.44	3.48679
2600.8	3.19318
2602.16	3.44162
2603.53	3.67293
2604.89	3.99156
2606.26	3.87993
2607.62	4.40924
2608.98	4.14127
2610.34	3.92096
2611.71	4.27754
2613.07	4.17431
2614.43	4.60224
2615.79	4.74608
2617.15	4.33197
2618.52	4.35603
2619.88	4.08224
2621.24	4.09239
2622.6	3.96151
2623.96	3.71188
2625.32	3.79939
2626.68	3.51643
2628.04	3.25252
2629.4	3.31652
2630.75	2.99101
2632.11	2.55377
2633.47	2.61615
2634.83	2.40185
2636.19	2.17978
2637.55	2.59959
2638.9	2.59667
2640.26	2.54723
2641.62	2.2362
2642.98	2.28815
2644.33	2.37256
2645.69	2.63262
2647.04	2.91876
2648.4	2.53054
2649.76	2.61453
2651.11	2.71038
2652.47	2.2416
2653.82	2.53081
2655.18	2.8288
2656.53	3.05421
2657.88	3.14155
2659.24	3.3541
2660.59	3.19214
2661.95	2.57687
2663.3	2.74142
2664.65	2.62485
2666	2.08595
2667.36	2.12734
2668.71	2.26059
2670.06	2.27584
2671.41	2.09896
2672.76	2.36366
2674.12	2.15076
2675.47	2.15638
2676.82	1.71876
2678.17	1.9504
2679.52	1.40212
2680.87	0.76687
2682.22	0.740264
2683.57	0.747848
2684.92	0.434288
2686.27	0.812164
2687.62	0.138991
2688.97	0.0144721
2690.31	-0.592195
2691.66	-0.553382
2693.01	-0.42056
2694.36	-0.588908
2695.71	-0.0309708
2697.05	-0.139972
2698.4	-0.388709
2699.75	0.00587156
2701.09	-0.037015
2702.44	-0.341695
2703.78	-0.390233
2705.13	-0.348188
2706.48	-0.211937
2707.82	-0.372622
2709.17	-0.107071
2710.51	0.681718
2711.86	0.811133
2713.2	0.971502
2714.54	0.972589
2715.89	1.25278
2717.23	1.62719
2718.57	1.70486
2719.92	2.23569
2721.26	2.65394
2722.6	3.17164
2723.95	3.322
2725.29	3.07379
2726.63	3.22273
2727.97	3.30177
2729.31	3.92254
2730.65	4.36987
2732	4.39762
2733.34	4.97481
2734.68	4.7346
2736.02	5.30039
2737.36	5.43868
2738.7	5.96087
2740.04	6.34649
2741.38	5.96726
2742.72	5.782
2744.05	5.91075
2745.39	6.10516
2746.73	5.77554
2748.07	6.02803
2749.41	6.64355
2750.75	7.12752
2752.08	7.13475
2753.42	7.08279
2754.76	7.00194
2756.09	6.93614
2757.43	7.15609
2758.77	7.46774
2760.1	7.14106
2761.44	6.62146
2762.78	6.18631
2764.11	5.60577
2765.44	5.70941
2766.78	5.37083
2768.11	4.59548
2769.45	4.09362
2770.78	4.11216
2772.12	3.84938
2773.45	3.86632
2774.78	3.62368
2776.12	3.43217
2777.45	3.25966
2778.78	2.55674
2780.12	2.50558
2781.45	2.71411
2782.78	2.40592
2784.11	2.39354
2785.44	2.61083
2786.78	2.81675
2788.11	2.90625
2789.44	2.70429
2790.77	2.27455
2792.1	2.0291
2793.43	2.01567
2794.76	1.627
2796.09	1.55632
2797.42	1.35473
2798.75	1.5589
2800.08	1.52428
2801.4	1.50143
2802.73	1.18832
2804.06	1.23847
2805.39	1.38793
2806.72	1.15162
2808.05	1.09471
2809.37	0.978248
2810.7	1.22562
2812.03	1.54915
2813.35	1.87825
2814.68	2.25813
2816.01	3.00465
2817.33	3.53339
2818.66	3.94656
2819.98	4.00755
2821.31	4.5682
2822.63	4.94209
2823.96	5.88508
2825.28	6.6064
2826.61	7.3329
2827.93	8.29654
2829.25	9.40511
2830.58	10.5818
2831.9	11.232
2833.23	11.1527
2834.55	11.8962
2835.87	12.5511
2837.19	13.8579
2838.52	14.5043
2839.84	15.4698
2841.16	16.1434
2842.48	17.1092
2843.8	18.1155
2845.12	19.3284
2846.44	20.7192
2847.77	22.4817
2849.08	23.7427
2850.4	25.4066
2851.73	26.4348
2853.05	27.7647
2854.36	29.1203
2855.68	30.2436
2857	31.6619
2858.32	32.5973
2859.64	33.4645
2860.96	34.4497
2862.28	35.4368
2863.59	36.3795
2864.91	37.3119
2866.23	38.0502
2867.55	39.0891
2868.86	39.9297
2870.18	41.0125
2871.5	41.2472
2872.81	42.0183
2874.13	42.666
2875.44	43.5156
2876.76	44.9142
2878.07	45.5999
2879.39	45.9146
2880.7	46.6923
2882.02	47.4797
2883.33	48.031
2884.65	48.5551
2885.96	48.8408
2887.28	49.9449
2888.59	50.8081
2889.9	51.8852
2891.21	52.9755
2892.53	53.896
2893.84	54.874
2895.15	55.5022
2896.46	55.6404
2897.78	56.3802
2899.09	57.3236
2900.4	59.0245
2901.71	60.1587
2903.02	61.8842
2904.33	63.1759
2905.64	65.0683
2906.95	67.1251
2908.26	68.7731
2909.57	70.481
2910.88	72.9571
2912.19	75.4431
2913.5	78.0493
2914.81	79.1948
2916.12	81.3285
2917.43	82.6743
2918.73	84.9632
2920.04	86.489
2921.35	87.7131
2922.66	89.4675
2923.96	90.6433
2925.27	92.0072
2926.58	92.8162
2927.88	93.1804
2929.19	94.1066
2930.5	94.2878
2931.8	94.8569
2933.11	95.1974
2934.41	95.3735
2935.72	94.8291
2937.02	93.771
2938.33	93.5479
2939.63	92.8298
2940.94	92.1654
2942.24	90.8904
2943.54	89.4254
2944.85	88.3544
2946.15	87.0526
2947.45	85.2839
2948.76	83.7182
2950.06	82.4737
2951.36	81.4917
2952.66	80.2769
2953.97	78.7367
2955.27	77.1854
2956.57	75.2939
2957.87	73.2284
2959.17	71.6393
2960.47	69.941
2961.77	68.0307
2963.07	67.12
2964.37	65.8785
2965.67	64.7139
2966.97	63.6914
2968.27	62.3833
2969.57	60.8056
2970.87	59.4044
2972.17	58.1715
2973.47	56.9831
2974.77	55.9592
2976.07	54.8919
2977.36	53.835
2978.66	51.9747
2979.96	50.4063
2981.26	49.7981
2982.55	48.2461
2983.85	47.194
2985.15	45.6348
2986.44	44.1743
2987.74	43.0429
2989.03	41.2156
2990.33	39.6063
2991.63	37.9426
2992.92	36.7079
2994.21	35.7769
2995.51	34.5592
2996.8	33.8526
2998.1	32.5897
2999.39	31.291
3000.69	29.8109
3001.98	28.4207
3003.27	27.4088
3004.57	26.008
3005.86	24.4668
3007.15	22.9262
3008.44	21.9809
3009.74	20.663
3011.03	19.2113
3012.32	18.0713
3013.61	17.2175
3014.9	16.3597
3016.19	15.2636
3017.48	13.7475
3018.78	12.5242
3020.07	11.8688
3021.36	10.9558
3022.65	10.5949
3023.94	10.3542
3025.23	9.83518
3026.51	9.16831
3027.8	9.28644
3029.09	9.05023
3030.38	8.98955
3031.67	8.63758
3032.96	7.64277
3034.24	7.8157
3035.53	8.10166
3036.82	8.59028
3038.11	8.81896
3039.39	8.83947
3040.68	8.94267
3041.97	9.02102
3043.25	8.94154
3044.54	9.63592
3045.83	10.0933
3047.11	10.105
3048.4	9.98955
3049.68	9.99578
3050.97	10.1181
3052.25	10.5051
3053.54	10.3869
3054.82	10.4679
3056.11	10.6953
3057.39	11.0568
3058.67	11.1382
3059.96	11.0908
3061.24	11.0122
3062.52	10.8153
3063.81	10.7016
3065.09	10.4742
3066.37	9.91464
3067.65	8.9809
3068.94	8.33589
3070.22	8.22693
3071.5	8.08572
3072.78	7.70313
3074.06	6.89773
3075.34	6.0434
3076.62	5.67559
3077.9	4.79567
3079.18	4.46571
3080.46	3.85793
3081.74	3.35671
3083.02	2.73668
3084.3	2.55742
3085.58	1.77303
3086.86	1.94219
3088.14	1.57187
3089.42	0.815983
3090.69	0.705567
3091.97	0.89506
3093.25	0.962454
3094.53	0.959772
3095.8	0.371393
3097.08	0.475356
3098.36	1.02028
3099.63	0.981045
3100.91	1.15491
3102.19	0.514404
3103.46	0.281903
3104.74	-0.2629
3106.01	-0.106848
3107.29	0.0895481
3108.56	0.0842214
3109.84	0.110296
3111.11	-0.0932236
3112.39	-0.276949
3113.66	-0.322048
3114.94	0.0674381
3116.21	0.212804
3117.48	0.0938141
3118.76	0.322814
3120.03	0.66376
3121.3	0.738643
3122.57	0.630275
3123.85	0.861931
3125.12	1.12337
3126.39	1.19295
3127.66	1.23109
3128.93	1.31635
3130.21	1.02337
3131.48	1.12646
3132.75	1.50971
3134.02	2.03389
3135.29	1.87096
3136.56	1.55665
3137.83	1.56551
3139.1	1.55349
3140.37	1.86201
3141.64	1.68211
3142.91	1.78203
3144.17	1.79165
3145.44	1.94791
3146.71	2.21848
3147.98	1.90371
3149.25	1.52627
