#Acq. time (s)=	45
#Accumulations=	2
#Range (cm-¹)=	200...3150
#Windows=	2
#Auto scanning=	Off
#Autofocus=	Off
#Macrospot=	Off
#AutoExposure=	Off
#Spike filter=	Multiple accum.
#Delay time (s)=	0
#Binning=	1
#Readout mode=	Signal
#DeNoise=	Off
#ICS correction=	On
#Dark correction=	Off
#Inst. Process=	Off
#Detector Gain=	Best Dynamic Range
#Detector ADC=	20 kHz       
#Detector temperature (°C)=	-69.85
#Instrument=	LabRAM HR Evol
#Detector=	Synapse
#Objective=	x100
#Grating=	600 gr/mm
#ND Filter=	100%
#Laser (nm)=	532 
#Hole=	100.021
#Range=	Auto
#Laser Pol.=	No
#Raman. Pol.=	No
#Laser Pol. (°)=	-0.0007625
#Raman Pol. (°)=	89.9995
#Collection=	Microscope
#StageXY=	Marzhauser
#StageZ=	Marzhauser
#X (µm)=	4766
#Y (µm)=	-7735.8
#Z (µm)=	584
#Full time(mm:ss)=	3:18
#Project=	
#Sample=	
#Site=	
#Title=	Thy_30_10_04_2x_45s_532 nm_x100_100%_600 gr_mm
#Remark=	
#Date=	30.06.2022 11:40
#Acquired=	30.06.2022 11:40:29
#Base:Fit=	10.08.2022 09:56:48
#Base:Fit=	10.08.2022 09:57:06
#Base:Fit=	10.08.2022 09:57:43
#Base:Fit=	10.08.2022 09:57:50
#Base:Fit=	10.08.2022 09:58:11
#Base:Sub=	10.08.2022 09:58:44
#Filter:Polynom=	16.08.2022 10:22:53
#AxisType[0]=Intens
#AxisUnit[0]=Cnt
#AxisType[1]=Spectr
#AxisUnit[1]=1/cm
200.533	13.4479
202.348	10.9249
204.162	11.0292
205.976	10.8231
207.792	9.82314
209.605	8.8
211.418	8.02557
213.23	7.48986
215.044	6.84561
216.856	6.66567
218.667	6.48272
220.478	5.71745
222.289	6.22357
224.102	5.70044
225.912	4.95984
227.721	4.458
229.531	4.72157
231.34	5.24577
233.148	5.74536
234.956	5.23358
236.766	5.40131
238.574	4.99311
240.381	5.03221
242.188	4.96984
243.994	4.4412
245.801	5.07463
247.606	5.1044
249.412	5.18457
251.217	4.83487
253.024	4.56783
254.828	4.68256
256.632	4.61344
258.436	4.39877
260.239	4.24767
262.042	4.06248
263.845	4.23789
265.647	5.43327
267.449	5.44843
269.25	5.10583
271.052	5.53893
272.852	5.94782
274.653	5.01535
276.453	4.77973
278.253	3.97316
280.052	3.81484
281.852	4.71217
283.65	4.55984
285.449	3.74141
287.247	3.48713
289.044	2.70117
290.842	2.30214
292.639	3.89736
294.436	3.69184
296.232	3.29598
298.028	4.14119
299.821	4.92941
301.617	5.16363
303.412	5.49945
305.206	5.83717
307	6.19174
308.794	6.93929
310.588	7.67142
312.381	8.54024
314.172	8.16114
315.964	8.35797
317.756	9.01808
319.548	9.46824
321.34	10.0479
323.131	9.86249
324.921	9.80718
326.71	10.0668
328.5	9.65961
330.29	10.3467
332.079	10.8802
333.868	11.3529
335.654	12.3873
337.443	12.5821
339.231	13.2648
341.018	13.6848
342.804	13.5214
344.591	13.1409
346.377	12.7746
348.163	12.4003
349.947	12.6204
351.733	12.4254
353.518	12.597
355.303	12.079
357.085	11.0076
358.869	11.139
360.653	10.8264
362.435	10.7982
364.218	9.3836
366.001	8.68325
367.781	8.16716
369.563	7.71962
371.345	7.55071
373.124	6.01973
374.905	5.20778
376.686	4.98191
378.464	5.1303
380.244	5.45531
382.022	5.41603
383.801	4.31139
385.58	3.70783
387.357	4.18591
389.135	3.62665
390.911	3.17424
392.689	3.3552
394.466	3.39275
396.241	3.51184
398.018	3.2173
399.792	2.73661
401.568	2.16829
403.341	2.31888
405.117	2.20491
406.889	1.90239
408.664	1.75801
410.436	2.26439
412.21	2.02454
413.981	2.13544
415.755	1.49849
417.525	2.12479
419.298	2.97439
421.068	3.08308
422.84	2.8292
424.609	3.21669
426.38	3.7077
428.149	3.53347
429.919	3.36038
431.688	2.16405
433.455	2.32628
435.225	2.30072
436.992	2.76529
438.76	2.78106
440.527	2.39017
442.293	2.77011
444.06	2.97592
445.826	3.8065
447.593	3.89776
449.357	4.80065
451.122	4.67458
452.888	3.88699
454.651	3.90276
456.415	4.57231
458.18	4.82788
459.942	4.75415
461.705	4.88285
463.469	4.88202
465.23	5.42808
466.991	5.91667
468.752	6.19108
470.515	7.0563
472.275	7.54455
474.035	7.66784
475.797	7.88214
477.556	7.91189
479.315	9.35389
481.073	9.8838
482.834	10.5648
484.592	11.4215
486.349	11.8408
488.106	12.3973
489.863	12.9798
491.622	13.5593
493.378	13.2075
495.134	12.7511
496.889	13.182
498.645	14.0243
500.401	14.1565
502.156	13.9819
503.91	13.7816
505.664	13.968
507.417	13.371
509.171	13.421
510.923	13.0432
512.678	12.9976
514.43	12.7599
516.182	12.1515
517.933	11.418
519.684	10.6641
521.435	10.4894
523.186	10.0483
524.936	9.84376
526.686	9.93881
528.435	9.72239
530.184	10.2313
531.933	9.83188
533.682	9.9436
535.43	9.13265
537.18	9.23193
538.927	7.8696
540.674	7.59588
542.421	7.59388
544.167	6.98872
545.913	6.10986
547.659	5.36952
549.403	5.98723
551.148	5.82447
552.893	6.34679
554.637	5.88441
556.381	5.39164
558.125	5.16358
559.868	4.76694
561.611	5.35277
563.354	6.28561
565.097	6.35704
566.839	6.91365
568.581	6.7941
570.322	7.3945
572.063	7.59479
573.802	7.86005
575.542	7.86727
577.283	8.72021
579.022	9.23625
580.762	9.16717
582.501	9.37132
584.24	10.3638
585.976	10.8738
587.714	10.0264
589.452	10.0595
591.19	9.65196
592.927	9.59732
594.663	9.78088
596.398	10.6447
598.134	10.851
599.87	11.1447
601.605	11.0931
603.338	11.7632
605.073	11.4816
606.808	11.7306
608.542	11.3629
610.274	12.0474
612.007	12.6929
613.74	13.421
615.473	13.7494
617.204	14.5056
618.936	13.8089
620.668	13.4301
622.397	12.5369
624.128	11.6415
625.859	11.0314
627.588	11.2736
629.318	10.5229
631.048	10.106
632.775	10.7589
634.505	11.7318
636.233	11.6515
637.96	11.1272
639.688	10.6603
641.416	10.4135
643.142	11.0472
644.869	11.618
646.594	12.3542
648.32	12.7792
650.045	12.7682
651.771	12.945
653.496	13.7734
655.219	14.6497
656.944	15.6766
658.667	16.2215
660.391	17.788
662.113	18.364
663.837	18.6667
665.558	19.9363
667.281	20.9912
669.002	22.196
670.724	24.006
672.444	24.8813
674.166	25.7568
675.885	26.6519
677.606	27.4805
679.325	29.3743
681.045	30.1081
682.763	31.4389
684.483	31.5525
686.2	31.5975
687.917	32.3662
689.636	34.1549
691.352	34.3429
693.07	35.3615
694.786	35.2474
696.501	36.4482
698.219	37.0542
699.933	37.5207
701.65	37.8181
703.364	37.4839
705.078	37.2242
706.793	37.4088
708.506	37.8622
710.219	37.9938
711.934	38.642
713.646	39.5448
715.358	40.0863
717.071	41.3722
718.782	41.4865
720.493	42.1756
722.204	42.3428
723.916	42.9539
725.626	43.1791
727.336	43.7327
729.045	44.5921
730.756	45.6183
732.464	45.7006
734.173	46.1454
735.881	46.5888
737.59	47.1334
739.297	47.9526
741.004	48.9675
742.711	50.5531
744.417	52.0977
746.125	52.6417
747.831	53.4387
749.537	54.9902
751.242	57.9039
752.946	59.4973
754.651	60.5164
756.357	61.0794
758.061	61.6412
759.764	61.9543
761.467	63.1232
763.17	64.6688
764.872	65.2314
766.575	65.067
768.276	66.9067
769.978	67.6493
771.679	68.9698
773.382	70.395
775.083	71.7991
776.783	71.9108
778.483	73.0457
780.182	73.503
781.882	75.4898
783.581	76.4768
785.279	77.0533
786.978	77.4332
788.676	78.4813
790.373	79.4794
792.071	80.9388
793.768	81.2816
795.464	82.3708
797.161	83.026
798.857	84.3692
800.552	85.5553
802.248	85.5067
803.941	85.3042
805.636	86.0049
807.33	86.0634
809.024	85.4169
810.718	84.937
812.412	84.6728
814.105	85.335
815.798	84.9737
817.49	84.2635
819.183	84.086
820.873	83.7442
822.564	84.4165
824.256	84.868
825.947	84.5286
827.637	84.1387
829.328	83.5921
831.016	83.1486
832.705	83.7681
834.395	83.6441
836.084	83.2937
837.772	82.3888
839.459	81.4681
841.147	80.9328
842.835	80.8652
844.522	78.703
846.209	77.917
847.894	76.7962
849.581	75.6841
851.267	74.5441
852.953	74.4182
854.637	73.027
856.322	72.9942
858.007	72.3263
859.689	70.783
861.374	70.0119
863.058	69.7162
864.739	68.823
866.423	68.5357
868.106	68.0703
869.787	67.985
871.469	67.817
873.151	67.5189
874.831	66.7583
876.512	65.1927
878.193	64.0883
879.872	63.855
881.553	63.7263
883.231	63.7008
884.911	62.572
886.591	61.2702
888.268	60.4857
889.947	59.6133
891.623	59.8529
893.302	58.798
894.978	58.6478
896.656	58.8056
898.331	58.8426
900.008	58.1099
901.683	58.1452
903.359	57.8842
905.033	57.7747
906.709	58.6095
908.383	57.3967
910.058	57.1392
911.731	57.8121
913.405	58.0344
915.078	58.9109
916.752	58.7105
918.423	59.6778
920.096	60.2833
921.768	60.1306
923.438	60.3982
925.111	59.8867
926.781	59.8646
928.452	58.9584
930.122	58.9018
931.791	59.0921
933.462	59.4841
935.13	59.9689
936.799	59.9664
938.468	59.7077
940.136	59.9567
941.803	59.7364
943.472	59.2701
945.139	59.1145
946.805	58.8205
948.473	58.5169
950.139	58.7667
951.804	58.9458
953.471	58.7414
955.136	58.3018
956.801	57.4282
958.465	57.0005
960.131	57.1497
961.794	57.5177
963.458	57.9256
965.12	58.6174
966.785	58.1134
968.447	58.1201
970.109	58.2993
971.771	58.0414
973.432	58.6683
975.095	59.5353
976.756	59.4858
978.417	59.6448
980.077	60.1377
981.737	60.378
983.396	60.2229
985.057	60.9452
986.716	60.9374
988.375	60.4877
990.033	60.8932
991.691	59.749
993.349	59.8781
995.006	60.0714
996.663	60.1605
998.32	61.4236
999.976	61.519
1001.63	62.3905
1003.29	61.5984
1004.95	61.7525
1006.6	61.9086
1008.26	61.2122
1009.91	61.3768
1011.56	60.5307
1013.22	60.4578
1014.87	60.6715
1016.53	59.9971
1018.18	59.1521
1019.83	57.6959
1021.48	58.1011
1023.14	57.8893
1024.79	57.5626
1026.44	56.3118
1028.09	55.8858
1029.74	56.5291
1031.39	56.3679
1033.04	56.6626
1034.69	55.865
1036.34	55.1601
1037.99	54.877
1039.64	53.5854
1041.29	52.9235
1042.94	52.6137
1044.58	51.0122
1046.23	50.2627
1047.88	49.5074
1049.52	49.0448
1051.17	48.315
1052.82	46.8814
1054.46	45.2508
1056.11	45.0542
1057.75	43.5146
1059.4	41.9856
1061.04	40.9642
1062.69	40.3313
1064.33	38.7386
1065.98	37.7661
1067.62	37.2033
1069.26	35.9982
1070.9	35.03
1072.55	34.8756
1074.19	34.3733
1075.83	34.4691
1077.47	34.747
1079.11	35.3511
1080.76	34.9936
1082.4	34.7151
1084.04	34.6733
1085.68	34.4732
1087.32	35.8378
1088.95	34.8304
1090.59	35.0455
1092.23	35.4018
1093.87	35.9586
1095.51	36.3554
1097.15	36.348
1098.78	36.8733
1100.42	37.967
1102.06	38.0292
1103.69	38.9358
1105.33	39.8183
1106.97	40.5065
1108.6	41.0184
1110.24	41.6569
1111.87	42.5896
1113.51	42.7549
1115.14	43.0396
1116.77	42.3833
1118.41	42.3099
1120.04	42.2816
1121.67	41.5308
1123.31	41.2447
1124.94	40.842
1126.57	40.131
1128.2	40.1149
1129.83	40.2073
1131.47	39.4567
1133.1	37.6474
1134.72	36.5121
1136.36	36.3967
1137.98	36.1806
1139.62	35.3759
1141.24	35.4692
1142.87	35.5873
1144.5	34.4215
1146.13	33.6712
1147.76	32.8119
1149.38	31.8562
1151.01	30.0666
1152.64	28.6682
1154.27	26.8032
1155.89	25.1988
1157.52	23.7138
1159.14	21.8913
1160.77	20.6183
1162.39	18.986
1164.02	18.1633
1165.64	17.2675
1167.27	15.5701
1168.89	14.8205
1170.51	13.6467
1172.14	13.6386
1173.76	12.4803
1175.38	12.8259
1177	12.4813
1178.63	11.9758
1180.25	12.2283
1181.87	12.2813
1183.49	12.8416
1185.11	13.6367
1186.73	14.5482
1188.35	14.4752
1189.97	15.208
1191.59	16.0682
1193.21	17.4206
1194.83	18.2652
1196.45	18.8391
1198.07	19.8966
1199.68	21.614
1201.3	22.98
1202.92	24.4607
1204.53	25.7743
1206.15	26.7988
1207.77	28.478
1209.38	30.226
1211	31.7887
1212.62	33.4597
1214.23	35.5011
1215.84	38.2318
1217.46	40.296
1219.07	41.7476
1220.69	44.8207
1222.3	45.7923
1223.91	47.4431
1225.53	49.1996
1227.14	51.1242
1228.75	51.5993
1230.36	52.5649
1231.97	52.7935
1233.59	54.0239
1235.2	54.5923
1236.81	56.042
1238.42	56.9961
1240.03	57.4609
1241.64	58.7042
1243.25	58.8004
1244.85	59.0666
1246.46	60.23
1248.07	60.8039
1249.68	62.0558
1251.29	62.9329
1252.9	62.7025
1254.5	62.9832
1256.11	64.8451
1257.72	65.4635
1259.32	66.2426
1260.93	67.1772
1262.54	68.4079
1264.14	69.0203
1265.75	68.7331
1267.35	68.4228
1268.96	68.726
1270.56	69.57
1272.16	69.6733
1273.77	70.7046
1275.37	70.0708
1276.97	70.1009
1278.57	70.2688
1280.18	70.6695
1281.78	70.9104
1283.38	71.5279
1284.98	71.4475
1286.58	71.737
1288.18	72.4809
1289.78	72.3437
1291.38	72.0655
1292.99	72.2613
1294.58	72.8915
1296.18	73.2946
1297.78	73.1469
1299.38	73.0936
1300.98	73.9218
1302.58	73.742
1304.17	75.2853
1305.77	75.156
1307.37	74.2185
1308.97	74.406
1310.56	74.2652
1312.16	74.6771
1313.76	75.3863
1315.35	75.7578
1316.95	75.9171
1318.54	75.5182
1320.14	75.153
1321.73	75.678
1323.32	75.8865
1324.92	76.3811
1326.51	76.7358
1328.1	76.0963
1329.7	75.4148
1331.29	75.752
1332.88	75.3509
1334.47	74.9433
1336.07	75.0674
1337.66	74.3606
1339.25	73.7803
1340.84	71.965
1342.43	70.6617
1344.02	68.9161
1345.61	67.0072
1347.2	66.0404
1348.79	65.8614
1350.37	64.9105
1351.96	63.8751
1353.55	63.4927
1355.14	60.582
1356.73	59.4585
1358.31	57.7842
1359.9	57.2873
1361.49	55.3003
1363.07	53.7218
1364.66	52.3201
1366.25	50.7547
1367.83	49.2949
1369.42	47.6461
1371	46.4264
1372.59	45.315
1374.17	45.3328
1375.75	44.6419
1377.34	43.4973
1378.92	43.0336
1380.5	43.3252
1382.09	43.4165
1383.67	42.5441
1385.25	41.4571
1386.83	41.4696
1388.42	42.0726
1390	40.7894
1391.58	41.9731
1393.16	41.9462
1394.74	41.3548
1396.32	40.7421
1397.9	40.7413
1399.48	40.3498
1401.06	40.0332
1402.64	39.7421
1404.21	38.739
1405.79	38.8452
1407.37	38.9293
1408.95	39.0016
1410.53	40.0881
1412.1	40.105
1413.68	41.0921
1415.26	41.7114
1416.83	42.2788
1418.41	43.3304
1419.98	44.1168
1421.56	46.073
1423.13	48.4929
1424.71	50.1681
1426.28	52.2588
1427.86	54.1565
1429.43	55.3393
1431	57.7223
1432.58	59.4056
1434.15	60.7565
1435.72	63.6828
1437.29	66.189
1438.87	67.8479
1440.44	69.0951
1442.01	71.0278
1443.58	72.4987
1445.15	73.827
1446.72	74.9069
1448.29	75.6116
1449.86	76.5513
1451.43	75.9968
1453	75.7513
1454.57	75.0743
1456.14	74.4077
1457.71	73.1895
1459.27	72.4888
1460.84	71.1774
1462.41	69.2024
1463.98	67.4615
1465.54	65.3739
1467.11	62.8501
1468.67	59.3642
1470.24	57.4287
1471.81	52.9873
1473.37	50.1615
1474.94	47.1118
1476.5	44.1673
1478.07	41.1017
1479.63	37.8155
1481.19	36.027
1482.76	33.1619
1484.32	30.9624
1485.88	28.2883
1487.45	25.4369
1489.01	23.1912
1490.57	20.3972
1492.13	18.8273
1493.69	16.8461
1495.26	15.6034
1496.82	14.6752
1498.38	14.0319
1499.94	14.0868
1501.5	13.9663
1503.06	13.5637
1504.62	13.172
1506.17	13.1482
1507.73	13.5604
1509.29	14.83
1510.85	14.5887
1512.41	14.1041
1513.97	14.6339
1515.52	14.5829
1517.08	14.5268
1518.64	15.6324
1520.19	16.3682
1521.75	16.8831
1523.31	17.6574
1524.86	17.7409
1526.42	18.1888
1527.97	18.5863
1529.52	18.809
1531.08	20.6344
1532.63	22.3387
1534.19	23.5569
1535.74	24.6252
1537.29	25.8916
1538.85	26.5116
1540.4	27.4395
1541.95	28.4381
1543.5	29.4034
1545.06	30.9755
1546.61	32.2694
1548.16	33.6022
1549.71	35.2696
1551.26	38.0671
1552.81	39.1399
1554.36	40.7954
1555.91	41.924
1557.46	42.9923
1559.01	44.5234
1560.56	44.8145
1562.11	45.6193
1563.65	46.8835
1565.2	47.8054
1566.75	49.5831
1568.29	50.5655
1569.84	52.1246
1571.39	53.1411
1572.94	54.106
1574.48	55.8476
1576.03	56.2961
1577.57	57.3637
1579.12	57.5124
1580.66	57.8066
1582.21	57.4817
1583.75	58.4398
1585.3	59.3412
1586.84	60.0072
1588.38	59.6526
1589.93	59.9164
1591.47	60.6614
1593.01	60.4303
1594.55	60.4036
1596.1	59.7194
1597.64	59.6243
1599.18	60.0784
1600.72	60.1164
1602.26	59.9373
1603.8	59.3022
1605.34	59.1874
1606.88	59.8376
1608.42	59.62
1609.96	59.3979
1611.5	59.1972
1613.04	58.9418
1614.58	58.7368
1616.12	59.0438
1617.65	59.8687
1619.19	60.2125
1620.73	61.2377
1622.27	61.8024
1623.8	62.4455
1625.34	63.2397
1626.87	65.0271
1628.41	65.5405
1629.95	66.1206
1631.48	67.3957
1633.02	68.0824
1634.55	69.0388
1636.09	70.0297
1637.62	71.2055
1639.15	72.1704
1640.69	73.3028
1642.22	74.1583
1643.76	75.5484
1645.29	76.0542
1646.82	77.398
1648.35	78.4789
1649.88	79.1657
1651.42	80.0277
1652.95	79.8501
1654.48	81.2265
1656.01	81.2898
1657.54	81.7293
1659.07	82.2831
1660.6	82.3608
1662.13	80.6361
1663.66	79.846
1665.19	78.2598
1666.72	76.5134
1668.24	75.3857
1669.77	73.8453
1671.3	72.0385
1672.83	69.5776
1674.35	68.8587
1675.88	66.6782
1677.41	63.834
1678.93	61.1877
1680.46	57.8042
1681.99	55.3977
1683.51	52.3648
1685.04	48.7713
1686.56	46.2381
1688.09	43.606
1689.61	41.2039
1691.13	39.0613
1692.66	35.8252
1694.18	32.8439
1695.71	29.8706
1697.23	27.5931
1698.75	25.2771
1700.27	23.7502
1701.8	22.0315
1703.32	21.0681
1704.84	19.6455
1706.36	18.5052
1707.88	17.2846
1709.4	15.8935
1710.92	14.5863
1712.44	13.83
1713.96	12.7782
1715.48	12.0243
1717	11.8939
1718.52	11.8778
1720.04	11.5826
1721.56	11.397
1723.07	11.1942
1724.59	11.3955
1726.11	11.6385
1727.63	11.8977
1729.14	11.1702
1730.66	11.2384
1732.18	10.9891
1733.69	10.8062
1735.21	10.5366
1736.72	9.84313
1738.24	9.89085
1739.75	10.1866
1741.27	10.0709
1742.78	9.80438
1744.3	9.91606
1745.81	9.65368
1747.32	9.05539
1748.84	8.75045
1750.35	8.67261
1751.86	7.54491
1753.37	7.05352
1754.89	6.27276
1756.4	5.47773
1757.91	5.36648
1759.42	4.45647
1760.93	4.41133
1762.44	3.71191
1763.95	2.60933
1765.46	1.88915
1766.97	1.30777
1768.48	0.145705
1769.99	-0.0616489
1771.5	0.14938
1773.01	0.486369
1774.52	1.21577
1776.03	1.3053
1777.53	1.39579
1779.04	1.40033
1780.55	0.56487
1782.06	0.24226
1783.56	0.0738822
1785.07	-0.0683737
1786.57	-0.0078365
1788.08	0.468544
1789.59	0.785176
1791.09	0.97116
1792.6	1.68409
1794.1	1.91437
1795.6	2.49495
1797.11	3.14777
1798.61	3.23036
1800.12	4.0027
1801.62	3.98918
1803.12	3.96465
1804.63	3.58436
1806.13	3.85979
1807.63	4.00139
1809.13	3.88009
1810.63	3.87288
1812.14	3.16696
1813.64	3.00129
1815.14	2.62139
1816.64	3.106
1818.14	2.99649
1819.64	3.06458
1821.14	3.50478
1822.64	2.89046
1824.14	2.88418
1825.63	2.6365
1827.13	2.81312
1828.63	2.98999
1830.13	2.5056
1831.63	1.86227
1833.12	1.68702
1834.62	1.65625
1836.12	1.87042
1837.62	1.63848
1839.11	1.34275
1840.61	1.20697
1842.1	0.968661
1843.6	1.15627
1845.09	1.09576
1846.59	1.32974
1848.08	1.60573
1849.58	1.41074
1851.07	0.766829
1852.57	0.58039
1854.06	0.196558
1855.55	0.508916
1857.04	1.17752
1858.54	1.13791
1860.03	1.45821
1861.52	1.46315
1863.01	1.59291
1864.5	1.57475
1866	1.33514
1867.49	1.61563
1868.98	1.67302
1870.47	1.99045
1871.96	1.95957
1873.45	1.56672
1874.94	2.03869
1876.43	2.09243
1877.92	1.66646
1879.41	1.25219
1880.89	1.31233
1882.38	1.17042
1882.48	1.21712
1883.97	1.37835
1885.47	1.40593
1886.96	1.84713
1888.46	1.68115
1889.95	2.06158
1891.44	1.91664
1892.94	2.26688
1894.43	2.06903
1895.92	1.58171
1897.41	1.56925
1898.9	2.20266
1900.4	2.06308
1901.89	1.99583
1903.38	2.63681
1904.87	3.1676
1906.36	3.83928
1907.85	4.16586
1909.34	4.22675
1910.83	4.08241
1912.32	3.99266
1913.81	3.95493
1915.29	4.62156
1916.78	5.19461
1918.27	4.95727
1919.76	4.80749
1921.25	4.49378
1922.74	4.19038
1924.22	5.17768
1925.71	5.69047
1927.2	6.14518
1928.68	6.39094
1930.17	5.94701
1931.65	5.19194
1933.14	5.07019
1934.63	4.68165
1936.11	4.56924
1937.59	4.63012
1939.08	4.58439
1940.56	4.86752
1942.05	4.8789
1943.53	4.96816
1945.01	4.74794
1946.5	4.89127
1947.98	5.45556
1949.46	5.13405
1950.94	5.07444
1952.43	5.25065
1953.91	5.16069
1955.39	5.07609
1956.87	5.55938
1958.35	5.66582
1959.83	5.34322
1961.31	5.43089
1962.79	5.27363
1964.27	5.35686
1965.75	5.01899
1967.23	5.05545
1968.71	4.72211
1970.19	4.76717
1971.67	5.36118
1973.14	5.48752
1974.62	5.31163
1976.1	5.79641
1977.58	6.23323
1979.05	6.2024
1980.53	6.15095
1982.01	6.30824
1983.48	6.57815
1984.96	6.72903
1986.43	7.15238
1987.91	7.44222
1989.38	8.10768
1990.86	7.44502
1992.33	7.02726
1993.81	6.94879
1995.28	7.14348
1996.76	7.93549
1998.23	7.81116
1999.7	7.3695
2001.18	7.36829
2002.65	7.09656
2004.12	7.17824
2005.59	7.15243
2007.06	7.29146
2008.54	7.31842
2010.01	7.44029
2011.48	7.68892
2012.95	8.87555
2014.42	9.0598
2015.89	9.37878
2017.36	9.57712
2018.83	9.89306
2020.3	10.6215
2021.77	10.7724
2023.24	11.5534
2024.71	11.4343
2026.17	11.1024
2027.64	11.7281
2029.11	12.2739
2030.58	13.1242
2032.04	12.9741
2033.51	12.9265
2034.98	12.7196
2036.45	12.3196
2037.91	12.3763
2039.38	12.4473
2040.84	12.67
2042.31	12.8274
2043.77	13.4045
2045.24	14.1935
2046.7	14.2299
2048.17	14.9543
2049.63	15.8109
2051.1	15.9492
2052.56	16.4896
2054.02	16.6278
2055.48	17.3795
2056.95	17.5602
2058.41	17.3568
2059.87	17.8448
2061.33	17.9322
2062.8	17.9818
2064.26	18.3842
2065.72	18.7042
2067.18	18.9106
2068.64	19.6009
2070.1	19.9053
2071.56	19.9086
2073.02	20.6185
2074.48	20.9413
2075.94	21.2377
2077.4	21.862
2078.86	21.8557
2080.31	22.041
2081.77	22.5324
2083.23	22.816
2084.69	23.6622
2086.14	24.5502
2087.6	23.9864
2089.06	24.7772
2090.52	25.3468
2091.97	26.0337
2093.43	26.1946
2094.88	26.5664
2096.34	26.4676
2097.79	26.1207
2099.25	26.5755
2100.7	27.4406
2102.16	28.1999
2103.61	29.0659
2105.07	29.3745
2106.52	30.3398
2107.97	31.0779
2109.43	32.2318
2110.88	33.4645
2112.33	34.1787
2113.78	35.5956
2115.24	36.9277
2116.69	38.9575
2118.14	40.3907
2119.59	41.999
2121.04	43.1513
2122.49	45.2228
2123.94	46.1677
2125.39	47.3331
2126.84	48.4226
2128.29	50.1803
2129.74	51.4119
2131.19	52.6748
2132.64	54.6272
2134.09	55.509
2135.54	57.4492
2136.98	59.1318
2138.43	59.896
2139.88	61.4652
2141.33	63.2812
2142.77	64.2965
2144.22	65.748
2145.67	67.5977
2147.11	69.3649
2148.56	71.0897
2150.01	72.2251
2151.45	73.1004
2152.9	74.5437
2154.34	76.167
2155.79	77.1784
2157.23	78.7116
2158.67	79.9564
2160.12	80.6662
2161.56	81.3427
2163	81.9971
2164.45	82.4961
2165.89	82.6274
2167.33	83.0623
2168.78	83.1754
2170.22	83.6346
2171.66	83.9867
2173.1	84.8734
2174.54	85.4514
2175.98	85.0184
2177.42	84.5803
2178.86	83.9626
2180.3	83.7233
2181.74	83.0913
2183.18	82.4637
2184.62	81.3229
2186.06	80.967
2187.5	79.7793
2188.94	79.0394
2190.38	78.0146
2191.82	76.9923
2193.25	75.41
2194.69	73.9343
2196.13	71.594
2197.57	69.2026
2199	68.0009
2200.44	66.711
2201.88	64.4995
2203.31	62.4686
2204.75	61.0065
2206.18	59.4024
2207.62	58.4678
2209.05	56.7538
2210.49	55.553
2211.92	54.2515
2213.36	53.3219
2214.79	52.2972
2216.22	51.621
2217.66	50.8985
2219.09	49.2332
2220.52	47.7273
2221.96	46.4499
2223.39	44.9653
2224.82	43.2748
2226.25	42.3247
2227.68	41.0627
2229.11	39.8072
2230.55	38.9723
2231.98	37.6313
2233.41	36.8801
2234.84	36.4976
2236.27	35.5119
2237.7	34.3253
2239.12	33.6748
2240.55	32.7146
2241.98	31.6303
2243.41	31.4345
2244.84	31.033
2246.27	30.0402
2247.7	28.782
2249.12	28.7745
2250.55	28.0144
2251.98	27.9773
2253.41	27.1981
2254.83	26.6674
2256.26	26.0892
2257.68	25.8665
2259.11	25.2301
2260.54	25.394
2261.96	24.9697
2263.39	24.4165
2264.81	23.6364
2266.24	22.9838
2267.66	22.6232
2269.08	22.2787
2270.51	22.7192
2271.93	22.2936
2273.35	21.7864
2274.78	21.5849
2276.2	21.688
2277.62	21.593
2279.04	21.2912
2280.47	20.6306
2281.89	20.5869
2283.31	19.9205
2284.73	19.7488
2286.15	19.3472
2287.57	18.2561
2288.99	17.0651
2290.41	15.6094
2291.83	14.8594
2293.25	13.5863
2294.67	12.9681
2296.09	13.1562
2297.51	13.6642
2298.93	13.6594
2300.35	13.49
2301.76	14.0623
2303.18	13.7814
2304.6	14.2348
2306.02	14.3122
2307.44	14.3551
2308.85	14.4108
2310.27	14.9492
2311.69	15.3621
2313.1	16.2312
2314.52	17.2578
2315.93	17.3892
2317.35	17.2985
2318.76	17.6335
2320.18	18.2414
2321.59	17.8957
2323.01	18.1196
2324.42	18.1618
2325.83	18.2334
2327.25	18.4002
2328.66	18.2582
2330.07	18.3664
2331.49	18.7456
2332.9	18.3059
2334.31	18.1299
2335.72	17.8252
2337.13	17.7049
2338.55	17.2004
2339.96	17.5843
2341.37	17.1102
2342.78	15.9517
2344.19	15.3436
2345.6	14.8428
2347.01	13.9342
2348.42	12.4179
2349.83	11.8328
2351.24	11.3546
2352.65	11.2546
2354.05	10.6971
2355.46	10.4081
2356.87	9.70828
2358.28	8.89791
2359.69	8.79575
2361.09	8.37901
2362.5	8.07223
2363.91	7.63858
2365.31	8.23184
2366.72	8.07926
2368.13	7.79835
2369.53	7.48092
2370.94	7.33976
2372.34	7.26364
2373.75	7.72425
2375.15	8.40781
2376.56	8.68161
2377.96	9.04923
2379.37	9.47817
2380.77	9.78792
2382.17	9.90149
2383.58	9.99619
2384.98	9.54207
2386.38	9.25513
2387.79	9.07522
2389.19	9.16306
2390.59	8.8694
2391.99	8.68041
2393.39	8.97634
2394.8	8.68949
2396.2	8.43745
2397.6	8.05255
2399	8.1328
2400.4	7.83747
2401.8	7.68842
2403.2	7.2441
2404.6	7.34545
2406	7.76982
2407.4	7.75431
2408.79	7.50443
2410.19	8.0542
2411.59	7.61913
2412.99	8.1284
2414.39	9.1669
2415.78	9.50742
2417.18	9.22642
2418.58	9.53756
2419.98	10.9923
2421.37	11.4179
2422.77	11.3956
2424.16	11.4684
2425.56	11.3732
2426.96	10.6797
2428.35	10.2211
2429.74	9.93733
2431.14	9.49356
2432.53	9.14361
2433.93	9.08175
2435.32	9.04484
2436.72	9.37885
2438.11	9.16217
2439.5	9.24367
2440.9	9.56619
2442.29	9.666
2443.68	10.1566
2445.07	10.0437
2446.47	9.50566
2447.86	9.04263
2449.25	8.88917
2450.64	8.9814
2452.03	8.71025
2453.42	8.09275
2454.81	7.80907
2456.2	7.52681
2457.59	7.02316
2458.98	6.6177
2460.37	6.4147
2461.76	6.16694
2463.15	5.77298
2464.54	5.30579
2465.93	5.46998
2467.32	5.11299
2468.7	5.36967
2470.09	4.78196
2471.48	5.1066
2472.87	4.84393
2474.25	4.78866
2475.64	5.15144
2477.03	4.76341
2478.41	4.81802
2479.8	5.64666
2481.18	4.89958
2482.57	5.2325
2483.95	4.99671
2485.34	4.19784
2486.72	3.87028
2488.11	4.05038
2489.49	4.33318
2490.88	3.89482
2492.26	3.70401
2493.65	3.95147
2495.03	3.95867
2496.41	3.73812
2497.79	3.80251
2499.18	3.73221
2500.56	3.85224
2501.94	3.59531
2503.32	3.55021
2504.7	2.988
2506.09	3.33983
2507.47	2.62586
2508.85	2.7007
2510.23	2.90843
2511.61	3.04042
2512.99	2.73748
2514.37	2.449
2515.75	2.17057
2517.13	2.11392
2518.51	2.066
2519.89	2.01949
2521.26	1.66285
2522.64	1.7054
2524.02	1.7957
2525.4	1.66867
2526.78	1.9573
2528.15	1.64049
2529.53	1.4651
2530.91	1.12603
2532.28	1.64359
2533.66	1.58742
2535.04	1.13496
2536.41	0.77272
2537.79	1.22083
2539.16	0.883214
2540.54	0.981887
2541.91	0.215382
2543.29	0.337217
2544.66	-0.0361647
2546.04	-0.452761
2547.41	-0.621265
2548.78	-0.451558
2550.16	-0.705664
2551.53	-0.210991
2552.9	-0.107552
2554.27	-0.0478044
2555.65	0.247841
2557.02	0.666756
2558.39	0.902511
2559.76	1.13719
2561.13	1.35949
2562.51	1.47597
2563.88	1.61655
2565.25	1.56178
2566.62	1.55616
2567.99	1.76169
2569.36	2.07193
2570.73	1.75109
2572.1	1.83515
2573.47	1.89782
2574.84	2.39346
2576.2	2.22566
2577.57	2.84622
2578.94	2.76914
2580.31	2.90496
2581.68	2.5602
2583.05	2.54848
2584.41	2.44573
2585.78	2.38823
2587.15	2.45511
2588.51	2.85398
2589.88	3.04924
2591.24	2.68401
2592.61	2.42088
2593.98	2.09981
2595.34	1.78838
2596.71	1.5075
2598.07	2.03721
2599.44	2.17871
2600.8	2.07906
2602.16	1.61656
2603.53	1.46994
2604.89	1.74966
2606.26	1.91887
2607.62	1.4944
2608.98	1.58266
2610.34	1.00453
2611.71	1.35197
2613.07	1.09364
2614.43	0.677048
2615.79	0.644371
2617.15	0.949364
2618.52	0.588304
2619.88	0.622581
2621.24	1.00562
2622.6	0.884821
2623.96	0.61526
2625.32	0.859256
2626.68	0.829581
2628.04	1.0449
2629.4	0.693734
2630.75	1.08035
2632.11	1.69436
2633.47	1.96837
2634.83	2.21044
2636.19	1.93429
2637.55	1.92374
2638.9	1.73196
2640.26	2.06626
2641.62	2.57677
2642.98	2.46343
2644.33	2.33565
2645.69	2.54657
2647.04	2.30495
2648.4	2.61377
2649.76	2.18845
2651.11	2.10623
2652.47	2.0472
2653.82	1.73004
2655.18	1.64398
2656.53	1.37614
2657.88	0.94405
2659.24	0.327342
2660.59	0.29662
2661.95	0.292645
2663.3	0.518425
2664.65	1.03239
2666	1.14113
2667.36	0.906744
2668.71	0.965249
2670.06	1.6598
2671.41	1.15544
2672.76	1.46265
2674.12	1.32303
2675.47	1.22898
2676.82	0.876133
2678.17	0.738478
2679.52	0.882874
2680.87	1.262
2682.22	0.862859
2683.57	1.43235
2684.92	1.33367
2686.27	0.753093
2687.62	0.825225
2688.97	0.62498
2690.31	0.259644
2691.66	0.171806
2693.01	0.475164
2694.36	0.663432
2695.71	0.486182
2697.05	0.496287
2698.4	1.04495
2699.75	1.22001
2701.09	1.51357
2702.44	1.71217
2703.78	1.37848
2705.13	1.86966
2706.48	2.14316
2707.82	2.85216
2709.17	3.16345
2710.51	3.06154
2711.86	3.21494
2713.2	3.80328
2714.54	3.92362
2715.89	4.13141
2717.23	4.36214
2718.57	4.68462
2719.92	4.7865
2721.26	4.93223
2722.6	5.14642
2723.95	4.87329
2725.29	5.22863
2726.63	5.82494
2727.97	6.32951
2729.31	6.40541
2730.65	6.38327
2732	6.33877
2733.34	6.19423
2734.68	6.17995
2736.02	6.03971
2737.36	5.91692
2738.7	5.54394
2740.04	5.89459
2741.38	6.05346
2742.72	6.08756
2744.05	6.31072
2745.39	6.95108
2746.73	6.97142
2748.07	6.61635
2749.41	5.58341
2750.75	5.72608
2752.08	5.29149
2753.42	5.03924
2754.76	5.32345
2756.09	5.71117
2757.43	5.39573
2758.77	5.32359
2760.1	5.07143
2761.44	4.81877
2762.78	4.71618
2764.11	4.95102
2765.44	4.99859
2766.78	4.89616
2768.11	4.99475
2769.45	4.65803
2770.78	4.28275
2772.12	4.43975
2773.45	4.39972
2774.78	4.13285
2776.12	4.27531
2777.45	4.54393
2778.78	4.15
2780.12	4.044
2781.45	3.91244
2782.78	3.76913
2784.11	3.65141
2785.44	3.27251
2786.78	3.44834
2788.11	3.08891
2789.44	2.89409
2790.77	2.5909
2792.1	2.5608
2793.43	2.06886
2794.76	1.17737
2796.09	1.10719
2797.42	0.831323
2798.75	1.03807
2800.08	1.33405
2801.4	1.55798
2802.73	1.75268
2804.06	1.77685
2805.39	2.17321
2806.72	2.56667
2808.05	2.82461
2809.37	2.48928
2810.7	2.62117
2812.03	2.11966
2813.35	2.02068
2814.68	2.17527
2816.01	2.78085
2817.33	3.41723
2818.66	3.71063
2819.98	4.43184
2821.31	5.82227
2822.63	7.10587
2823.96	8.6937
2825.28	10.9238
2826.61	13.1067
2827.93	15.2632
2829.25	17.5752
2830.58	19.539
2831.9	21.6353
2833.23	23.5566
2834.55	26.2759
2835.87	28.8685
2837.19	31.5413
2838.52	34.2465
2839.84	37.1256
2841.16	40.4286
2842.48	43.8256
2843.8	47.239
2845.12	50.249
2846.44	53.9
2847.77	58.2907
2849.08	62.5544
2850.4	67.5843
2851.73	72.2988
2853.05	76.9101
2854.36	81.3827
2855.68	86.4139
2857	90.2593
2858.32	94.7741
2859.64	99.2612
2860.96	104.112
2862.28	109.167
2863.59	112.844
2864.91	116.937
2866.23	121.048
2867.55	124.766
2868.86	128.314
2870.18	131.8
2871.5	134.995
2872.81	137.559
2874.13	139.766
2875.44	142.022
2876.76	144.405
2878.07	146.265
2879.39	149.013
2880.7	151.092
2882.02	153.464
2883.33	155.952
2884.65	158.74
2885.96	160.74
2887.28	163.377
2888.59	165.44
2889.9	168.334
2891.21	170.552
2892.53	172.336
2893.84	174.611
2895.15	177.169
2896.46	179.785
2897.78	182.133
2899.09	185.146
2900.4	188.707
2901.71	192.642
2903.02	196.592
2904.33	201.189
2905.64	206.624
2906.95	212.29
2908.26	217.489
2909.57	223.542
2910.88	229.201
2912.19	235.463
2913.5	241.759
2914.81	247.936
2916.12	253.536
2917.43	258.464
2918.73	263.665
2920.04	268.597
2921.35	272.298
2922.66	275.089
2923.96	278.52
2925.27	281.977
2926.58	284.659
2927.88	287.096
2929.19	287.625
2930.5	288.667
2931.8	288.957
2933.11	288.646
2934.41	287.837
2935.72	286.299
2937.02	283.945
2938.33	281.479
2939.63	278.744
2940.94	275.42
2942.24	271.829
2943.54	267.532
2944.85	263.715
2946.15	259.267
2947.45	254.678
2948.76	249.587
2950.06	243.834
2951.36	238.102
2952.66	232.984
2953.97	227.751
2955.27	222.299
2956.57	216.685
2957.87	211.302
2959.17	206.038
2960.47	200.775
2961.77	195.691
2963.07	191.151
2964.37	186.625
2965.67	182.269
2966.97	178.27
2968.27	173.831
2969.57	169.695
2970.87	165.423
2972.17	161.08
2973.47	156.81
2974.77	152.715
2976.07	148.221
2977.36	143.943
2978.66	139.567
2979.96	135.159
2981.26	130.254
2982.55	125.716
2983.85	121.319
2985.15	116.51
2986.44	111.408
2987.74	107.325
2989.03	102.822
2990.33	98.7637
2991.63	94.2006
2992.92	89.8598
2994.21	84.7982
2995.51	80.983
2996.8	76.4797
2998.1	73.1223
2999.39	69.3195
3000.69	65.6926
3001.98	62.3631
3003.27	59.5853
3004.57	56.3386
3005.86	53.1143
3007.15	50.154
3008.44	47.4144
3009.74	45.0982
3011.03	42.4235
3012.32	40.0412
3013.61	37.9075
3014.9	35.7424
3016.19	34.6147
3017.48	32.7764
3018.78	31.4848
3020.07	30.4154
3021.36	29.6331
3022.65	28.7521
3023.94	27.9698
3025.23	27.7053
3026.51	27.034
3027.8	26.5117
3029.09	25.7801
3030.38	25.7784
3031.67	25.3998
3032.96	24.7083
3034.24	24.783
3035.53	25.1095
3036.82	25.3562
3038.11	25.6734
3039.39	25.6697
3040.68	25.9746
3041.97	26.2518
3043.25	26.6317
3044.54	27.3372
3045.83	27.808
3047.11	28.3427
3048.4	29.0233
3049.68	29.0724
3050.97	29.3065
3052.25	29.7511
3053.54	29.7033
3054.82	29.8657
3056.11	29.8866
3057.39	29.3616
3058.67	28.6071
3059.96	28.0043
3061.24	27.6374
3062.52	27.6926
3063.81	26.7974
3065.09	25.5004
3066.37	25.1519
3067.65	24.5745
3068.94	23.2391
3070.22	22.2518
3071.5	21.4961
3072.78	20.6085
3074.06	19.2779
3075.34	18.15
3076.62	17.0209
3077.9	15.7862
3079.18	15.2917
3080.46	14.7314
3081.74	13.2921
3083.02	12.6017
3084.3	11.9423
3085.58	10.9356
3086.86	10.1646
3088.14	9.37831
3089.42	8.71829
3090.69	8.16793
3091.97	8.17366
3093.25	7.89351
3094.53	7.20495
3095.8	6.74137
3097.08	6.37749
3098.36	6.79657
3099.63	6.50146
3100.91	6.01066
3102.19	5.94665
3103.46	5.64547
3104.74	5.44465
3106.01	5.87941
3107.29	5.69427
3108.56	5.65585
3109.84	5.15628
3111.11	5.10506
3112.39	4.88003
3113.66	4.14129
3114.94	4.01597
3116.21	4.09451
3117.48	4.16854
3118.76	3.58843
3120.03	3.48378
3121.3	3.14034
3122.57	3.08152
3123.85	3.22943
3125.12	3.40054
3126.39	3.06445
3127.66	2.96497
3128.93	3.14779
3130.21	3.94169
3131.48	3.69162
3132.75	3.37272
3134.02	3.28276
3135.29	3.24141
3136.56	3.02328
3137.83	2.86132
3139.1	3.14542
3140.37	3.50684
3141.64	4.30337
3142.91	5.01762
3144.17	5.6481
3145.44	6.58746
3146.71	7.34212
3147.98	8.21961
3149.25	9.52282
