#Acq. time (s)=	45
#Accumulations=	2
#Range (cm-¹)=	200...3150
#Windows=	2
#Auto scanning=	Off
#Autofocus=	Off
#Macrospot=	Off
#AutoExposure=	Off
#Spike filter=	Multiple accum.
#Delay time (s)=	0
#Binning=	1
#Readout mode=	Signal
#DeNoise=	Off
#ICS correction=	On
#Dark correction=	Off
#Inst. Process=	Off
#Detector Gain=	Best Dynamic Range
#Detector ADC=	20 kHz       
#Detector temperature (°C)=	-69.85
#Instrument=	LabRAM HR Evol
#Detector=	Synapse
#Objective=	x100
#Grating=	600 gr/mm
#ND Filter=	100%
#Laser (nm)=	532 
#Hole=	100.021
#Range=	Auto
#Laser Pol.=	No
#Raman. Pol.=	No
#Laser Pol. (°)=	-0.0007625
#Raman Pol. (°)=	89.9995
#Collection=	Microscope
#StageXY=	Marzhauser
#StageZ=	Marzhauser
#X (µm)=	-5131.9
#Y (µm)=	1510.7
#Z (µm)=	63.7
#Full time(mm:ss)=	3:18
#Project=	
#Sample=	
#Site=	
#Title=	Thy_50_12_31_2x_45s_532 nm_x100_100%_600 gr_mm
#Remark=	
#Date=	07.07.2022 11:30
#Acquired=	07.07.2022 11:30:44
#Base:Fit=	10.08.2022 10:04:30
#Base:Sub=	10.08.2022 10:04:45
#Filter:Polynom=	16.08.2022 10:20:25
#AxisType[0]=Intens
#AxisUnit[0]=Cnt
#AxisType[1]=Spectr
#AxisUnit[1]=1/cm
200.43	17.9871
202.246	18.4321
204.061	16.5119
205.875	15.2646
207.688	13.6633
209.501	12.4195
211.316	11.2078
213.129	9.93948
214.941	9.17044
216.753	7.82004
218.566	7.0119
220.377	6.46706
222.188	4.86569
223.999	4.41191
225.809	4.38143
227.618	3.82558
229.43	2.90236
231.239	1.60557
233.047	2.84514
234.855	2.04521
236.663	0.916952
238.471	0.999824
240.278	1.32717
242.087	2.46467
243.894	3.1131
245.7	2.83501
247.506	3.35025
249.311	3.34567
251.116	4.28459
252.921	4.14432
254.725	3.57699
256.529	3.05083
258.333	3.56761
260.136	3.87248
261.939	3.83203
263.744	2.91901
265.546	2.75208
267.348	3.00443
269.15	3.19659
270.951	4.317
272.752	4.61249
274.552	5.4045
276.353	5.22616
278.152	5.77396
279.952	6.05256
281.751	7.4459
283.55	7.20923
285.348	7.14186
287.146	6.66674
288.942	6.04542
290.739	6.17685
292.536	5.99616
294.333	6.75721
296.129	7.64717
297.925	7.61134
299.721	7.84615
301.516	7.23407
303.311	6.72879
305.106	7.74915
306.9	8.14746
308.694	8.81529
310.486	8.66758
312.279	8.62723
314.072	9.05142
315.864	9.69309
317.656	8.75167
319.448	8.91492
321.24	9.68767
323.029	11.3944
324.819	10.3551
326.61	11.7631
328.4	13.9495
330.19	13.819
331.977	14.1034
333.766	13.0211
335.555	12.4099
337.343	12.9294
339.131	13.0525
340.917	13.8841
342.704	13.5934
344.491	13.1293
346.277	12.3641
348.062	11.6307
349.848	11.3927
351.633	10.3393
353.416	9.54478
355.201	10.8289
356.986	10.1163
358.77	9.53995
360.552	9.65762
362.335	8.4737
364.118	8.68233
365.899	9.16415
367.682	10.0742
369.464	9.98695
371.243	8.69835
373.025	7.45685
374.806	7.54482
376.585	6.89157
378.365	5.57766
380.143	5.76412
381.923	6.69047
383.702	6.83632
385.479	6.77724
387.258	6.27103
389.034	7.03479
390.812	6.20939
392.59	6.60239
394.365	8.22021
396.142	9.34736
397.916	9.26225
399.693	9.79664
401.467	10.4282
403.242	10.0666
405.015	10.923
406.79	11.243
408.565	12.7742
410.337	14.0224
412.111	14.8062
413.882	14.4259
415.656	15.8052
417.426	15.8803
419.197	15.5308
420.969	16.0394
422.739	16.9534
424.51	17.0104
426.279	16.6323
428.05	16.5358
429.819	15.7263
431.589	14.7096
433.356	13.9624
435.124	14.0271
436.893	14.2225
438.66	13.8268
440.428	12.9786
442.194	13.345
443.96	13.7438
445.727	14.2329
447.492	14.6761
449.259	15.3696
451.023	15.2569
452.787	16.0152
454.553	15.9858
456.316	15.9576
458.079	14.8717
459.844	14.4152
461.606	14.6487
463.368	15.4866
465.132	14.9523
466.893	16.0172
468.654	17.9119
470.415	20.1449
472.177	21.0119
473.937	22.6468
475.696	24.653
477.456	25.3527
479.217	26.6011
480.975	28.4141
482.733	29.8376
484.491	30.3292
486.251	30.7424
488.008	31.9391
489.765	32.2628
491.522	33.2029
493.278	33.9223
495.036	34.1514
496.791	34.7861
498.546	35.1658
500.301	35.1211
502.056	35.1725
503.81	35.3227
505.566	34.489
507.319	33.2177
509.073	32.4402
510.825	32.7444
512.578	31.813
514.33	31.6477
516.082	32.3901
517.833	32.3146
519.587	31.8727
521.337	31.68
523.088	30.8718
524.838	30.1395
526.588	28.0536
528.337	27.511
530.087	26.9889
531.835	26.2575
533.584	26.1751
535.332	24.2893
537.08	22.6705
538.827	21.5972
540.574	21.1505
542.321	19.9681
544.068	18.7803
545.814	17.8962
547.56	17.8653
549.305	18.6887
551.05	18.8488
552.795	18.0489
554.54	18.1627
556.284	17.5837
558.027	18.2105
559.771	17.452
561.514	16.2816
563.257	14.995
564.999	13.1075
566.742	12.8497
568.481	11.3029
570.223	9.42088
571.964	9.5962
573.705	9.78873
575.445	8.82546
577.185	8.54194
578.925	8.08195
580.665	7.09099
582.402	6.81717
584.141	7.00765
585.879	7.3137
587.617	6.67912
589.355	6.47245
591.092	5.9606
592.828	5.46648
594.564	5.51005
596.301	6.03576
598.037	6.77629
599.773	7.31258
601.506	7.78992
603.242	8.28061
604.976	7.59587
606.711	7.89029
608.443	8.07261
610.177	8.87891
611.91	9.7111
613.644	10.3032
615.374	12.4252
617.107	13.6764
618.839	14.31
620.569	14.5587
622.3	14.6581
624.032	14.7123
625.761	14.3424
627.491	14.7886
629.221	15.4196
630.949	15.6182
632.679	16.521
634.408	16.7708
636.135	16.9733
637.863	16.0324
639.592	14.962
641.318	15.1058
643.045	15.3092
644.77	14.8077
646.497	14.0986
648.224	13.1877
649.948	13.0119
651.674	13.7855
653.398	14.4972
655.123	14.0209
656.846	13.9059
658.57	14.2741
660.293	14.2084
662.017	14.3016
663.738	13.7929
665.462	13.037
667.185	12.2066
668.905	11.0497
670.628	11.0453
672.348	11.2995
674.067	9.80394
675.789	11.1342
677.508	11.1491
679.228	11.732
680.947	12.7693
682.667	13.8541
684.385	16.5563
686.104	18.2934
687.821	19.1308
689.538	20.4045
691.256	21.7934
692.972	23.2189
694.69	24.3193
696.406	25.7017
698.121	25.5529
699.837	26.6883
701.552	28.591
703.268	28.7408
704.982	28.719
706.695	29.1201
708.41	30.6425
710.123	31.4797
711.836	31.0918
713.55	33.2247
715.262	34.0304
716.973	34.6839
718.685	35.8246
720.398	36.855
722.108	37.3846
723.818	37.2451
725.53	38.7042
727.24	39.7957
728.949	40.0381
730.658	39.8794
732.369	41.4165
734.077	42.6573
735.785	44.7689
737.493	45.5815
739.2	44.7613
740.909	44.8425
742.616	44.925
744.322	46.8262
746.028	47.4808
747.734	48.4377
749.441	49.1414
751.146	50.1822
752.851	50.9765
754.555	52.743
756.26	53.7475
757.963	55.7419
759.667	56.8411
761.372	58.6881
763.075	59.1887
764.777	61.4981
766.479	63.4346
768.181	64.9348
769.883	65.6488
771.584	65.8802
773.285	66.4644
774.986	66.3093
776.686	66.4056
778.386	66.8976
780.085	67.7885
781.785	68.1884
783.484	69.1121
785.182	70.818
786.881	71.8361
788.579	72.1737
790.276	72.5519
791.974	73.3059
793.671	73.1184
795.367	73.7654
797.064	72.8019
798.76	73.873
800.456	73.643
802.151	73.6343
803.846	73.5437
805.541	73.0682
807.236	72.8548
808.93	72.8101
810.624	74.0334
812.317	73.4655
814.01	73.1725
815.703	74.1041
817.394	74.7904
819.086	74.7448
820.778	74.6696
822.47	74.2375
824.161	73.752
825.852	73.6903
827.543	73.495
829.231	74.2891
830.921	73.0368
832.611	72.6096
834.3	72.0561
835.989	72.0409
837.676	71.5471
839.364	70.1835
841.053	68.8828
842.74	68.67
844.426	67.6508
846.113	67.3681
847.8	67.832
849.486	66.6231
851.171	65.5171
852.857	63.2486
854.542	62.1117
856.227	62.0715
857.911	61.3295
859.595	60.4515
861.279	59.9656
862.961	59.6718
864.645	59.807
866.329	58.2687
868.01	57.7499
869.692	56.4443
871.375	55.4541
873.055	54.9547
874.737	53.2309
876.418	52.3905
878.097	51.6065
879.778	52.0391
881.457	50.9326
883.137	50.5742
884.817	50.9571
886.495	49.2779
888.174	48.4292
889.851	47.6017
891.53	47.7707
893.206	46.2884
894.884	45.6986
896.562	44.9454
898.237	44.326
899.914	44.1835
901.589	42.6435
903.265	42.2295
904.94	41.3386
906.615	40.1445
908.289	38.6481
909.964	37.7662
911.637	38.0981
913.31	38.2698
914.984	37.1802
916.656	36.4418
918.33	37.0169
920.001	35.8146
921.674	34.6373
923.345	34.393
925.015	35.0502
926.687	34.3762
928.357	33.8333
930.028	32.9674
931.698	32.4338
933.366	31.4181
935.037	31.9405
936.705	31.415
938.373	31.4178
940.043	30.641
941.71	30.1855
943.379	29.5308
945.046	28.6156
946.712	29.6674
948.378	31.4505
950.046	32.1848
951.711	35.4945
953.376	37.6775
955.043	40.3251
956.708	41.9116
958.372	41.5817
960.036	42.4744
961.701	43.7707
963.364	44.4519
965.027	46.4738
966.69	46.9826
968.354	48.5685
970.016	48.8411
971.678	50.6011
973.339	51.5758
975	53.5515
976.661	52.9327
978.324	54.8671
979.984	55.9425
981.644	56.6847
983.303	57.2854
984.962	58.0066
986.621	58.7101
988.282	59.1156
989.94	59.1673
991.598	60.3076
993.256	60.819
994.913	61.0511
996.57	60.4498
998.227	60.264
999.884	59.716
1001.54	58.9496
1003.2	58.3792
1004.85	58.5441
1006.51	58.7942
1008.16	58.6699
1009.82	57.9538
1011.47	58.17
1013.12	59.5488
1014.78	60.5601
1016.43	60.3973
1018.08	60.876
1019.74	60.3366
1021.39	60.2664
1023.04	60.9299
1024.69	62.6465
1026.34	62.9462
1028	64.1771
1029.65	65.6672
1031.3	67.1399
1032.95	67.73
1034.6	67.9624
1036.25	67.4004
1037.9	66.6554
1039.55	65.2713
1041.19	64.7077
1042.84	65.8968
1044.49	65.4827
1046.14	65.0723
1047.79	64.6751
1049.43	62.9611
1051.08	62.5185
1052.73	61.3253
1054.37	59.8641
1056.02	59.5255
1057.66	59.3079
1059.31	57.4355
1060.95	56.9908
1062.6	55.2877
1064.24	54.0997
1065.88	51.9676
1067.53	50.1371
1069.17	48.1389
1070.81	45.2103
1072.46	42.9054
1074.1	41.8326
1075.74	40.1063
1077.38	38.2812
1079.02	36.8698
1080.66	35.7767
1082.3	33.7278
1083.94	33.4044
1085.58	33.7676
1087.22	33.7238
1088.86	33.5791
1090.5	31.9671
1092.14	31.5183
1093.78	31.5547
1095.42	32.4443
1097.05	31.2
1098.69	30.7942
1100.33	31.0612
1101.97	31.3508
1103.6	32.3966
1105.24	32.484
1106.87	33.3249
1108.51	32.8215
1110.15	32.6358
1111.78	31.304
1113.41	31.6293
1115.05	31.5292
1116.68	30.9559
1118.31	30.4416
1119.95	30.5429
1121.58	29.8251
1123.21	29.0673
1124.85	27.3754
1126.48	25.241
1128.11	24.3752
1129.74	23.3892
1131.37	23.6691
1133	23.7084
1134.63	23.809
1136.26	23.9643
1137.89	23.6424
1139.52	22.8552
1141.15	20.8836
1142.78	19.4113
1144.41	17.6642
1146.04	17.7695
1147.66	14.8584
1149.29	13.6836
1150.92	12.8536
1152.55	10.6411
1154.17	10.115
1155.8	9.66725
1157.43	8.81577
1159.05	7.58161
1160.68	6.42338
1162.3	5.20286
1163.93	4.37641
1165.55	4.4426
1167.17	3.42036
1168.8	3.15903
1170.42	3.01683
1172.05	3.80963
1173.67	5.34959
1175.29	6.54326
1176.91	7.20918
1178.54	7.01212
1180.16	8.12287
1181.78	9.28863
1183.4	9.48294
1185.02	8.58941
1186.64	8.65945
1188.26	9.0871
1189.88	8.07072
1191.5	8.06622
1193.12	8.05791
1194.74	9.48433
1196.36	9.92031
1197.97	10.6916
1199.59	11.5353
1201.21	12.4009
1202.83	12.6937
1204.44	13.7399
1206.06	14.7631
1207.68	16.1402
1209.29	18.7235
1210.91	21.1406
1212.52	23.6506
1214.14	26.2223
1215.75	28.8701
1217.37	31.207
1218.98	32.9891
1220.6	35.9404
1222.21	38.407
1223.82	41.5143
1225.44	44.594
1227.05	47.3588
1228.66	47.8126
1230.27	51.0046
1231.88	54.1042
1233.49	56.0307
1235.1	59.4338
1236.72	63.2075
1238.33	65.5933
1239.94	67.9746
1241.55	69.3077
1243.16	72.1292
1244.76	75.1361
1246.37	78.3006
1247.98	80.672
1249.59	84.7138
1251.2	88.2445
1252.8	90.9922
1254.41	91.7266
1256.02	94.4355
1257.63	95.9414
1259.23	98.1519
1260.84	100.485
1262.44	102.006
1264.05	102.994
1265.66	105.382
1267.26	108.015
1268.87	110.227
1270.47	112.251
1272.07	114.179
1273.68	115.09
1275.28	117.574
1276.88	118.377
1278.48	118.607
1280.09	119.714
1281.69	120.787
1283.29	121.953
1284.89	123.224
1286.49	123.959
1288.09	124.699
1289.69	126.305
1291.3	127.784
1292.9	129.243
1294.49	129.163
1296.09	129.669
1297.69	130.697
1299.29	130.327
1300.89	131.718
1302.49	132.023
1304.09	131.998
1305.68	131.023
1307.28	129.594
1308.88	129.315
1310.47	129.216
1312.07	129.328
1313.66	128.05
1315.26	126.474
1316.86	125.351
1318.45	122.97
1320.05	121.605
1321.64	121.01
1323.23	121.215
1324.83	119.635
1326.42	118.762
1328.01	116
1329.61	114.967
1331.2	112.862
1332.79	110.391
1334.38	107.97
1335.98	108.25
1337.57	106.761
1339.16	104.727
1340.75	104.416
1342.34	102.458
1343.93	100.556
1345.52	99.0939
1347.11	96.789
1348.7	93.9413
1350.29	91.9691
1351.87	89.287
1353.46	86.8251
1355.05	85.4619
1356.64	82.2044
1358.23	80.8003
1359.81	79.9256
1361.4	78.6632
1362.99	76.9757
1364.57	75.6396
1366.16	74.4364
1367.74	73.6636
1369.33	73.0354
1370.91	71.4232
1372.5	69.0558
1374.08	66.7916
1375.67	67.1582
1377.25	66.6165
1378.83	65.694
1380.42	65.9803
1382	64.2298
1383.58	63.7887
1385.16	62.421
1386.75	62.1769
1388.33	61.6485
1389.91	61.0476
1391.49	60.9752
1393.07	59.8277
1394.65	58.9727
1396.23	59.5475
1397.81	59.7189
1399.39	61.3686
1400.97	62.0455
1402.55	61.1409
1404.13	61.6824
1405.7	63.0613
1407.28	63.9626
1408.86	67.3564
1410.44	68.5465
1412.01	70.9286
1413.59	72.7801
1415.17	75.5605
1416.74	77.5771
1418.32	79.9522
1419.89	83.6298
1421.47	85.3739
1423.05	87.9937
1424.62	91.2226
1426.19	94.2924
1427.77	98.7861
1429.34	104.238
1430.92	107.711
1432.49	113.006
1434.06	117.196
1435.63	120.228
1437.2	123.988
1438.78	126.456
1440.35	129.074
1441.92	131.613
1443.49	133.749
1445.06	135.177
1446.63	135.426
1448.2	135.443
1449.77	134.574
1451.34	134.342
1452.91	134.893
1454.48	134.966
1456.05	133.653
1457.62	132.037
1459.18	128.988
1460.75	125.218
1462.32	122.367
1463.89	117.291
1465.45	112.322
1467.02	107.478
1468.59	103.206
1470.15	98.7986
1471.72	92.7627
1473.28	87.6014
1474.85	83.0857
1476.41	77.843
1477.98	73.4002
1479.54	67.6639
1481.11	62.8287
1482.67	59.1924
1484.23	54.1753
1485.8	50.6786
1487.36	45.7937
1488.92	41.1492
1490.48	38.8616
1492.05	35.8669
1493.61	34.983
1495.17	32.7709
1496.73	31.508
1498.29	30.839
1499.85	30.9638
1501.41	31.4178
1502.97	32.0674
1504.53	32.6301
1506.09	33.892
1507.65	34.3772
1509.2	34.8053
1510.76	36.043
1512.32	36.5484
1513.88	37.041
1515.44	38.1863
1516.99	39.203
1518.55	41.0474
1520.1	43.2746
1521.66	44.3356
1523.22	45.8608
1524.77	48.0846
1526.33	50.8849
1527.88	52.4506
1529.44	54.0695
1530.99	55.9401
1532.55	56.2185
1534.1	56.6664
1535.65	57.7601
1537.21	58.5048
1538.76	60.0538
1540.31	61.0135
1541.86	61.976
1543.42	63.8684
1544.97	65.8293
1546.52	67.2411
1548.07	68.4864
1549.62	69.9356
1551.17	72.2161
1552.72	73.9937
1554.27	75.6048
1555.82	77.6489
1557.37	79.9015
1558.92	82.6002
1560.47	84.1065
1562.02	85.378
1563.57	88.1939
1565.11	89.3501
1566.66	92.3592
1568.21	95.6217
1569.75	98.6372
1571.3	100.817
1572.85	102.786
1574.39	106.505
1575.94	109.546
1577.49	112.367
1579.03	115.102
1580.58	117.335
1582.12	118.876
1583.67	120.809
1585.21	122.029
1586.75	122.569
1588.3	123.11
1589.84	124.091
1591.38	124.324
1592.93	124.994
1594.47	125.002
1596.01	124.912
1597.55	125.288
1599.09	125.242
1600.63	125.28
1602.18	125.321
1603.72	124.339
1605.26	122.115
1606.8	121.563
1608.34	121.851
1609.87	121.26
1611.41	121.228
1612.95	122.126
1614.49	122.092
1616.03	122.54
1617.57	122.488
1619.11	122.829
1620.64	123.174
1622.18	123.21
1623.72	123.79
1625.25	123.777
1626.79	125.758
1628.32	126.721
1629.86	128.636
1631.4	130.192
1632.93	132.163
1634.47	134.608
1636	136.032
1637.53	136.979
1639.07	139.09
1640.6	141.563
1642.14	143.815
1643.67	146.867
1645.2	149.306
1646.73	151.105
1648.27	153.014
1649.8	156.174
1651.33	158.074
1652.86	159.031
1654.39	159.939
1655.92	159.658
1657.45	158.818
1658.98	157.789
1660.51	156.132
1662.04	153.719
1663.57	151.327
1665.1	149.918
1666.63	147.545
1668.16	143.844
1669.69	140.276
1671.21	136.262
1672.74	132.659
1674.27	129.828
1675.79	124.982
1677.32	120.461
1678.85	115.505
1680.37	110.798
1681.9	106.141
1683.42	102.256
1684.95	97.3152
1686.47	92.2853
1688	87.4315
1689.52	82.8842
1691.05	77.402
1692.57	72.8621
1694.1	67.9376
1695.62	62.795
1697.14	58.1497
1698.66	55.0285
1700.19	50.9688
1701.71	47.2992
1703.23	45.2146
1704.75	42.2614
1706.27	40.0296
1707.79	36.5047
1709.32	34.456
1710.83	32.5192
1712.35	29.9108
1713.88	28.5691
1715.39	27.6132
1716.91	26.7064
1718.43	26.3109
1719.95	25.8289
1721.47	25.1508
1722.99	24.4281
1724.5	24.1715
1726.02	23.5478
1727.54	22.4581
1729.06	22.1818
1730.57	21.9557
1732.09	21.0309
1733.61	21.4837
1735.12	20.5796
1736.64	19.7424
1738.15	19.8617
1739.67	19.7256
1741.18	19.6466
1742.7	19.2198
1744.21	18.7573
1745.72	18.7523
1747.24	18.0744
1748.75	18.3852
1750.26	18.0996
1751.78	16.8633
1753.29	17.1086
1754.8	16.6663
1756.31	16.322
1757.82	15.4026
1759.34	14.5511
1760.85	14.1018
1762.36	13.386
1763.87	12.678
1765.38	12.1129
1766.89	11.4569
1768.4	10.985
1769.91	10.1701
1771.41	9.5078
1772.92	9.31655
1774.43	9.61092
1775.94	8.40996
1777.45	8.74571
1778.96	8.83413
1780.46	9.06959
1781.97	8.59439
1783.48	8.14069
1784.98	8.28107
1786.49	8.42523
1788	8.38006
1789.5	8.6187
1791.01	8.29245
1792.51	7.64408
1794.01	8.23006
1795.52	8.14563
1797.02	7.47598
1798.53	6.84515
1800.03	7.32821
1801.54	7.1036
1803.04	7.23414
1804.54	7.28033
1806.04	6.86345
1807.54	6.4683
1809.05	6.73186
1810.55	6.58747
1812.05	7.06301
1813.55	7.29631
1815.05	6.61829
1816.55	6.99785
1818.05	7.03291
1819.55	6.21318
1821.05	6.2863
1822.55	6.05903
1824.05	5.48443
1825.55	4.64955
1827.05	4.60534
1828.55	4.64195
1830.04	4.36288
1831.54	3.82639
1833.04	4.09755
1834.54	4.03559
1836.03	4.19053
1837.53	4.02
1839.03	3.78763
1840.52	3.29576
1842.02	2.88995
1843.51	2.62937
1845.01	2.81674
1846.5	2.89843
1848	2.58563
1849.49	2.70531
1850.99	2.31705
1852.48	2.8269
1853.97	3.0906
1855.47	2.77497
1856.96	2.48044
1858.45	2.53064
1859.94	2.15773
1861.44	2.59347
1862.93	2.31496
1864.42	2.55219
1865.91	3.21731
1867.4	2.93895
1868.89	3.23626
1870.38	2.25971
1871.87	2.28065
1873.36	2.14664
1874.85	2.04354
1876.34	2.31827
1877.83	2.26473
1879.32	2.30733
1880.81	3.13746
1882.3	3.33621
1882.56	4.45061
1884.06	4.97792
1885.55	5.16816
1887.04	5.94982
1888.54	5.66627
1890.03	5.91968
1891.52	6.0878
1893.02	5.54212
1894.51	6.39428
1896	6.17464
1897.49	6.35214
1898.99	7.00603
1900.48	7.12591
1901.97	6.79682
1903.46	6.93381
1904.95	6.95061
1906.44	7.03051
1907.93	6.43455
1909.42	6.53903
1910.91	6.02181
1912.4	5.86466
1913.89	6.36464
1915.38	6.15558
1916.86	6.64007
1918.35	7.11518
1919.84	6.38114
1921.33	6.32236
1922.82	5.80729
1924.3	5.90963
1925.79	6.46621
1927.28	5.43595
1928.76	4.77549
1930.25	4.67602
1931.74	4.3051
1933.22	3.9897
1934.71	4.08205
1936.19	3.58203
1937.67	3.36325
1939.16	3.09195
1940.64	1.92638
1942.13	1.44335
1943.61	1.75979
1945.09	1.94083
1946.58	1.49215
1948.06	2.56607
1949.54	2.61454
1951.03	1.81251
1952.51	1.94167
1953.99	1.83082
1955.47	1.17192
1956.95	1.67918
1958.43	0.692342
1959.91	0.25406
1961.39	-0.191436
1962.87	-1.7166
1964.35	-1.52488
1965.83	-1.12995
1967.31	-1.23099
1968.79	-0.333929
1970.27	-0.992132
1971.75	-0.476725
1973.22	-0.856476
1974.7	-1.33911
1976.18	-0.929646
1977.66	-0.365921
1979.13	-0.74288
1980.61	-0.963235
1982.09	-0.801519
1983.56	0.518491
1985.04	1.05432
1986.52	2.69354
1987.99	3.66468
1989.47	3.64192
1990.94	4.65182
1992.41	4.17901
1993.89	3.95808
1995.36	4.60263
1996.84	4.7535
1998.31	6.37357
1999.78	6.8617
2001.26	6.67511
2002.73	7.87835
2004.2	7.89706
2005.67	8.20536
2007.15	8.60265
2008.62	9.30281
2010.09	10.1128
2011.56	10.8728
2013.03	11.5539
2014.5	12.2097
2015.97	13.3339
2017.44	14.097
2018.91	13.8022
2020.38	13.4974
2021.85	13.7481
2023.32	13.1262
2024.79	13.2598
2026.25	12.4763
2027.72	13.015
2029.19	12.8828
2030.66	12.6714
2032.13	12.6998
2033.59	12.2878
2035.06	12.6075
2036.53	12.8886
2037.99	13.9866
2039.46	14.5108
2040.92	14.1945
2042.39	14.1257
2043.85	13.9582
2045.32	14.2085
2046.78	14.4108
2048.25	14.5753
2049.71	14.6666
2051.18	14.4934
2052.64	14.9646
2054.1	16.0427
2055.56	16.5286
2057.03	17.6819
2058.49	18.194
2059.95	18.5248
2061.42	18.6055
2062.88	19.1037
2064.34	19.6653
2065.8	20.2274
2067.26	21.7089
2068.72	22.986
2070.18	24.1021
2071.64	26.2145
2073.1	26.9806
2074.56	27.4722
2076.02	28.9192
2077.48	30.3548
2078.94	32.4437
2080.39	35.1267
2081.85	37.1198
2083.31	38.8568
2084.77	40.6423
2086.22	42.4441
2087.68	44.7784
2089.14	46.7102
2090.6	48.2258
2092.05	50.3803
2093.51	52.4853
2094.96	54.5506
2096.42	56.4657
2097.87	58.3935
2099.33	60.2189
2100.78	63.1078
2102.24	65.1279
2103.69	67.8865
2105.15	70.8682
2106.6	73.3269
2108.05	76.5295
2109.51	79.2588
2110.96	82.0192
2112.41	84.3989
2113.86	86.6826
2115.32	89.4571
2116.77	92.2897
2118.22	95.1311
2119.67	98.6889
2121.12	101.333
2122.57	103.555
2124.02	106.592
2125.47	109.816
2126.92	112.256
2128.37	114.783
2129.82	118.364
2131.27	121.816
2132.72	125.071
2134.17	128.51
2135.62	131.964
2137.06	135.843
2138.51	139.389
2139.96	141.967
2141.41	145.367
2142.85	148.447
2144.3	152.85
2145.75	155.763
2147.19	158.291
2148.64	161.925
2150.09	164.736
2151.53	166.757
2152.97	169.191
2154.42	170.986
2155.86	172.529
2157.31	174.683
2158.75	177.175
2160.2	178.474
2161.64	179.964
2163.08	180.68
2164.53	181.806
2165.97	182.405
2167.41	182.978
2168.86	183.611
2170.3	183.725
2171.74	183.472
2173.18	183.144
2174.62	182.646
2176.06	181.19
2177.5	180.111
2178.94	179.05
2180.38	176.971
2181.82	174.986
2183.26	173.075
2184.7	171.388
2186.14	169.177
2187.58	167.054
2189.02	164.285
2190.46	161.87
2191.89	159.94
2193.33	156.893
2194.77	154.264
2196.21	151.809
2197.64	149.279
2199.08	146.9
2200.52	144.496
2201.95	142.249
2203.39	139.854
2204.83	135.875
2206.26	132.09
2207.7	129.151
2209.13	125.947
2210.57	121.885
2212	118.439
2213.43	115.961
2214.87	112.817
2216.3	109.502
2217.73	105.433
2219.17	101.793
2220.6	98.576
2222.03	94.6542
2223.47	91.4307
2224.9	88.2856
2226.33	85.1102
2227.76	82.3999
2229.19	80.8325
2230.62	78.1429
2232.05	74.9704
2233.49	72.5909
2234.91	70.2196
2236.34	67.7678
2237.77	64.6743
2239.2	62.1248
2240.63	59.547
2242.06	56.8907
2243.49	54.5494
2244.92	52.5229
2246.35	50.1663
2247.78	48.4738
2249.2	47.5081
2250.63	45.9708
2252.06	44.2929
2253.48	43.5749
2254.91	43.1114
2256.34	42.3588
2257.76	40.7342
2259.19	40.0183
2260.61	39.6029
2262.04	39.9239
2263.46	39.3433
2264.89	38.814
2266.31	38.4068
2267.74	37.8498
2269.16	36.897
2270.59	35.8409
2272.01	34.754
2273.43	33.8272
2274.85	32.8707
2276.28	31.4272
2277.7	30.5091
2279.12	29.3386
2280.54	29.1399
2281.97	28.5803
2283.39	27.7306
2284.81	26.6067
2286.23	25.2651
2287.65	24.2445
2289.07	23.886
2290.49	22.4943
2291.91	21.2907
2293.33	19.8126
2294.75	19.6932
2296.17	19.7173
2297.59	19.3888
2299.01	19.9003
2300.42	19.4721
2301.84	18.5346
2303.26	18.5683
2304.68	18.4012
2306.1	17.9478
2307.51	16.638
2308.93	16.715
2310.35	16.2843
2311.76	15.748
2313.18	15.2473
2314.59	15.1724
2316.01	14.9885
2317.43	14.5467
2318.84	14.6364
2320.26	14.6554
2321.67	14.8226
2323.08	14.71
2324.5	14.6503
2325.91	14.7962
2327.33	14.3166
2328.74	13.9212
2330.15	14.1756
2331.56	14.1072
2332.98	13.5315
2334.39	12.5444
2335.8	12.18
2337.21	11.6086
2338.62	11.329
2340.04	10.2809
2341.45	9.99149
2342.86	9.92732
2344.27	9.07104
2345.68	8.71447
2347.09	7.75344
2348.5	7.08559
2349.91	6.69609
2351.31	6.69174
2352.72	5.33885
2354.13	4.31275
2355.54	3.77789
2356.95	3.67465
2358.36	3.01625
2359.76	2.13624
2361.17	0.597459
2362.58	1.23839
2363.98	1.70248
2365.39	2.11613
2366.8	2.34367
2368.21	2.49673
2369.61	3.0066
2371.02	3.43778
2372.42	3.43834
2373.83	3.61217
2375.23	3.23704
2376.64	2.58868
2378.04	2.67522
2379.44	3.36985
2380.85	2.94593
2382.25	3.42985
2383.66	4.03903
2385.06	4.33261
2386.46	4.23443
2387.86	4.83671
2389.26	5.95461
2390.67	5.99354
2392.07	5.53466
2393.47	4.64277
2394.87	4.72811
2396.27	4.51707
2397.67	4.48335
2399.07	4.43936
2400.47	4.81539
2401.87	5.07496
2403.27	5.50838
2404.67	5.40751
2406.07	5.41336
2407.47	5.86106
2408.87	6.15907
2410.27	6.53984
2411.67	6.3221
2413.07	6.84955
2414.46	6.64926
2415.86	6.91076
2417.26	6.42518
2418.66	6.49736
2420.05	6.3198
2421.45	6.5655
2422.84	6.39319
2424.24	6.2586
2425.64	6.01388
2427.03	5.85845
2428.43	5.42703
2429.82	6.40104
2431.22	7.09898
2432.61	8.40764
2434.01	8.52653
2435.4	8.71633
2436.79	9.73094
2438.19	10.1815
2439.58	10.4167
2440.97	11.303
2442.37	11.1957
2443.76	11.5674
2445.15	11.6446
2446.54	12.1176
2447.93	12.2732
2449.33	12.8746
2450.72	12.3897
2452.11	12.5713
2453.5	12.7791
2454.89	12.2857
2456.28	11.8926
2457.67	11.872
2459.06	11.0175
2460.45	9.27047
2461.84	9.00945
2463.23	8.62744
2464.62	9.00986
2466	9.11452
2467.39	9.2852
2468.78	8.94592
2470.17	9.12971
2471.55	9.0754
2472.94	9.03877
2474.33	8.33159
2475.72	8.76205
2477.1	8.62196
2478.49	7.76861
2479.87	7.56299
2481.26	6.7843
2482.65	6.3914
2484.03	5.58808
2485.42	5.00979
2486.8	4.7408
2488.19	4.73301
2489.57	4.64198
2490.95	4.45483
2492.34	3.606
2493.72	3.65036
2495.1	3.67542
2496.49	3.95633
2497.87	4.32294
2499.25	4.15538
2500.63	3.39597
2502.02	3.04834
2503.4	2.82706
2504.78	3.42507
2506.16	3.30944
2507.54	3.12487
2508.92	2.93315
2510.3	2.91991
2511.68	2.79194
2513.06	2.11596
2514.44	2.05463
2515.82	2.26908
2517.2	2.36416
2518.58	2.17005
2519.96	1.58012
2521.34	1.67311
2522.72	1.88592
2524.1	1.73667
2525.47	2.23287
2526.85	2.01835
2528.23	2.46654
2529.6	2.80827
2530.98	3.49533
2532.36	3.68142
2533.74	4.18895
2535.11	4.5823
2536.49	5.05819
2537.86	5.94935
2539.24	6.65841
2540.61	7.68156
2541.99	8.74858
2543.36	8.71986
2544.74	9.02464
2546.11	8.40526
2547.49	8.48647
2548.86	9.04118
2550.23	8.77161
2551.61	8.74035
2552.98	9.07984
2554.35	9.48057
2555.72	9.98786
2557.09	9.85369
2558.47	10.5931
2559.84	10.5779
2561.21	10.3363
2562.58	10.0562
2563.95	9.46712
2565.32	9.41893
2566.69	8.90169
2568.06	7.89152
2569.43	7.53684
2570.8	6.93079
2572.17	6.68648
2573.54	6.98448
2574.91	6.30084
2576.28	5.85434
2577.65	5.63465
2579.02	4.93029
2580.39	4.70613
2581.75	3.802
2583.12	3.77416
2584.49	3.34886
2585.85	2.68194
2587.22	1.83275
2588.59	1.86133
2589.95	1.70488
2591.32	1.76953
2592.68	1.17876
2594.05	0.916902
2595.42	0.134883
2596.78	0.466222
2598.15	0.421208
2599.51	0.55086
2600.88	0.315541
2602.24	0.529926
2603.6	1.17118
2604.97	1.29889
2606.33	1.1403
2607.69	1.1189
2609.06	1.341
2610.42	1.3073
2611.78	0.64313
2613.14	0.468859
2614.51	-0.255088
2615.87	-0.256401
2617.23	-0.364751
2618.59	-0.207062
2619.95	-0.311901
2621.31	0.249968
2622.67	0.356137
2624.03	0.833386
2625.39	0.654813
2626.75	0.605535
2628.11	0.090976
2629.47	-0.747098
2630.83	-0.976517
2632.19	-0.867125
2633.55	-0.148988
2634.91	0.0964991
2636.26	0.726486
2637.62	0.334357
2638.98	1.01299
2640.34	1.2766
2641.69	2.13473
2643.05	1.8829
2644.41	1.52811
2645.76	1.65612
2647.12	1.38321
2648.48	1.94181
2649.83	1.38071
2651.19	1.3916
2652.54	1.36924
2653.9	1.36081
2655.25	1.85801
2656.6	1.27033
2657.96	1.42546
2659.31	1.12933
2660.67	0.686153
2662.02	0.6329
2663.37	0.893329
2664.73	1.3638
2666.08	1.53204
2667.43	2.23933
2668.78	2.48331
2670.14	3.4162
2671.49	3.72048
2672.84	3.24665
2674.19	3.33269
2675.54	3.71921
2676.89	4.05722
2678.24	4.05637
2679.59	3.61839
2680.94	3.2341
2682.29	2.79045
2683.64	3.29496
2684.99	3.57337
2686.34	4.33572
2687.69	4.27385
2689.04	5.158
2690.39	4.98209
2691.74	5.50701
2693.08	5.704
2694.43	5.83583
2695.78	5.98402
2697.13	5.97563
2698.47	6.88815
2699.82	6.9392
2701.17	7.53294
2702.51	7.93753
2703.86	7.89388
2705.21	7.79975
2706.55	8.49863
2707.9	8.94939
2709.24	9.26085
2710.58	9.64717
2711.93	10.0661
2713.27	10.3477
2714.62	10.583
2715.96	10.5238
2717.3	9.66207
2718.65	10.3681
2719.99	10.8325
2721.33	11.0972
2722.68	11.8187
2724.02	11.271
2725.36	11.8053
2726.71	11.2792
2728.05	11.6788
2729.39	12.4548
2730.73	12.7299
2732.07	12.6158
2733.41	13.7284
2734.75	14.1699
2736.09	13.9399
2737.43	14.1015
2738.77	13.1087
2740.11	12.6012
2741.45	12.909
2742.79	12.2126
2744.13	11.5836
2745.47	10.811
2746.81	10.2466
2748.14	9.81672
2749.48	9.68061
2750.82	9.7737
2752.16	9.73071
2753.49	8.72342
2754.83	8.18493
2756.17	8.63417
2757.5	8.05152
2758.84	7.98353
2760.18	7.02479
2761.51	5.9278
2762.85	5.17452
2764.18	4.68451
2765.52	4.92502
2766.85	4.21735
2768.19	4.33866
2769.52	3.85958
2770.86	3.77607
2772.19	3.6864
2773.52	2.90864
2774.86	3.07473
2776.19	3.22122
2777.52	3.10634
2778.86	2.67046
2780.19	2.09079
2781.52	2.82225
2782.85	2.59609
2784.19	2.32374
2785.52	3.16442
2786.85	3.11286
2788.18	2.95105
2789.51	2.56775
2790.84	1.3921
2792.17	1.2718
2793.5	1.36097
2794.83	1.49322
2796.16	1.35497
2797.49	0.666871
2798.82	0.824551
2800.15	1.60216
2801.48	0.61115
2802.81	0.4128
2804.13	-0.0411457
2805.46	-1.05756
2806.79	-0.854118
2808.12	-1.23547
2809.45	-1.66093
2810.77	-1.2136
2812.1	-0.81068
2813.43	-0.80006
2814.75	-0.168232
2816.08	1.05256
2817.41	2.08407
2818.73	4.21622
2820.06	6.1445
2821.38	9.89189
2822.71	12.576
2824.03	15.1837
2825.36	18.4274
2826.68	22.0647
2828	26.14
2829.33	30.4748
2830.65	33.9296
2831.98	38.2331
2833.3	42.3978
2834.62	47.3404
2835.94	51.9443
2837.27	57.2834
2838.59	62.2871
2839.91	67.901
2841.23	73.4369
2842.55	78.7024
2843.87	83.2796
2845.2	89.6192
2846.52	95.324
2847.84	102.166
2849.16	108.783
2850.48	116.005
2851.8	123.425
2853.12	130.55
2854.44	137.923
2855.76	144.912
2857.08	152.781
2858.39	160.201
2859.71	166.201
2861.03	172.732
2862.35	179.293
2863.67	184.73
2864.98	190.351
2866.3	195.528
2867.62	200.283
2868.94	204.822
2870.25	209.498
2871.57	213.752
2872.88	217.8
2874.2	220.666
2875.52	223.41
2876.83	226.846
2878.15	230.259
2879.46	233.302
2880.78	236.642
2882.09	240.116
2883.41	243.212
2884.72	246.387
2886.03	249.359
2887.35	254.434
2888.66	257.592
2889.97	261.145
2891.29	265.055
2892.6	269.127
2893.91	272.536
2895.22	276.648
2896.54	280.934
2897.85	286.396
2899.16	291.691
2900.47	296.922
2901.78	302.748
2903.09	310.416
2904.4	317.287
2905.71	324.315
2907.02	332.108
2908.33	340.284
2909.64	349.603
2910.95	358.797
2912.26	367.708
2913.57	377.844
2914.88	387.782
2916.19	397.379
2917.5	406.134
2918.81	414.21
2920.11	421.451
2921.42	428.582
2922.73	435.433
2924.04	440.023
2925.34	444.473
2926.65	448.781
2927.96	450.931
2929.26	452.101
2930.57	453.683
2931.87	454.697
2933.18	453.972
2934.49	452.559
2935.79	450.139
2937.1	446.635
2938.4	441.95
2939.7	436.795
2941.01	431.731
2942.31	425.66
2943.62	418.707
2944.92	411.447
2946.22	404.118
2947.53	395.931
2948.83	387.678
2950.13	379.21
2951.43	371.521
2952.74	363.407
2954.04	353.457
2955.34	344.546
2956.64	336.168
2957.94	327.461
2959.24	318.266
2960.54	309.55
2961.84	301.323
2963.15	292.25
2964.45	283.591
2965.75	275.816
2967.05	267.691
2968.34	260.312
2969.64	251.52
2970.94	244.138
2972.24	236.65
2973.54	228.664
2974.84	221.843
2976.14	214.081
2977.43	207.149
2978.73	200.29
2980.03	193.233
2981.33	185.146
2982.62	177.145
2983.92	169.774
2985.22	162.216
2986.51	155.149
2987.81	147.265
2989.11	138.942
2990.4	131.31
2991.7	123.698
2992.99	116.515
2994.29	110.117
2995.58	103.507
2996.88	97.0288
2998.17	89.6459
2999.46	83.2891
3000.76	76.4239
3002.05	71.1741
3003.34	65.0697
3004.64	60.2507
3005.93	55.3586
3007.22	50.6988
3008.52	47.0601
3009.81	43.0315
3011.1	38.8215
3012.39	35.4037
3013.68	32.3614
3014.97	29.603
3016.27	27.9236
3017.56	25.5727
3018.85	23.062
3020.14	21.6257
3021.43	20.5246
3022.72	18.8155
3024.01	17.9371
3025.3	17.3137
3026.59	16.8966
3027.88	16.394
3029.16	16.2145
3030.45	16.2294
3031.74	16.1928
3033.03	17.1076
3034.32	17.5913
3035.6	18.494
3036.89	19.3263
3038.18	20.2739
3039.47	21.245
3040.75	21.5607
3042.04	22.3347
3043.33	22.9511
3044.61	23.7895
3045.9	24.3173
3047.18	26.0822
3048.47	26.8066
3049.75	26.606
3051.04	27.2532
3052.32	27.6634
3053.61	27.3413
3054.89	27.9458
3056.18	27.7572
3057.46	27.3173
3058.74	27.692
3060.03	26.6592
3061.31	26.091
3062.59	24.8199
3063.88	24.5272
3065.16	23.5565
3066.44	23.0888
3067.72	21.1833
3069	20.3716
3070.29	19.0897
3071.57	17.6931
3072.85	16.1389
3074.13	14.4581
3075.41	13.5177
3076.69	12.7543
3077.97	11.0933
3079.25	9.40382
3080.53	7.72833
3081.81	6.10429
3083.09	4.88014
3084.37	4.96539
3085.65	4.10112
3086.93	3.60422
3088.21	3.58266
3089.49	2.58461
3090.76	2.07364
3092.04	1.6587
3093.32	1.24798
3094.6	1.083
3095.87	1.58617
3097.15	2.41259
3098.43	2.6745
3099.7	3.26157
3100.98	3.74294
3102.26	4.4424
3103.53	5.49866
3104.81	6.33126
3106.08	7.86099
3107.36	9.12643
3108.63	9.94558
3109.91	11.1749
3111.18	12.4884
3112.46	13.1532
3113.73	13.9384
3115	15.0276
3116.28	16.0061
3117.55	17.0289
3118.83	18.4871
3120.1	19.1026
3121.37	20.5454
3122.64	22.0364
3123.92	22.2335
3125.19	23.4061
3126.46	24.4652
3127.73	25.8159
3129	26.2351
3130.27	27.3237
3131.55	28.1944
3132.82	29.829
3134.09	30.9438
3135.36	31.3881
3136.63	32.3127
3137.9	33.0092
3139.17	34.04
3140.44	34.5645
3141.71	35.1281
3142.98	36.1336
3144.24	37.4626
3145.51	38.5218
3146.78	39.793
3148.05	40.5289
3149.32	42.9322
