#Acq. time (s)=	45
#Accumulations=	2
#Range (cm-¹)=	200...3150
#Windows=	2
#Auto scanning=	Off
#Autofocus=	Off
#Macrospot=	Off
#AutoExposure=	Off
#Spike filter=	Multiple accum.
#Delay time (s)=	0
#Binning=	1
#Readout mode=	Signal
#DeNoise=	Off
#ICS correction=	On
#Dark correction=	Off
#Inst. Process=	Off
#Detector Gain=	Best Dynamic Range
#Detector ADC=	20 kHz       
#Detector temperature (°C)=	-69.85
#Instrument=	LabRAM HR Evol
#Detector=	Synapse
#Objective=	x100
#Grating=	600 gr/mm
#ND Filter=	100%
#Laser (nm)=	532 
#Hole=	100.021
#Range=	Auto
#Laser Pol.=	No
#Raman. Pol.=	No
#Laser Pol. (°)=	-0.0007625
#Raman Pol. (°)=	89.9995
#Collection=	Microscope
#StageXY=	Marzhauser
#StageZ=	Marzhauser
#X (µm)=	237.6
#Y (µm)=	1668.5
#Z (µm)=	427.35
#Full time(mm:ss)=	3:18
#Project=	
#Sample=	
#Site=	
#Title=	Thy_40_11_35_2x_45s_532 nm_x100_100%_600 gr_mm
#Remark=	
#Date=	05.07.2022 12:30
#Acquired=	05.07.2022 12:30:15
#Base:Fit=	10.08.2022 10:01:35
#Base:Sub=	10.08.2022 10:01:52
#Filter:Polynom=	16.08.2022 10:21:53
#AxisType[0]=Intens
#AxisUnit[0]=Cnt
#AxisType[1]=Spectr
#AxisUnit[1]=1/cm
200.43	1.208
202.244	2.93869
204.059	5.98941
205.873	7.90721
207.688	9.23491
209.501	10.1988
211.314	11.3588
213.127	11.8233
214.941	11.8717
216.753	11.5411
218.564	11.8768
220.375	12.2102
222.186	13.0109
223.999	12.5965
225.809	12.13
227.618	12.3508
229.428	12.7117
231.236	13.1848
233.045	13.0211
234.855	12.985
236.663	13.3311
238.471	14.0399
240.278	14.6637
242.085	15.219
243.891	16.2053
245.698	17.1699
247.503	17.4554
249.309	17.0892
251.116	17.3599
252.921	17.4257
254.725	16.3398
256.529	16.6722
258.333	17.1907
260.136	17.1253
261.939	18.5827
263.742	19.1183
265.544	19.9927
267.346	20.7318
269.148	20.6323
270.949	22.2792
272.75	21.5445
274.55	22.2905
276.351	22.4599
278.15	22.7255
279.95	23.4961
281.749	24.3877
283.548	24.1651
285.346	24.3752
287.144	23.7207
288.942	23.9139
290.739	22.8867
292.536	23.6205
294.333	23.5406
296.129	23.7817
297.925	23.7194
299.721	23.6793
301.514	23.8221
303.309	22.8735
305.104	23.5797
306.898	24.2324
308.692	25.1131
310.486	24.5962
312.279	24.8245
314.072	24.8085
315.862	25.1974
317.654	26.0162
319.446	26.305
321.238	26.9331
323.029	26.8287
324.819	26.9782
326.608	27.6269
328.398	28.087
330.188	28.558
331.977	28.5404
333.766	28.3308
335.553	27.8429
337.341	26.8135
339.129	26.5105
340.917	26.7581
342.704	26.4982
344.489	26.3582
346.275	26.5159
348.062	26.7852
349.845	25.7608
351.631	25.3879
353.416	25.0595
355.201	25.5519
356.984	25.6556
358.768	25.2797
360.552	25.588
362.333	24.0515
364.116	23.3707
365.899	22.5596
367.68	21.7506
369.462	20.7366
371.243	19.41
373.023	18.6652
374.804	17.88
376.585	16.9694
378.363	16.0692
380.143	14.5921
381.923	15.1471
383.7	15.2976
385.479	14.3287
387.256	13.1734
389.034	12.9732
390.812	12.1739
392.588	12.4761
394.365	12.953
396.14	12.4354
397.916	11.1219
399.691	10.7952
401.467	11.0824
403.24	10.9836
405.015	10.3367
406.788	10.4926
408.563	10.7488
410.335	10.8195
412.109	9.70454
413.88	10.0413
415.654	10.3547
417.424	9.95807
419.197	10.4697
420.967	10.6227
422.739	10.8798
424.508	11.3821
426.279	12.5177
428.048	13.4332
429.819	14.6788
431.587	15.4349
433.356	15.4223
435.124	15.7344
436.891	15.9136
438.66	16.6973
440.426	17.235
442.194	18.0304
443.96	19.1619
445.725	18.5781
447.492	18.2103
449.257	18.0474
451.021	17.9899
452.787	18.7593
454.551	19.08
456.314	18.6109
458.079	18.1727
459.842	18.3377
461.604	18.8761
463.368	18.651
465.13	18.7762
466.891	18.3892
468.654	18.7471
470.415	19.955
472.175	19.0584
473.935	18.5794
475.696	17.7684
477.456	18.9587
479.215	18.7734
480.973	19.0195
482.733	19.1666
484.491	18.5895
486.249	17.6749
488.006	18.672
489.765	18.5692
491.522	19.1393
493.278	19.1581
495.034	19.1823
496.789	19.4076
498.544	19.184
500.301	18.7702
502.056	19.0114
503.81	18.2124
505.564	18.9072
507.317	19.3247
509.071	19.9473
510.825	20.0102
512.578	20.3415
514.33	21.3446
516.082	21.5951
517.833	22.3565
519.585	21.714
521.335	21.2631
523.086	21.9798
524.836	22.2881
526.586	22.6705
528.335	22.1738
530.085	22.4322
531.835	22.0764
533.584	21.1017
535.332	20.4787
537.08	20.4818
538.827	20.4138
540.574	19.5471
542.321	18.9251
544.068	17.5546
545.814	16.6866
547.56	16.383
549.305	15.3467
551.05	14.8671
552.795	13.8319
554.54	13.1296
556.282	12.2375
558.025	11.5883
559.769	10.754
561.512	10.4126
563.255	10.2092
564.997	10.1932
566.739	8.44735
568.481	7.23562
570.223	6.26887
571.964	5.17198
573.705	4.60705
575.443	4.21159
577.183	3.71482
578.923	3.5286
580.663	2.53939
582.402	2.74114
584.141	2.37891
585.879	1.4918
587.615	0.655074
589.353	-0.411174
591.09	-0.0611822
592.828	1.02831
594.564	1.72409
596.299	2.59383
598.035	2.69034
599.771	3.72417
601.506	5.30368
603.242	5.88195
604.974	5.66208
606.709	6.08553
608.443	6.60184
610.177	7.58864
611.908	7.88866
613.642	8.04947
615.374	7.61004
617.105	6.85433
618.837	6.46138
620.569	6.68097
622.3	7.10286
624.03	7.56321
625.761	6.56421
627.491	6.94615
629.219	7.57323
630.949	7.52026
632.677	8.72623
634.406	9.06961
636.135	8.63957
637.861	9.90256
639.59	10.1075
641.318	10.4005
643.043	11.0668
644.77	12.1059
646.495	12.7238
648.222	13.1515
649.948	13.5301
651.672	13.0941
653.398	13.3136
655.121	13.718
656.846	14.3225
658.569	14.7334
660.293	14.7976
662.015	15.3418
663.738	16.292
665.46	16.6286
667.183	16.1576
668.903	17.1404
670.626	16.811
672.346	17.494
674.067	17.5501
675.787	18.1699
677.508	19.7536
679.226	20.4085
680.947	21.2003
682.665	21.1982
684.385	21.3866
686.102	22.2378
687.821	22.7547
689.538	22.4
691.254	22.8614
692.972	23.3866
694.688	24.1144
696.406	25.4042
698.121	25.6409
699.835	25.9751
701.552	25.8596
703.266	26.3864
704.98	27.5566
706.695	27.9801
708.409	29.6079
710.121	30.7914
711.836	31.4628
713.548	32.584
715.26	33.6885
716.973	34.0224
718.685	34.8053
720.396	34.6165
722.108	34.9008
723.818	36.1236
725.528	37.1894
727.238	37.194
728.949	38.2978
730.658	39.618
732.367	40.2962
734.075	40.9915
735.785	41.456
737.493	42.2725
739.2	43.4243
740.907	44.0108
742.614	44.5984
744.322	45.2736
746.028	45.9679
747.734	47.2463
749.439	48.3244
751.144	49.4471
752.849	49.4958
754.555	51.0496
756.26	51.6786
757.963	52.6375
759.667	53.0648
761.37	54.2346
763.073	55.606
764.775	56.1882
766.477	57.2389
768.179	58.4785
769.883	58.8341
771.584	60.3491
773.285	60.9833
774.986	62.717
776.686	63.6916
778.386	64.4057
780.085	65.5624
781.785	66.1873
783.484	66.6996
785.182	67.4473
786.881	67.7871
788.579	69.4346
790.276	70.1326
791.974	70.858
793.671	71.463
795.367	71.2116
797.064	71.0009
798.76	71.635
800.456	72.2834
802.151	71.674
803.846	72.2365
805.541	71.8817
807.234	72.7358
808.928	72.8736
810.622	74.0604
812.315	73.5274
814.008	74.2131
815.701	74.7486
817.394	74.8289
819.086	75.9837
820.778	76.3483
822.468	77.0002
824.159	77.1428
825.85	76.5848
827.541	76.3702
829.231	76.8008
830.921	76.5122
832.609	76.735
834.298	76.4377
835.987	76.3242
837.676	75.1949
839.364	75.2322
841.051	73.6337
842.738	73.0057
844.426	71.7898
846.113	70.4865
847.798	69.4793
849.484	67.7275
851.171	66.9063
852.857	65.2836
854.54	63.2882
856.226	63.0007
857.911	62.1633
859.593	62.328
861.278	60.0589
862.961	59.3763
864.645	58.6637
866.327	58.0752
868.01	57.5785
869.692	56.8844
871.373	55.8205
873.055	55.0612
874.735	53.1384
876.416	51.9271
878.097	50.5451
879.776	49.9295
881.457	49.64
883.135	48.185
884.815	47.082
886.495	45.9976
888.172	45.8254
889.851	45.8056
891.528	45.0806
893.206	44.5503
894.882	45.4509
896.56	44.1037
898.237	44.3263
899.912	45.0038
901.589	45.3181
903.263	44.8591
904.94	44.4852
906.614	43.9191
908.289	43.0044
909.962	43.0715
911.635	43.4764
913.31	42.6588
914.982	41.4988
916.656	41.7334
918.328	40.6447
920.001	39.6715
921.672	38.4911
923.345	37.8206
925.015	36.8071
926.685	37.2018
928.357	36.7079
930.026	35.5483
931.698	36.0444
933.366	35.8548
935.035	36.0064
936.705	36.0638
938.373	36.2701
940.041	36.0633
941.71	35.5893
943.377	34.8487
945.044	33.2915
946.712	32.6006
948.378	32.4546
950.044	32.3311
951.709	32.7275
953.376	31.916
955.041	31.9837
956.706	31.6354
958.372	30.9277
960.036	30.7406
961.699	30.375
963.362	30.3955
965.027	30.1274
966.69	29.1845
968.352	29.2102
970.014	28.7235
971.676	29.0491
973.339	29.4651
975	29.2612
976.661	29.8568
978.322	29.4225
979.982	28.4671
981.642	29.3879
983.303	29.4217
984.962	29.3453
986.621	29.4629
988.28	28.5666
989.938	27.3955
991.596	26.9559
993.254	26.2249
994.911	25.8349
996.57	24.8891
998.227	24.3827
999.884	24.4898
1001.54	23.4802
1003.2	23.1311
1004.85	22.9863
1006.51	22.4287
1008.16	21.9235
1009.82	21.3778
1011.47	20.465
1013.12	20.0113
1014.78	20.9239
1016.43	20.2562
1018.08	20.7603
1019.74	19.5908
1021.39	18.3393
1023.04	18.2009
1024.69	18.8809
1026.34	19.1663
1028	19.5916
1029.65	20.5116
1031.3	22.288
1032.95	23.1136
1034.6	23.5334
1036.25	23.3408
1037.9	24.0114
1039.54	23.5787
1041.19	24.0593
1042.84	23.897
1044.49	22.9442
1046.14	23.5904
1047.78	24.4908
1049.43	24.7395
1051.08	24.6958
1052.72	25.1671
1054.37	24.828
1056.02	24.272
1057.66	23.5018
1059.31	22.8641
1060.95	22.1196
1062.6	21.8397
1064.24	21.6408
1065.88	20.9867
1067.53	20.3155
1069.17	20.1062
1070.81	18.603
1072.45	18.9692
1074.1	19.2158
1075.74	18.8908
1077.38	18.56
1079.02	17.6633
1080.66	16.968
1082.3	16.8241
1083.94	15.811
1085.58	15.2786
1087.22	14.3678
1088.86	14.2679
1090.5	13.6166
1092.14	13.502
1093.78	13.7468
1095.42	14.4412
1097.05	14.528
1098.69	13.3407
1100.33	13.0582
1101.96	11.7032
1103.6	11.906
1105.24	12.4737
1106.87	12.4792
1108.51	12.7594
1110.14	12.9808
1111.78	13.1744
1113.41	12.165
1115.05	11.4696
1116.68	11.0372
1118.31	10.7478
1119.95	9.66965
1121.58	8.58691
1123.21	7.82989
1124.85	7.09371
1126.48	7.33627
1128.11	8.00907
1129.74	6.93497
1131.37	5.92315
1133	4.78188
1134.63	4.62969
1136.26	3.87252
1137.89	3.14403
1139.52	2.46531
1141.15	2.3497
1142.78	2.62864
1144.41	2.50288
1146.04	2.188
1147.66	3.2487
1149.29	3.69511
1150.92	3.45977
1152.55	3.565
1154.17	3.40298
1155.8	3.40832
1157.43	2.12725
1159.05	1.90232
1160.68	2.6178
1162.3	3.11211
1163.93	3.69066
1165.55	4.24238
1167.17	4.79745
1168.8	5.40989
1170.42	6.12918
1172.05	6.12481
1173.67	6.72296
1175.29	6.81814
1176.91	6.83865
1178.54	5.91997
1180.16	5.39472
1181.78	5.71819
1183.4	6.10564
1185.02	6.49966
1186.64	7.58146
1188.26	7.56103
1189.88	8.31386
1191.5	7.81542
1193.12	7.40834
1194.74	7.12119
1196.36	7.71
1197.97	8.03145
1199.59	7.12913
1201.21	6.46493
1202.83	6.56469
1204.44	7.51295
1206.06	8.41378
1207.68	9.79424
1209.29	10.0699
1210.91	10.1955
1212.52	10.6291
1214.14	11.1877
1215.75	12.3766
1217.37	12.4214
1218.98	12.3654
1220.59	13.9679
1222.21	16.0473
1223.82	17.0559
1225.43	17.4186
1227.05	18.4082
1228.66	20.1613
1230.27	20.8964
1231.88	21.869
1233.49	23.1258
1235.1	24.2591
1236.72	25.8296
1238.33	27.4476
1239.94	29.1471
1241.55	31.4334
1243.16	32.8221
1244.76	34.3361
1246.37	34.8507
1247.98	35.8758
1249.59	36.5319
1251.2	36.9433
1252.8	37.257
1254.41	37.8964
1256.02	38.0235
1257.62	38.7689
1259.23	39.5983
1260.84	41.0927
1262.44	42.0547
1264.05	42.8448
1265.66	43.4475
1267.26	44.7355
1268.86	43.8405
1270.47	44.2958
1272.07	43.9423
1273.67	44.9751
1275.28	45.1589
1276.88	44.825
1278.48	45.3325
1280.09	45.4269
1281.69	45.9062
1283.29	47.2133
1284.89	47.6711
1286.49	47.4101
1288.09	48.0289
1289.69	47.6323
1291.29	47.855
1292.89	47.7251
1294.49	48.0457
1296.09	47.6257
1297.69	47.4832
1299.29	48.1213
1300.89	49.0005
1302.49	48.4606
1304.08	48.2289
1305.68	48.0863
1307.28	48.7191
1308.88	49.1587
1310.47	49.4161
1312.07	49.6994
1313.66	49.617
1315.26	50.2306
1316.85	50.1588
1318.45	50.4633
1320.04	49.4804
1321.64	49.5792
1323.23	48.3124
1324.83	47.8337
1326.42	47.088
1328.01	46.866
1329.61	46.4659
1331.2	46.1628
1332.79	45.9417
1334.38	46.2026
1335.97	46.0119
1337.56	46.4076
1339.16	45.4552
1340.75	44.4762
1342.34	44.0606
1343.93	42.9065
1345.52	42.0497
1347.11	41.3293
1348.7	40.6618
1350.29	39.9912
1351.87	39.4258
1353.46	39.071
1355.05	38.1066
1356.64	36.8852
1358.22	35.9384
1359.81	35.0134
1361.4	33.7147
1362.98	33.4658
1364.57	31.6603
1366.16	31.4764
1367.74	31.9483
1369.33	30.6128
1370.91	30.0722
1372.5	28.88
1374.08	28.3183
1375.67	28.4222
1377.25	29.0103
1378.83	28.8485
1380.41	28.4948
1382	28.0305
1383.58	28.4089
1385.16	28.1006
1386.74	28.4338
1388.33	28.1225
1389.91	27.5437
1391.49	27.24
1393.07	27.0194
1394.65	26.0054
1396.23	25.9276
1397.81	25.5478
1399.39	25.4396
1400.97	25.3627
1402.55	25.2087
1404.13	25.4751
1405.7	25.9114
1407.28	26.2275
1408.86	27.1239
1410.44	27.0018
1412.01	27.7183
1413.59	27.8189
1415.17	28.0675
1416.74	27.987
1418.32	28.2299
1419.89	28.1197
1421.47	29.5822
1423.04	29.4906
1424.62	30.795
1426.19	32.5945
1427.77	34.1627
1429.34	34.7033
1430.91	36.2337
1432.49	38.1768
1434.06	39.3164
1435.63	39.8776
1437.2	41.6223
1438.78	43.461
1440.35	44.1909
1441.92	45.8471
1443.49	46.4055
1445.06	47.5147
1446.63	47.8229
1448.2	47.2686
1449.77	47.8595
1451.34	47.7641
1452.91	47.8152
1454.48	47.5771
1456.05	46.7129
1457.62	45.1105
1459.18	44.4543
1460.75	43.5806
1462.32	42.4917
1463.89	41.3433
1465.45	40.5861
1467.02	38.5257
1468.59	36.2508
1470.15	34.0989
1471.72	31.6273
1473.28	29.2666
1474.85	27.5925
1476.41	25.2811
1477.98	22.7302
1479.54	20.3332
1481.1	18.7574
1482.67	17.1346
1484.23	15.7678
1485.79	13.9553
1487.36	12.1237
1488.92	9.86741
1490.48	8.94522
1492.04	7.17627
1493.61	5.80521
1495.17	4.63897
1496.73	4.09132
1498.29	3.76733
1499.85	4.92558
1501.41	4.38496
1502.97	5.74912
1504.53	5.61475
1506.09	5.55119
1507.65	5.82074
1509.2	6.13078
1510.76	6.79718
1512.32	6.9955
1513.88	7.34532
1515.43	8.30829
1516.99	8.34178
1518.55	8.51586
1520.1	9.89003
1521.66	9.64687
1523.22	10.2803
1524.77	10.2851
1526.33	10.5768
1527.88	11.8057
1529.44	11.5531
1530.99	11.8409
1532.54	12.7657
1534.1	13.7025
1535.65	13.9917
1537.21	15.8136
1538.76	16.6036
1540.31	17.5947
1541.86	18.5025
1543.42	18.7214
1544.97	18.5738
1546.52	19.2582
1548.07	19.5925
1549.62	20.5184
1551.17	21.1427
1552.72	21.814
1554.27	22.7375
1555.82	23.6996
1557.37	23.9998
1558.92	24.4558
1560.47	25.4907
1562.02	26.5079
1563.56	27.252
1565.11	27.8154
1566.66	28.7298
1568.21	30.2211
1569.75	30.7936
1571.3	31.8563
1572.85	32.9136
1574.39	34.3996
1575.94	35.8845
1577.49	36.4967
1579.03	37.2354
1580.57	39.0107
1582.12	39.0014
1583.66	40.2604
1585.21	41.5167
1586.75	41.7423
1588.3	42.8332
1589.84	43.3314
1591.38	43.4155
1592.92	44.3641
1594.47	44.3699
1596.01	44.6459
1597.55	45.1667
1599.09	44.847
1600.63	45.3424
1602.17	45.5175
1603.71	45.7232
1605.25	45.6727
1606.79	45.5201
1608.33	46.2577
1609.87	46.4142
1611.41	46.5561
1612.95	45.8448
1614.49	46.3339
1616.03	46.3488
1617.57	45.9954
1619.1	45.1701
1620.64	44.8339
1622.18	44.6596
1623.72	44.8685
1625.25	44.6814
1626.79	44.7735
1628.32	44.4841
1629.86	44.0689
1631.39	43.8536
1632.93	44.4663
1634.46	44.8816
1636	46.3751
1637.53	47.9058
1639.07	49.0461
1640.6	49.3464
1642.13	49.5741
1643.67	50.4524
1645.2	51.2782
1646.73	51.5489
1648.26	52.3193
1649.8	53.1464
1651.33	53.9215
1652.86	53.8401
1654.39	54.4571
1655.92	54.6464
1657.45	54.6773
1658.98	53.4575
1660.51	53.7308
1662.04	53.9593
1663.57	53.3017
1665.1	53.2333
1666.63	51.8335
1668.16	50.9734
1669.68	50.3797
1671.21	48.7843
1672.74	47.2725
1674.27	45.6915
1675.79	44.388
1677.32	41.9247
1678.85	40.4167
1680.37	37.9377
1681.9	36.5671
1683.42	35.3971
1684.95	32.9835
1686.47	31.1774
1688	29.4475
1689.52	26.5173
1691.05	24.9346
1692.57	23.2741
1694.09	20.9921
1695.62	19.0312
1697.14	17.7496
1698.66	15.9878
1700.18	15.0245
1701.71	13.3749
1703.23	11.8817
1704.75	10.741
1706.27	9.96158
1707.79	9.94933
1709.31	9.40702
1710.83	8.21319
1712.35	7.78181
1713.87	7.17851
1715.39	6.38866
1716.91	4.88457
1718.43	4.05422
1719.95	3.73397
1721.47	3.27385
1722.99	3.11547
1724.5	2.7374
1726.02	2.20577
1727.54	1.77823
1729.06	1.09448
1730.57	0.619508
1732.09	-0.0598441
1733.61	0.367523
1735.12	0.629492
1736.64	1.61632
1738.15	1.43809
1739.67	1.15429
1741.18	0.792262
1742.7	0.438008
1744.21	0.559473
1745.72	0.466402
1747.24	-0.335748
1748.75	-0.154761
1750.26	0.166928
1751.77	0.363772
1753.29	-0.0214138
1754.8	1.28059
1756.31	1.60621
1757.82	2.82692
1759.33	2.98687
1760.84	3.02447
1762.36	3.64687
1763.87	3.93455
1765.38	4.00181
1766.89	4.53518
1768.4	4.8228
1769.91	5.29405
1771.41	4.70184
1772.92	5.13645
1774.43	5.33884
1775.94	5.49524
1777.45	5.33891
1778.95	4.63286
1780.46	4.81403
1781.97	4.73573
1783.48	4.32829
1784.98	3.87052
1786.49	3.93472
1787.99	4.09606
1789.5	3.89303
1791.01	3.88519
1792.51	3.57071
1794.01	3.54013
1795.52	3.3835
1797.02	2.97156
1798.53	2.91106
1800.03	2.20357
1801.53	1.58231
1803.04	1.65953
1804.54	1.53522
1806.04	2.01439
1807.54	2.96976
1809.05	2.98092
1810.55	2.78615
1812.05	2.63312
1813.55	2.56831
1815.05	2.92023
1816.55	2.92627
1818.05	3.01987
1819.55	3.04897
1821.05	2.89618
1822.55	3.0878
1824.05	3.41773
1825.55	3.04506
1827.05	2.8562
1828.55	3.21282
1830.04	3.69364
1831.54	3.96653
1833.04	4.68695
1834.54	5.24308
1836.03	5.58546
1837.53	5.75536
1839.03	5.83221
1840.52	5.65811
1842.02	5.9384
1843.51	6.10562
1845.01	6.02978
1846.5	5.4438
1848	6.06307
1849.49	6.27071
1850.99	6.11393
1852.48	6.36742
1853.97	6.40974
1855.47	6.65256
1856.96	6.61193
1858.45	6.7137
1859.94	7.6525
1861.44	7.72146
1862.93	8.05159
1864.42	7.81875
1865.91	8.10331
1867.4	7.86035
1868.89	8.06807
1870.38	7.53066
1871.87	7.93772
1873.36	8.00085
1874.85	8.26335
1876.34	9.04076
1877.83	9.96519
1879.32	10.1227
1880.81	10.1946
1882.3	9.65091
1882.57	9.07797
1884.07	9.50522
1885.56	9.52808
1887.06	9.79533
1888.55	9.75461
1890.04	9.49841
1891.54	9.49329
1893.03	9.70517
1894.52	9.57425
1896.02	8.81878
1897.51	8.28551
1899	8.16638
1900.49	8.25265
1901.98	8.82752
1903.47	9.16443
1904.96	9.90208
1906.45	10.6011
1907.94	10.6902
1909.43	10.5556
1910.92	10.7644
1912.41	10.8294
1913.9	10.849
1915.39	10.945
1916.88	11.3575
1918.37	11.6727
1919.85	11.6897
1921.34	11.9096
1922.83	12.051
1924.32	12.136
1925.8	12.4726
1927.29	12.4966
1928.78	12.3962
1930.26	12.2337
1931.75	12.6786
1933.23	13.0728
1934.72	12.4074
1936.2	12.3642
1937.69	12.1244
1939.17	12.0808
1940.66	12.5383
1942.14	12.4009
1943.63	11.8636
1945.11	12.6325
1946.59	12.4641
1948.07	13.1264
1949.56	12.6427
1951.04	11.8227
1952.52	11.5949
1954	11.4934
1955.48	11.1128
1956.96	11.0776
1958.45	10.7974
1959.93	9.94966
1961.41	9.49167
1962.89	8.97132
1964.37	8.07158
1965.85	8.02534
1967.32	6.92614
1968.8	6.22344
1970.28	5.42996
1971.76	6.13246
1973.24	6.52673
1974.72	6.44107
1976.19	6.56774
1977.67	7.05645
1979.15	7.44172
1980.63	7.14068
1982.1	7.21691
1983.58	6.90936
1985.05	6.85026
1986.53	6.38359
1988	5.98851
1989.48	6.12075
1990.95	6.36979
1992.43	5.70086
1993.9	4.76495
1995.38	5.20087
1996.85	5.28453
1998.32	5.42687
1999.8	5.28395
2001.27	4.59085
2002.74	4.47352
2004.22	4.41362
2005.69	4.74869
2007.16	4.42916
2008.63	3.94121
2010.1	3.89773
2011.57	3.95042
2013.04	4.154
2014.51	4.62861
2015.98	4.28181
2017.45	4.28235
2018.92	4.47941
2020.39	4.30464
2021.86	4.35076
2023.33	4.74772
2024.8	5.11711
2026.27	5.53676
2027.74	5.66729
2029.2	5.77876
2030.67	5.50737
2032.14	5.47862
2033.61	5.41722
2035.07	5.18568
2036.54	4.88769
2038.01	4.83912
2039.47	5.88702
2040.94	5.92291
2042.4	6.23859
2043.87	6.77777
2045.33	7.62023
2046.8	8.10226
2048.26	8.39915
2049.72	9.02239
2051.19	9.55988
2052.65	9.65959
2054.12	9.6517
2055.58	10.0379
2057.04	9.63676
2058.5	9.77611
2059.97	10.0151
2061.43	10.3031
2062.89	10.8104
2064.35	11.1158
2065.81	11.0877
2067.27	11.6326
2068.73	12.4045
2070.19	11.9473
2071.65	12.4039
2073.11	12.9286
2074.57	13.2535
2076.03	14.1581
2077.49	14.4595
2078.95	14.8785
2080.41	14.9934
2081.87	15.1198
2083.32	15.7535
2084.78	16.3536
2086.24	17.3457
2087.7	17.3827
2089.15	17.9657
2090.61	18.4605
2092.07	19.5153
2093.52	20.2431
2094.98	21.2141
2096.43	22.1224
2097.89	22.4136
2099.34	23.2761
2100.8	23.7697
2102.25	23.73
2103.71	23.5642
2105.16	24.2207
2106.61	24.4217
2108.07	25.0148
2109.52	26.0294
2110.97	26.9525
2112.43	27.9625
2113.88	28.3016
2115.33	28.9367
2116.78	30.0652
2118.23	30.9974
2119.68	32.0912
2121.13	33.1044
2122.59	33.4677
2124.04	33.93
2125.49	34.7318
2126.94	34.9691
2128.39	35.821
2129.83	36.9973
2131.28	38.3648
2132.73	39.1422
2134.18	40.3263
2135.63	41.0836
2137.08	41.7397
2138.53	42.521
2139.97	43.6998
2141.42	44.4975
2142.87	45.8827
2144.31	47.5501
2145.76	49.5747
2147.21	50.7639
2148.65	51.7682
2150.1	52.5145
2151.54	52.9598
2152.99	53.3221
2154.43	54.3366
2155.88	56.18
2157.32	57.1099
2158.77	58.3523
2160.21	58.4045
2161.65	59.5573
2163.1	60.7782
2164.54	62.1491
2165.98	62.2159
2167.43	62.7787
2168.87	62.7944
2170.31	62.7818
2171.75	63.3591
2173.19	63.0977
2174.64	63.3923
2176.07	64.1506
2177.52	64.5422
2178.96	64.5573
2180.4	63.9954
2181.84	63.2082
2183.28	62.9994
2184.72	62.5089
2186.15	61.6737
2187.59	61.0663
2189.03	60.6376
2190.47	59.6234
2191.91	58.7185
2193.35	57.0822
2194.78	55.293
2196.22	54.3423
2197.66	53.3439
2199.09	52.2249
2200.53	51.356
2201.97	50.6269
2203.4	49.1108
2204.84	47.483
2206.27	46.5974
2207.71	44.909
2209.14	43.5166
2210.58	42.72
2212.01	41.9731
2213.45	40.8256
2214.88	40.0848
2216.31	38.8238
2217.75	37.4487
2219.18	35.5018
2220.61	33.8343
2222.05	32.7355
2223.48	31.2239
2224.91	30.7952
2226.34	30.3547
2227.78	29.4008
2229.21	28.0425
2230.64	27.2495
2232.07	26.033
2233.5	25.5213
2234.93	25.2798
2236.36	24.5962
2237.79	23.026
2239.22	21.9282
2240.65	21.1285
2242.08	20.7959
2243.5	20.9706
2244.93	20.2881
2246.36	20.0693
2247.79	19.5087
2249.22	18.6094
2250.64	17.8463
2252.07	17.1301
2253.5	16.6774
2254.92	16.5702
2256.35	15.6723
2257.78	14.9253
2259.2	14.9177
2260.63	14.5768
2262.05	13.5301
2263.48	13.381
2264.9	12.8053
2266.33	12.7376
2267.75	13.1806
2269.18	13.2567
2270.6	12.9765
2272.02	12.6597
2273.45	12.3533
2274.87	11.691
2276.29	11.7799
2277.71	11.8709
2279.14	11.8242
2280.56	11.0726
2281.98	11.0892
2283.4	10.1893
2284.82	9.69566
2286.24	9.07519
2287.66	8.21079
2289.08	7.33045
2290.5	7.3822
2291.92	6.30418
2293.34	5.67577
2294.76	5.34659
2296.18	5.29612
2297.6	5.03303
2299.02	5.46353
2300.44	6.10409
2301.86	6.39946
2303.27	6.31574
2304.69	6.4286
2306.11	6.6059
2307.53	6.14876
2308.94	6.19737
2310.36	6.41509
2311.78	6.71881
2313.19	7.36183
2314.61	7.50106
2316.02	7.8967
2317.44	7.75862
2318.85	7.4573
2320.27	7.38446
2321.68	7.66602
2323.1	7.35318
2324.51	6.71829
2325.92	6.94475
2327.34	7.07562
2328.75	6.82497
2330.16	7.19791
2331.58	6.90243
2332.99	7.02104
2334.4	7.67209
2335.81	7.47112
2337.23	7.61997
2338.64	7.85931
2340.05	6.97413
2341.46	6.30889
2342.87	6.5466
2344.28	6.2855
2345.69	6.67323
2347.1	6.46526
2348.51	5.63756
2349.92	4.87103
2351.33	3.9085
2352.74	3.94094
2354.15	3.82927
2355.55	3.85822
2356.96	3.43989
2358.37	3.25349
2359.78	2.72073
2361.19	2.23744
2362.59	1.29027
2364	1.71273
2365.41	2.36792
2366.81	2.62624
2368.22	2.86444
2369.62	2.97674
2371.03	2.43669
2372.44	1.69294
2373.84	1.30472
2375.24	0.990414
2376.65	1.23444
2378.05	0.900626
2379.46	1.06942
2380.86	1.00188
2382.26	0.679257
2383.67	0.745712
2385.07	0.253184
2386.47	0.283691
2387.88	-0.68314
2389.28	-1.19867
2390.68	-0.865882
2392.08	-0.938879
2393.48	-1.21477
2394.89	-0.834493
2396.29	-0.0696012
2397.69	-0.184641
2399.09	-0.540771
2400.49	-0.19862
2401.89	0.457681
2403.29	0.942663
2404.69	1.03538
2406.09	0.862148
2407.48	1.78781
2408.88	2.04543
2410.28	2.32756
2411.68	3.22599
2413.08	3.913
2414.48	4.42579
2415.87	5.57177
2417.27	5.64048
2418.67	6.03796
2420.06	6.86981
2421.46	8.0765
2422.86	8.87511
2424.25	9.15024
2425.65	8.87951
2427.04	8.93768
2428.44	8.68615
2429.83	8.65223
2431.23	9.03846
2432.62	9.65547
2434.02	9.45135
2435.41	9.02131
2436.81	9.19408
2438.2	8.82255
2439.59	8.60349
2440.99	7.57158
2442.38	7.21954
2443.77	7.1936
2445.16	6.76664
2446.56	6.82544
2447.95	6.27633
2449.34	6.29493
2450.73	5.92142
2452.12	5.37453
2453.51	5.08505
2454.9	4.84479
2456.29	4.39347
2457.68	3.7188
2459.07	3.69732
2460.46	3.90596
2461.85	3.56917
2463.24	4.05254
2464.63	3.96448
2466.02	3.62178
2467.4	3.28774
2468.79	3.95817
2470.18	4.338
2471.57	4.77046
2472.95	4.16941
2474.34	4.05977
2475.73	3.93035
2477.12	4.54085
2478.5	4.2006
2479.89	4.4023
2481.27	4.39477
2482.66	4.59157
2484.04	5.35683
2485.43	5.83411
2486.81	5.54748
2488.2	6.02353
2489.58	6.16856
2490.97	6.07425
2492.35	5.30736
2493.73	5.02645
2495.12	5.23862
2496.5	5.13723
2497.88	5.80509
2499.27	6.01485
2500.65	6.00719
2502.03	5.50988
2503.41	5.04747
2504.79	5.44556
2506.17	5.48308
2507.56	5.16568
2508.94	4.70735
2510.32	4.61826
2511.7	4.72959
2513.08	4.48145
2514.46	4.45882
2515.84	4.47946
2517.22	4.56076
2518.59	4.26264
2519.97	3.80446
2521.35	3.31762
2522.73	2.89231
2524.11	2.78476
2525.49	2.22647
2526.86	2.20139
2528.24	1.90847
2529.62	1.63124
2530.99	1.7699
2532.37	1.78585
2533.75	1.36262
2535.12	1.04767
2536.5	0.895294
2537.88	0.94544
2539.25	0.64679
2540.63	0.551938
2542	0.0069146
2543.38	-0.0299907
2544.75	-0.57616
2546.12	-0.317092
2547.5	-0.52529
2548.87	-0.209554
2550.24	0.135367
2551.62	0.501689
2552.99	0.570735
2554.36	0.193304
2555.74	0.743718
2557.11	0.957314
2558.48	0.871251
2559.85	1.27169
2561.22	1.73685
2562.59	1.89971
2563.96	2.40734
2565.34	2.51218
2566.71	2.87206
2568.08	2.6455
2569.45	3.06317
2570.82	2.86304
2572.18	2.95448
2573.55	2.98366
2574.92	3.25412
2576.29	3.54788
2577.66	2.97649
2579.03	3.13367
2580.4	3.20293
2581.77	3.08783
2583.13	2.98489
2584.5	2.76279
2585.87	2.55373
2587.23	2.22788
2588.6	2.16357
2589.97	2.16238
2591.33	2.43768
2592.7	2.5289
2594.06	2.53052
2595.43	2.83164
2596.79	3.01786
2598.16	3.29183
2599.52	3.73456
2600.89	3.24349
2602.25	2.99247
2603.62	2.71978
2604.98	3.66735
2606.34	3.72465
2607.71	3.8596
2609.07	3.75967
2610.43	3.48666
2611.79	3.38488
2613.16	3.53729
2614.52	4.2689
2615.88	4.28794
2617.24	4.86111
2618.6	5.25583
2619.96	5.28484
2621.32	5.31105
2622.68	6.26369
2624.04	6.66863
2625.4	6.23385
2626.76	6.1887
2628.12	5.90905
2629.48	5.48053
2630.84	4.73187
2632.2	4.84797
2633.56	4.58464
2634.92	4.20613
2636.28	4.32935
2637.63	3.99826
2638.99	3.36425
2640.35	3.27725
2641.71	3.57795
2643.06	3.71656
2644.42	3.12459
2645.77	2.56125
2647.13	3.10863
2648.49	2.68232
2649.84	2.06077
2651.2	2.61119
2652.55	2.02312
2653.91	2.0616
2655.26	2.48081
2656.62	2.74625
2657.97	2.67684
2659.33	2.83563
2660.68	3.01105
2662.03	2.96178
2663.39	3.22921
2664.74	3.03276
2666.09	2.33908
2667.44	2.00398
2668.8	1.9259
2670.15	2.14317
2671.5	2.59512
2672.85	3.14668
2674.2	2.5272
2675.55	2.78336
2676.91	2.9833
2678.26	3.22473
2679.61	3.52315
2680.96	4.00989
2682.31	4.03211
2683.66	4.3879
2685	4.76847
2686.35	5.09056
2687.7	4.81972
2689.05	4.56844
2690.4	4.76613
2691.75	4.16997
2693.1	4.14653
2694.44	4.22362
2695.79	3.70153
2697.14	3.55437
2698.49	3.31592
2699.83	3.69094
2701.18	3.7035
2702.52	4.0762
2703.87	4.40569
2705.22	4.81992
2706.56	4.9128
2707.91	4.76834
2709.25	5.13873
2710.6	4.72474
2711.94	4.27192
2713.29	3.72801
2714.63	4.16684
2715.97	3.89666
2717.32	3.49614
2718.66	3.61322
2720.01	3.5404
2721.35	4.51156
2722.69	4.7542
2724.03	4.68084
2725.38	4.77834
2726.72	4.65145
2728.06	4.5328
2729.4	4.36524
2730.74	4.73521
2732.08	3.92204
2733.42	4.03874
2734.76	4.20885
2736.1	4.7584
2737.44	4.42628
2738.78	4.37824
2740.12	4.06754
2741.46	4.30606
2742.8	4.88097
2744.14	5.23574
2745.48	5.1784
2746.82	4.86408
2748.16	4.88607
2749.49	4.37749
2750.83	4.28945
2752.17	3.93338
2753.51	4.32501
2754.84	3.44829
2756.18	3.07802
2757.52	3.35832
2758.85	3.37239
2760.19	3.47444
2761.53	3.52849
2762.86	2.5404
2764.2	2.69605
2765.53	2.32061
2766.87	2.36957
2768.2	2.42771
2769.54	2.78874
2770.87	2.16598
2772.2	1.32226
2773.54	0.907984
2774.87	0.58041
2776.2	0.150309
2777.54	-0.446385
2778.87	-0.605597
2780.2	-0.552774
2781.53	-0.590164
2782.87	-1.2205
2784.2	-1.33863
2785.53	-0.686786
2786.86	-0.510469
2788.19	-0.710323
2789.52	-0.530048
2790.85	-0.334521
2792.18	0.153077
2793.51	-0.229282
2794.84	0.0902295
2796.17	0.32398
2797.5	0.567407
2798.83	0.399952
2800.16	0.951577
2801.49	1.36711
2802.82	1.46317
2804.15	1.02189
2805.47	1.37008
2806.8	1.76564
2808.13	1.92708
2809.46	1.95098
2810.78	1.70257
2812.11	1.50616
2813.44	1.61203
2814.76	1.6444
2816.09	1.90102
2817.42	2.27686
2818.74	2.84131
2820.07	3.53072
2821.39	3.96525
2822.72	4.70136
2824.04	5.50271
2825.37	6.00796
2826.69	6.44923
2828.02	6.93504
2829.34	7.68251
2830.66	8.87771
2831.99	9.46805
2833.31	10.6105
2834.63	11.5347
2835.96	12.5605
2837.28	13.5042
2838.6	14.8054
2839.92	16.605
2841.24	17.4841
2842.57	18.7685
2843.89	20.9636
2845.21	22.5431
2846.53	23.6822
2847.85	25.6926
2849.17	27.8927
2850.49	30.3123
2851.81	32.6934
2853.13	35.0591
2854.45	37.5967
2855.77	39.9028
2857.09	42.3377
2858.41	44.7176
2859.72	46.1073
2861.04	48.3825
2862.36	50.6256
2863.68	52.5082
2865	54.0155
2866.31	56.123
2867.63	57.737
2868.95	58.9721
2870.26	60.6343
2871.58	62.0406
2872.9	63.6954
2874.21	64.4175
2875.53	65.9332
2876.84	67.5448
2878.16	68.4733
2879.47	69.8793
2880.79	71.2826
2882.1	73.0119
2883.42	73.8287
2884.73	75.3298
2886.05	76.5051
2887.36	77.553
2888.67	78.6987
2889.99	79.88
2891.3	81.1362
2892.61	82.2549
2893.92	83.4467
2895.24	84.8397
2896.55	85.9363
2897.86	87.0697
2899.17	88.9314
2900.48	90.6675
2901.79	93.0133
2903.11	95.2765
2904.42	97.4039
2905.73	99.3092
2907.04	102.161
2908.35	104.673
2909.66	107.484
2910.97	109.788
2912.27	112.483
2913.58	115.858
2914.89	118.658
2916.2	121.218
2917.51	124.275
2918.82	126.756
2920.13	128.695
2921.43	130.599
2922.74	132.767
2924.05	134.139
2925.35	135.612
2926.66	137.589
2927.97	139.059
2929.27	139.584
2930.58	139.699
2931.89	140.657
2933.19	140.621
2934.5	140.873
2935.8	140.616
2937.11	140.157
2938.41	139.581
2939.72	138.148
2941.02	137.343
2942.32	136.27
2943.63	134.313
2944.93	133.264
2946.24	131.469
2947.54	129.203
2948.84	126.644
2950.14	124.568
2951.45	122.022
2952.75	119.691
2954.05	116.973
2955.35	113.791
2956.65	111
2957.95	108.381
2959.26	105.523
2960.56	103.262
2961.86	100.489
2963.16	98.4439
2964.46	96.0261
2965.76	93.5727
2967.06	91.3127
2968.36	88.5677
2969.66	85.8666
2970.96	83.6387
2972.25	81.5943
2973.55	78.976
2974.85	76.3908
2976.15	74.1473
2977.45	71.7897
2978.74	69.5989
2980.04	67.1923
2981.34	64.1104
2982.64	61.9257
2983.93	59.7707
2985.23	57.0215
2986.52	55.022
2987.82	52.6906
2989.12	50.3036
2990.41	48.3273
2991.71	45.8672
2993	43.5328
2994.3	40.5497
2995.59	38.1731
2996.89	36.4854
2998.18	33.7929
2999.48	31.7954
3000.77	29.2671
3002.06	26.9033
3003.36	24.1924
3004.65	22.0701
3005.94	20.5572
3007.23	18.8005
3008.53	16.7123
3009.82	15.0508
3011.11	13.3962
3012.4	11.5924
3013.69	10.466
3014.99	9.19921
3016.28	8.29372
3017.57	7.37016
3018.86	6.26206
3020.15	5.67441
3021.44	5.38648
3022.73	4.61254
3024.02	4.16364
3025.31	3.83641
3026.6	3.02617
3027.89	3.07868
3029.18	2.60064
3030.46	2.51614
3031.75	2.33195
3033.04	2.19421
3034.33	2.69187
3035.62	3.15028
3036.9	3.2714
3038.19	3.71488
3039.48	3.91041
3040.76	4.66826
3042.05	4.86458
3043.34	5.14233
3044.62	5.44369
3045.91	5.8924
3047.19	6.92091
3048.48	7.53387
3049.77	7.58493
3051.05	7.76595
3052.34	7.9754
3053.62	7.97981
3054.9	7.83504
3056.19	7.4535
3057.47	7.11068
3058.76	6.72207
3060.04	6.39779
3061.32	6.04126
3062.61	5.29556
3063.89	5.12192
3065.17	4.8852
3066.45	4.68502
3067.74	4.09571
3069.02	4.1132
3070.3	4.39558
3071.58	3.96785
3072.86	3.17845
3074.14	3.09192
3075.42	3.10861
3076.7	2.5966
3077.99	2.5812
3079.26	2.18324
3080.54	2.34277
3081.82	1.80699
3083.1	1.23354
3084.38	0.636362
3085.66	0.460433
3086.94	-0.0470321
3088.22	0.289075
3089.5	-0.152602
3090.78	-0.0398088
3092.05	0.267482
3093.33	0.219766
3094.61	0.128869
3095.89	0.472347
3097.16	0.361064
3098.44	0.916766
3099.72	1.32503
3100.99	1.35599
3102.27	1.73957
3103.54	2.22431
3104.82	2.07707
3106.1	2.17199
3107.37	2.00973
3108.65	2.1658
3109.92	2.02093
3111.2	2.06042
3112.47	1.97571
3113.74	1.82255
3115.02	1.60273
3116.29	1.77056
3117.56	1.52621
3118.84	1.61628
3120.11	1.95204
3121.38	2.24137
3122.66	2.66853
3123.93	2.65566
3125.2	3.13235
3126.47	3.43276
3127.74	4.16527
3129.01	4.71643
3130.29	4.6678
3131.56	4.99994
3132.83	5.86139
3134.1	6.33922
3135.37	6.25756
3136.64	6.40734
3137.91	7.4818
3139.18	8.05506
3140.45	8.64431
3141.72	9.47139
3142.99	10.2715
3144.26	11.1538
3145.52	12.3539
3146.79	13.965
3148.06	15.682
3149.33	16.581
