#Acq. time (s)=	45
#Accumulations=	2
#Range (cm-¹)=	200...3150
#Windows=	2
#Auto scanning=	Off
#Autofocus=	Off
#Macrospot=	Off
#AutoExposure=	Off
#Spike filter=	Multiple accum.
#Delay time (s)=	0
#Binning=	1
#Readout mode=	Signal
#DeNoise=	Off
#ICS correction=	On
#Dark correction=	Off
#Inst. Process=	Off
#Detector Gain=	Best Dynamic Range
#Detector ADC=	20 kHz       
#Detector temperature (°C)=	-69.85
#Instrument=	LabRAM HR Evol
#Detector=	Synapse
#Objective=	x100
#Grating=	600 gr/mm
#ND Filter=	100%
#Laser (nm)=	532 
#Hole=	100.021
#Range=	Auto
#Laser Pol.=	No
#Raman. Pol.=	No
#Laser Pol. (°)=	-0.0007625
#Raman Pol. (°)=	89.9995
#Collection=	Microscope
#StageXY=	Marzhauser
#StageZ=	Marzhauser
#X (µm)=	1969.4
#Y (µm)=	-88.7
#Z (µm)=	425.85
#Full time(mm:ss)=	3:18
#Project=	
#Sample=	
#Site=	
#Title=	Thy_40_11_04_2x_45s_532 nm_x100_100%_600 gr_mm
#Remark=	
#Date=	05.07.2022 10:09
#Acquired=	05.07.2022 10:09:21
#Base:Fit=	10.08.2022 10:00:48
#Base:Fit=	10.08.2022 10:01:07
#Base:Fit=	10.08.2022 10:01:15
#Base:Fit=	10.08.2022 10:01:35
#Base:Sub=	10.08.2022 10:01:52
#Filter:Polynom=	16.08.2022 10:21:53
#AxisType[0]=Intens
#AxisUnit[0]=Cnt
#AxisType[1]=Spectr
#AxisUnit[1]=1/cm
200.43	14.3997
202.244	16.0217
204.059	14.4779
205.873	14.2432
207.688	13.2882
209.501	12.515
211.314	12.0244
213.127	11.8907
214.941	11.4832
216.753	11.2317
218.564	11.0578
220.375	10.1879
222.186	9.24393
223.999	8.48532
225.809	7.51887
227.618	6.92902
229.428	6.57542
231.236	6.168
233.045	5.09123
234.855	4.90914
236.663	4.17975
238.471	3.51536
240.278	3.45012
242.085	3.50881
243.891	3.90774
245.698	4.27551
247.503	4.13393
249.309	4.10107
251.116	4.25748
252.921	4.84611
254.725	5.17621
256.529	5.74416
258.333	6.09224
260.136	6.7709
261.939	7.65486
263.742	7.83907
265.544	8.41208
267.346	8.37764
269.148	8.26533
270.949	7.99575
272.75	7.69441
274.55	7.67797
276.351	7.08691
278.15	6.0306
279.95	5.54117
281.749	4.9047
283.548	5.54806
285.346	6.69414
287.144	7.35428
288.942	7.53723
290.739	6.91434
292.536	8.47431
294.333	10.0379
296.129	10.1615
297.925	11.4757
299.721	13.0224
301.514	13.8451
303.309	14.384
305.104	14.194
306.898	14.3947
308.692	14.8439
310.486	14.3492
312.279	15.0678
314.072	15.9474
315.862	16.4533
317.654	16.7558
319.446	16.9977
321.238	17.0172
323.029	16.9259
324.819	18.1771
326.608	18.2552
328.398	19.2065
330.188	19.9585
331.977	20.5873
333.766	21.0277
335.553	21.3002
337.341	21.6312
339.129	21.8553
340.917	21.6534
342.704	21.0277
344.489	20.9683
346.275	21.9282
348.062	21.5266
349.845	20.978
351.631	20.1736
353.416	18.5397
355.201	17.9226
356.984	17.1327
358.768	15.8652
360.552	15.161
362.333	15.0639
364.116	14.6579
365.899	14.2121
367.68	14.1928
369.462	14.1827
371.243	14.0735
373.023	13.9889
374.804	14.284
376.585	14.0469
378.363	15.0306
380.143	15.8867
381.923	16.4417
383.7	16.5102
385.479	16.4622
387.256	17.1334
389.034	17.7452
390.812	17.3719
392.588	16.7921
394.365	16.9188
396.14	17.4841
397.916	17.8411
399.691	17.4707
401.467	18.5881
403.24	18.2992
405.015	17.5119
406.788	17.7213
408.563	18.476
410.335	18.6604
412.109	19.202
413.88	19.8738
415.654	18.5486
417.424	18.4322
419.197	17.9734
420.967	17.6615
422.739	17.3979
424.508	16.8652
426.279	15.8279
428.048	15.722
429.819	15.0458
431.587	14.3981
433.356	14.6125
435.124	14.2212
436.891	12.654
438.66	11.9893
440.426	11.64
442.194	11.5946
443.96	11.3292
445.725	10.8462
447.492	10.0376
449.257	10.1339
451.021	9.72657
452.787	9.3595
454.551	9.02969
456.314	9.41594
458.079	9.4407
459.842	9.34037
461.604	9.94017
463.368	10.1788
465.13	10.0708
466.891	10.9154
468.654	11.6335
470.415	11.5131
472.175	11.3685
473.935	11.6678
475.696	12.3637
477.456	12.7945
479.215	13.072
480.973	13.305
482.733	13.9168
484.491	14.7869
486.249	15.4642
488.006	16.448
489.765	17.0571
491.522	17.3846
493.278	18.3507
495.034	19.5077
496.789	20.5228
498.544	21.1489
500.301	21.6982
502.056	21.2549
503.81	20.6263
505.564	21.9639
507.317	22.2256
509.071	22.6389
510.825	22.8735
512.578	22.8655
514.33	22.762
516.082	23.3071
517.833	21.989
519.585	22.6228
521.335	23.0449
523.086	23.0165
524.836	23.6282
526.586	24.1517
528.335	24.2728
530.085	24.0647
531.835	24.2722
533.584	24.7068
535.332	24.6167
537.08	23.7373
538.827	23.744
540.574	23.6102
542.321	23.0948
544.068	23.2072
545.814	21.768
547.56	20.7193
549.305	19.6162
551.05	18.4464
552.795	17.5795
554.54	16.8661
556.282	15.5273
558.025	13.8587
559.769	13.0415
561.512	12.9535
563.255	11.6713
564.997	10.5025
566.739	8.90151
568.481	8.36426
570.223	7.51833
571.964	7.19392
573.705	6.78263
575.443	6.20161
577.183	5.8747
578.923	6.15464
580.663	5.35013
582.402	5.39907
584.141	5.38559
585.879	4.72077
587.615	4.10665
589.353	2.97385
591.09	2.82005
592.828	2.91183
594.564	2.3329
596.299	2.57162
598.035	2.33348
599.771	2.01366
601.506	2.28238
603.242	2.43174
604.974	2.3739
606.709	4.34429
608.443	4.40853
610.177	4.88863
611.908	5.54573
613.642	5.9635
615.374	5.99515
617.105	6.10699
618.837	6.72353
620.569	6.23693
622.3	5.81788
624.03	5.57076
625.761	6.22185
627.491	6.01575
629.219	6.10873
630.949	7.0849
632.677	6.51674
634.406	6.76899
636.135	6.27084
637.861	6.22799
639.59	5.63068
641.318	5.04522
643.043	4.62343
644.77	5.16771
646.495	5.84819
648.222	7.1802
649.948	6.98389
651.672	8.03284
653.398	8.55837
655.121	9.60749
656.846	9.57203
658.569	11.4942
660.293	12.9228
662.015	13.3128
663.738	14.2686
665.46	14.5106
667.183	15.3277
668.903	16.9272
670.626	17.0341
672.346	17.4895
674.067	18.0385
675.787	17.8013
677.508	19.2218
679.226	19.9206
680.947	21.2593
682.665	21.6224
684.385	22.4038
686.102	23.5501
687.821	25.3427
689.538	25.8843
691.254	27.9682
692.972	30.4286
694.688	31.2091
696.406	32.3157
698.121	34.5933
699.835	36.5665
701.552	37.3754
703.266	38.7853
704.98	40.624
706.695	41.4246
708.409	43.0598
710.121	44.0992
711.836	45.077
713.548	46.5807
715.26	48.1788
716.973	48.3804
718.685	46.939
720.396	47.19
722.108	47.0644
723.818	47.1092
725.528	47.4714
727.238	47.6858
728.949	48.4652
730.658	49.3966
732.367	49.8167
734.075	49.983
735.785	50.0475
737.493	50.5709
739.2	50.1183
740.907	50.5721
742.614	51.3376
744.322	52.0901
746.028	52.1213
747.734	52.723
749.439	53.3893
751.144	53.485
752.849	54.7234
754.555	54.9153
756.26	55.399
757.963	56.3133
759.667	57.0078
761.37	58.3951
763.073	60.301
764.775	60.9213
766.477	62.715
768.179	63.9531
769.883	65.1274
771.584	67.0775
773.285	68.3943
774.986	70.6061
776.686	71.8244
778.386	73.5051
780.085	75.1111
781.785	76.2938
783.484	77.8806
785.182	78.5433
786.881	78.4902
788.579	79.8825
790.276	80.7598
791.974	81.1224
793.671	80.9527
795.367	80.4314
797.064	80.8977
798.76	80.8184
800.456	80.5408
802.151	79.4137
803.846	79.627
805.541	80.7243
807.234	79.4577
808.928	78.7105
810.622	79.2444
812.315	79.378
814.008	79.4654
815.701	78.8549
817.394	78.9785
819.086	78.9342
820.778	79.3827
822.468	78.4432
824.159	79.3483
825.85	78.9909
827.541	79.3445
829.231	79.0659
830.921	78.5645
832.609	78.5501
834.298	78.3476
835.987	77.275
837.676	78.1145
839.364	77.1831
841.051	77.0109
842.738	75.9096
844.426	75.6347
846.113	74.8531
847.798	74.1514
849.484	72.3513
851.171	71.6161
852.857	70.7019
854.54	70.6352
856.226	70.599
857.911	69.515
859.593	69.3778
861.278	67.8328
862.961	67.3457
864.645	65.7191
866.327	63.561
868.01	62.2938
869.692	60.7474
871.373	59.5795
873.055	58.5842
874.735	56.6259
876.416	55.3909
878.097	54.2706
879.776	53.6336
881.457	53.7378
883.135	52.5592
884.815	51.72
886.495	51.4315
888.172	51.8001
889.851	51.1306
891.528	51.0157
893.206	50.3567
894.882	50.356
896.56	49.0852
898.237	48.6018
899.912	48.1279
901.589	47.6069
903.263	47.2033
904.94	47.2483
906.614	47.3697
908.289	47.3588
909.962	46.4936
911.635	47.0492
913.31	46.2339
914.982	45.7707
916.656	46.2358
918.328	45.2886
920.001	44.5362
921.672	44.1499
923.345	43.2077
925.015	43.0512
926.685	42.1143
928.357	41.9001
930.026	41.0044
931.698	40.5829
933.366	39.2498
935.035	39.372
936.705	39.1565
938.373	38.9816
940.041	37.9711
941.71	38.0727
943.377	36.9891
945.044	35.9418
946.712	35.3715
948.378	35.2483
950.044	36.1356
951.709	37.0455
953.376	37.1281
955.041	37.6426
956.706	37.3616
958.372	37.1793
960.036	38.144
961.699	37.7983
963.362	38.4897
965.027	39.2153
966.69	39.1734
968.352	40.5968
970.014	42.5736
971.676	42.6651
973.339	42.2715
975	42.3314
976.661	41.3147
978.322	42.6312
979.982	43.0047
981.642	43.1967
983.303	42.791
984.962	43.1563
986.621	43.878
988.28	44.7844
989.938	44.962
991.596	44.3468
993.254	44.4497
994.911	43.1597
996.57	42.2398
998.227	42.2821
999.884	41.55
1001.54	40.765
1003.2	40.3085
1004.85	38.49
1006.51	37.6489
1008.16	36.1637
1009.82	35.1104
1011.47	33.065
1013.12	32.5467
1014.78	31.5203
1016.43	30.9904
1018.08	30.5649
1019.74	29.8709
1021.39	29.463
1023.04	29.9105
1024.69	28.832
1026.34	28.4739
1028	29.7878
1029.65	30.2313
1031.3	30.0961
1032.95	30.581
1034.6	30.3407
1036.25	29.6358
1037.9	29.2045
1039.54	28.3904
1041.19	28.3156
1042.84	29.4299
1044.49	29.0995
1046.14	29.4007
1047.78	28.0529
1049.43	27.6067
1051.08	28.4153
1052.72	28.0014
1054.37	27.1196
1056.02	27.3593
1057.66	26.6704
1059.31	26.3977
1060.95	26.0405
1062.6	25.8139
1064.24	24.4813
1065.88	25.016
1067.53	24.927
1069.17	25.3792
1070.81	25.0478
1072.45	25.2132
1074.1	25.1872
1075.74	25.4042
1077.38	25.716
1079.02	26.1521
1080.66	26.2175
1082.3	25.8636
1083.94	25.8975
1085.58	25.5037
1087.22	24.8034
1088.86	24.4649
1090.5	24.6109
1092.14	24.7139
1093.78	24.4752
1095.42	25.9046
1097.05	25.3824
1098.69	26.0534
1100.33	25.9217
1101.96	26.739
1103.6	27.1905
1105.24	28.0504
1106.87	26.6023
1108.51	26.5775
1110.14	27.341
1111.78	26.1358
1113.41	25.6183
1115.05	24.0043
1116.68	23.1885
1118.31	22.0062
1119.95	20.878
1121.58	20.7457
1123.21	19.947
1124.85	19.0306
1126.48	16.8823
1128.11	15.5107
1129.74	14.4412
1131.37	14.5544
1133	14.1946
1134.63	12.8361
1136.26	10.971
1137.89	10.2089
1139.52	8.59619
1141.15	7.7269
1142.78	6.91537
1144.41	5.98481
1146.04	4.33057
1147.66	4.30437
1149.29	3.77483
1150.92	3.43124
1152.55	3.80595
1154.17	3.72392
1155.8	3.17375
1157.43	3.0549
1159.05	2.71675
1160.68	2.37207
1162.3	2.40731
1163.93	2.46888
1165.55	2.7298
1167.17	3.67832
1168.8	3.64102
1170.42	4.45699
1172.05	5.08882
1173.67	6.1645
1175.29	6.7216
1176.91	7.31935
1178.54	7.46092
1180.16	8.0281
1181.78	9.03283
1183.4	10.0589
1185.02	10.6316
1186.64	10.3372
1188.26	10.296
1189.88	11.5508
1191.5	12.324
1193.12	11.9016
1194.74	12.7401
1196.36	13.552
1197.97	15.6641
1199.59	17.5093
1201.21	18.5997
1202.83	19.7875
1204.44	20.6425
1206.06	22.3543
1207.68	22.8213
1209.29	23.4463
1210.91	25.1591
1212.52	26.8312
1214.14	28.0381
1215.75	29.1629
1217.37	28.9873
1218.98	31.1842
1220.59	31.7723
1222.21	32.9821
1223.82	34.5537
1225.43	36.5849
1227.05	38.0259
1228.66	39.8252
1230.27	41.5532
1231.88	43.7157
1233.49	46.1582
1235.1	46.5244
1236.72	47.8517
1238.33	50.2963
1239.94	52.1676
1241.55	54.1966
1243.16	56.199
1244.76	57.0504
1246.37	58.7849
1247.98	60.4439
1249.59	60.8509
1251.2	61.7679
1252.8	61.8121
1254.41	62.4996
1256.02	62.6093
1257.62	63.7591
1259.23	65.2902
1260.84	66.2639
1262.44	67.3471
1264.05	67.7771
1265.66	68.3702
1267.26	68.9067
1268.86	70.4611
1270.47	71.9802
1272.07	73.28
1273.67	74.5499
1275.28	75.688
1276.88	77.3128
1278.48	77.53
1280.09	78.7377
1281.69	79.2427
1283.29	80.1826
1284.89	81.0997
1286.49	80.7388
1288.09	81.5422
1289.69	81.3862
1291.29	82.2205
1292.89	82.7214
1294.49	82.5342
1296.09	82.3899
1297.69	82.3862
1299.29	83.1815
1300.89	83.3862
1302.49	84.5935
1304.08	84.5946
1305.68	85.1533
1307.28	84.5912
1308.88	85.3253
1310.47	85.4026
1312.07	86.0814
1313.66	86.1741
1315.26	85.9024
1316.85	86.2905
1318.45	87.3538
1320.04	86.7403
1321.64	85.6278
1323.23	84.4524
1324.83	83.1565
1326.42	83.0952
1328.01	82.3035
1329.61	80.5994
1331.2	78.2384
1332.79	77.2619
1334.38	76.5832
1335.97	75.2963
1337.56	74.8141
1339.16	73.5155
1340.75	71.2074
1342.34	70.3541
1343.93	70.0142
1345.52	68.9113
1347.11	68.3121
1348.7	66.794
1350.29	65.0485
1351.87	63.5417
1353.46	62.1828
1355.05	61.1522
1356.64	59.9104
1358.22	58.1988
1359.81	56.8996
1361.4	54.8795
1362.98	53.5497
1364.57	52.4352
1366.16	51.1582
1367.74	50.7042
1369.33	48.5911
1370.91	47.8734
1372.5	47.561
1374.08	45.8349
1375.67	44.5848
1377.25	44.7322
1378.83	43.3371
1380.41	43.2745
1382	42.9977
1383.58	42.3899
1385.16	42.9239
1386.74	42.5074
1388.33	43.1276
1389.91	42.885
1391.49	43.552
1393.07	44.1149
1394.65	44.144
1396.23	44.6422
1397.81	44.709
1399.39	44.1234
1400.97	43.7421
1402.55	43.227
1404.13	43.7709
1405.7	43.2742
1407.28	42.3942
1408.86	42.1429
1410.44	42.2776
1412.01	44.3559
1413.59	44.2306
1415.17	44.8337
1416.74	46.843
1418.32	48.3703
1419.89	49.744
1421.47	52.8053
1423.04	54.7405
1424.62	56.0065
1426.19	58.3297
1427.77	60.1369
1429.34	61.8385
1430.91	64.1358
1432.49	65.9778
1434.06	67.2401
1435.63	68.8611
1437.2	70.4657
1438.78	71.1344
1440.35	73.2799
1441.92	75.0485
1443.49	76.04
1445.06	76.5774
1446.63	77.2221
1448.2	77.278
1449.77	77.1976
1451.34	76.9029
1452.91	76.6818
1454.48	77.4347
1456.05	77.7479
1457.62	76.4665
1459.18	76.2184
1460.75	75.1722
1462.32	73.9694
1463.89	72.5861
1465.45	70.1041
1467.02	69.0822
1468.59	67.2783
1470.15	64.9338
1471.72	62.1971
1473.28	59.3879
1474.85	57.0794
1476.41	54.1283
1477.98	50.4786
1479.54	47.8237
1481.1	45.1926
1482.67	43.5028
1484.23	41.1384
1485.79	40.2596
1487.36	38.644
1488.92	37.5424
1490.48	36.5435
1492.04	34.2405
1493.61	32.6234
1495.17	32.023
1496.73	30.9479
1498.29	29.9016
1499.85	29.3212
1501.41	27.425
1502.97	26.5809
1504.53	26.7168
1506.09	25.7023
1507.65	25.1075
1509.2	25.7473
1510.76	25.7457
1512.32	25.5527
1513.88	26.3278
1515.43	25.4307
1516.99	25.5686
1518.55	26.0086
1520.1	26.3241
1521.66	27.3093
1523.22	27.6424
1524.77	28.5892
1526.33	28.1999
1527.88	28.9745
1529.44	29.5582
1530.99	31.669
1532.54	31.9799
1534.1	31.7466
1535.65	32.9187
1537.21	33.3878
1538.76	34.2163
1540.31	35.6464
1541.86	37.1115
1543.42	37.8737
1544.97	40.7471
1546.52	41.8103
1548.07	42.5053
1549.62	44.522
1551.17	47.3325
1552.72	48.5702
1554.27	49.6633
1555.82	50.8004
1557.37	53.0043
1558.92	55.5096
1560.47	57.531
1562.02	59.1237
1563.56	60.1169
1565.11	60.8259
1566.66	62.5679
1568.21	63.3405
1569.75	63.7386
1571.3	64.673
1572.85	66.9098
1574.39	67.8544
1575.94	68.6009
1577.49	69.3159
1579.03	70.1375
1580.57	71.9334
1582.12	73.0415
1583.66	73.0802
1585.21	74.3725
1586.75	75.144
1588.3	74.6477
1589.84	75.3979
1591.38	75.3985
1592.92	73.8249
1594.47	74.5938
1596.01	74.5823
1597.55	74.77
1599.09	74.0468
1600.63	72.588
1602.17	72.4596
1603.71	71.075
1605.25	71.2215
1606.79	71.0174
1608.33	70.3334
1609.87	69.3534
1611.41	69.2438
1612.95	70.4141
1614.49	71.5076
1616.03	71.852
1617.57	72.2147
1619.1	72.8115
1620.64	73.8251
1622.18	75.5967
1623.72	75.9076
1625.25	76.5104
1626.79	77.9182
1628.32	79.2867
1629.86	79.6907
1631.39	81.0163
1632.93	82.1595
1634.46	84.3125
1636	86.5075
1637.53	88.0867
1639.07	89.5218
1640.6	90.9929
1642.13	92.9348
1643.67	93.7435
1645.2	95.0661
1646.73	96.1763
1648.26	96.7681
1649.8	98.1308
1651.33	98.1046
1652.86	98.8217
1654.39	99.551
1655.92	99.8045
1657.45	100.748
1658.98	100.429
1660.51	99.5859
1662.04	99.9757
1663.57	98.352
1665.1	96.6545
1666.63	95.2754
1668.16	93.3485
1669.68	91.3325
1671.21	89.8384
1672.74	87.11
1674.27	83.5091
1675.79	79.4586
1677.32	75.8348
1678.85	73.3814
1680.37	70.1757
1681.9	67.1175
1683.42	64.2339
1684.95	60.4832
1686.47	58.3183
1688	55.6322
1689.52	53.4523
1691.05	50.4427
1692.57	46.1464
1694.09	43.6749
1695.62	41.5786
1697.14	38.6744
1698.66	35.7137
1700.18	32.8363
1701.71	30.8895
1703.23	30.086
1704.75	28.5118
1706.27	26.8156
1707.79	24.8749
1709.31	23.6579
1710.83	22.8384
1712.35	21.6249
1713.87	20.1311
1715.39	18.5674
1716.91	18.0177
1718.43	17.1068
1719.95	15.7648
1721.47	15.7262
1722.99	14.9034
1724.5	14.0316
1726.02	14.2064
1727.54	13.8564
1729.06	14.1386
1730.57	13.9707
1732.09	13.7417
1733.61	14.2667
1735.12	13.5197
1736.64	12.9843
1738.15	12.8625
1739.67	12.1409
1741.18	12.2206
1742.7	12.2933
1744.21	11.6359
1745.72	10.0926
1747.24	9.07452
1748.75	7.93032
1750.26	7.55445
1751.77	6.9805
1753.29	6.99074
1754.8	6.80545
1756.31	6.19411
1757.82	5.55473
1759.33	5.32122
1760.84	4.38844
1762.36	4.22379
1763.87	3.78869
1765.38	3.18882
1766.89	2.3846
1768.4	1.6828
1769.91	1.54136
1771.41	1.19623
1772.92	0.718198
1774.43	0.555266
1775.94	0.877271
1777.45	0.907295
1778.95	0.548548
1780.46	-0.351411
1781.97	-1.07196
1783.48	-2.18553
1784.98	-1.42142
1786.49	-1.3101
1787.99	-1.22954
1789.5	-1.12291
1791.01	-1.19295
1792.51	-0.917127
1794.01	-1.56089
1795.52	-1.26088
1797.02	-0.74578
1798.53	-0.478702
1800.03	-0.172331
1801.53	0.626812
1803.04	1.15525
1804.54	1.49592
1806.04	2.15276
1807.54	2.97621
1809.05	3.69763
1810.55	3.33955
1812.05	4.06181
1813.55	4.84581
1815.05	5.77727
1816.55	5.96169
1818.05	5.97383
1819.55	5.724
1821.05	5.93611
1822.55	6.37465
1824.05	6.57634
1825.55	6.4289
1827.05	5.85325
1828.55	5.96196
1830.04	5.9645
1831.54	6.07678
1833.04	5.71343
1834.54	5.62859
1836.03	5.06674
1837.53	5.01117
1839.03	5.1268
1840.52	4.4366
1842.02	4.39726
1843.51	4.35358
1845.01	4.28467
1846.5	4.17877
1848	4.02219
1849.49	4.21232
1850.99	4.73692
1852.48	4.37107
1853.97	4.27632
1855.47	4.37283
1856.96	4.20191
1858.45	4.40573
1859.94	5.04605
1861.44	4.85448
1862.93	4.23245
1864.42	4.57281
1865.91	4.07785
1867.4	4.39534
1868.89	4.22828
1870.38	4.43754
1871.87	4.91932
1873.36	5.41712
1874.85	5.3901
1876.34	5.91079
1877.83	5.9829
1879.32	6.3223
1880.81	7.15307
1882.3	7.43024
1882.57	6.76451
1884.07	7.16265
1885.56	7.4514
1887.06	7.79817
1888.55	7.0409
1890.04	6.14545
1891.54	6.07059
1893.03	6.32604
1894.52	6.46431
1896.02	6.01141
1897.51	5.6818
1899	5.30651
1900.49	5.4916
1901.98	5.66006
1903.47	5.44532
1904.96	5.11621
1906.45	5.41956
1907.94	5.669
1909.43	5.33009
1910.92	6.14846
1912.41	6.09617
1913.9	5.85198
1915.39	5.94026
1916.88	6.48983
1918.37	7.02114
1919.85	7.02671
1921.34	7.29389
1922.83	7.92939
1924.32	7.96884
1925.8	7.95713
1927.29	8.15736
1928.78	8.12295
1930.26	7.4416
1931.75	7.77991
1933.23	7.92898
1934.72	7.76228
1936.2	7.3642
1937.69	7.41629
1939.17	6.71884
1940.66	6.27468
1942.14	6.19926
1943.63	6.2496
1945.11	6.36914
1946.59	5.64099
1948.07	5.47487
1949.56	5.56929
1951.04	5.10655
1952.52	4.47745
1954	4.44028
1955.48	3.60208
1956.96	3.32184
1958.45	3.10495
1959.93	2.55699
1961.41	2.17263
1962.89	1.14826
1964.37	1.57268
1965.85	1.44884
1967.32	1.31915
1968.8	0.429907
1970.28	0.156886
1971.76	0.191749
1973.24	0.389696
1974.72	0.481556
1976.19	0.452196
1977.67	0.0365966
1979.15	0.36354
1980.63	0.307547
1982.1	-0.247993
1983.58	-0.752099
1985.05	-0.838566
1986.53	-0.576272
1988	0.125144
1989.48	0.345946
1990.95	1.024
1992.43	0.771517
1993.9	0.965181
1995.38	1.72961
1996.85	2.27206
1998.32	2.41319
1999.8	2.63889
2001.27	2.83151
2002.74	3.52681
2004.22	3.53503
2005.69	4.12687
2007.16	4.08957
2008.63	4.10058
2010.1	4.17359
2011.57	4.65269
2013.04	4.56457
2014.51	4.22856
2015.98	4.14314
2017.45	3.89462
2018.92	4.20398
2020.39	3.92987
2021.86	4.39078
2023.33	4.56968
2024.8	5.05349
2026.27	4.91784
2027.74	5.91646
2029.2	6.03598
2030.67	6.14559
2032.14	6.31655
2033.61	6.98169
2035.07	6.39377
2036.54	6.28366
2038.01	7.11965
2039.47	6.9779
2040.94	7.67943
2042.4	8.1027
2043.87	8.1213
2045.33	8.117
2046.8	7.70036
2048.26	7.82818
2049.72	7.73602
2051.19	8.11578
2052.65	8.11352
2054.12	8.26892
2055.58	8.59223
2057.04	8.63439
2058.5	8.97526
2059.97	9.45663
2061.43	9.63362
2062.89	9.7182
2064.35	10.2455
2065.81	9.96437
2067.27	10.6485
2068.73	10.9769
2070.19	11.8599
2071.65	12.6654
2073.11	13.3274
2074.57	14.4228
2076.03	15.2365
2077.49	15.213
2078.95	16.142
2080.41	16.9686
2081.87	17.4232
2083.32	17.7369
2084.78	18.4041
2086.24	18.6767
2087.7	19.176
2089.15	20.4594
2090.61	21.9214
2092.07	22.7365
2093.52	23.0208
2094.98	24.7736
2096.43	26.2029
2097.89	27.1243
2099.34	27.8729
2100.8	29.2289
2102.25	29.7964
2103.71	31.0326
2105.16	31.6261
2106.61	32.5521
2108.07	33.2737
2109.52	33.9935
2110.97	35.5517
2112.43	35.9469
2113.88	36.9895
2115.33	38.1165
2116.78	38.864
2118.23	40.7001
2119.68	42.0843
2121.13	44.3874
2122.59	46.1395
2124.04	47.6094
2125.49	48.5979
2126.94	49.8701
2128.39	50.6847
2129.83	52.0217
2131.28	53.165
2132.73	55.4005
2134.18	57.6416
2135.63	60.0988
2137.08	62.0612
2138.53	64.3184
2139.97	67.0702
2141.42	69.804
2142.87	72.5356
2144.31	74.2577
2145.76	76.2342
2147.21	78.3516
2148.65	79.798
2150.1	81.6454
2151.54	84.0671
2152.99	86.2311
2154.43	87.6171
2155.88	89.3164
2157.32	91.5141
2158.77	92.7916
2160.21	93.6321
2161.65	95.1905
2163.1	95.5952
2164.54	96.2342
2165.98	97.383
2167.43	98.7903
2168.87	98.8427
2170.31	98.44
2171.75	98.8249
2173.19	98.5128
2174.64	98.294
2176.07	98.1747
2177.52	97.119
2178.96	95.7794
2180.4	95.3389
2181.84	93.4455
2183.28	93.3211
2184.72	92.3339
2186.15	91.5372
2187.59	90.5517
2189.03	89.2661
2190.47	87.7931
2191.91	85.5438
2193.35	83.76
2194.78	81.993
2196.22	79.9241
2197.66	78.0776
2199.09	76.2191
2200.53	75.2456
2201.97	73.6611
2203.4	71.9174
2204.84	70.7194
2206.27	69.5885
2207.71	68.1598
2209.14	65.7366
2210.58	63.9556
2212.01	61.9719
2213.45	59.9748
2214.88	57.6619
2216.31	55.3575
2217.75	53.8846
2219.18	52.7979
2220.61	51.5553
2222.05	49.9383
2223.48	48.7951
2224.91	47.1169
2226.34	45.4197
2227.78	44.1793
2229.21	42.7308
2230.64	41.0214
2232.07	39.6603
2233.5	38.8642
2234.93	37.3014
2236.36	36.582
2237.79	35.6596
2239.22	34.8494
2240.65	33.6074
2242.08	32.583
2243.5	32.4445
2244.93	31.9328
2246.36	31.1133
2247.79	30.2716
2249.22	29.1996
2250.64	28.4969
2252.07	28.5981
2253.5	27.497
2254.92	27.5131
2256.35	27.013
2257.78	26.613
2259.2	26.4981
2260.63	25.5309
2262.05	24.9573
2263.48	24.2413
2264.9	24.2386
2266.33	23.7369
2267.75	23.2177
2269.18	22.3818
2270.6	22.0434
2272.02	21.1028
2273.45	19.8674
2274.87	19.1792
2276.29	18.6286
2277.71	18.1247
2279.14	16.8313
2280.56	15.8499
2281.98	15.6179
2283.4	14.9867
2284.82	14.2531
2286.24	13.5647
2287.66	12.7
2289.08	12.1502
2290.5	11.2431
2291.92	9.82114
2293.34	8.54437
2294.76	8.45853
2296.18	7.9201
2297.6	8.19683
2299.02	7.92219
2300.44	8.32373
2301.86	8.21266
2303.27	8.08559
2304.69	7.89093
2306.11	7.1242
2307.53	7.75914
2308.94	7.51752
2310.36	7.63298
2311.78	7.5304
2313.19	6.97672
2314.61	7.61744
2316.02	7.66123
2317.44	7.59384
2318.85	7.46414
2320.27	6.87513
2321.68	6.9889
2323.1	6.78842
2324.51	7.23374
2325.92	6.98099
2327.34	6.71904
2328.75	6.6854
2330.16	5.9458
2331.58	5.61196
2332.99	5.56409
2334.4	5.05626
2335.81	5.19452
2337.23	4.86793
2338.64	5.15022
2340.05	4.7798
2341.46	4.90524
2342.87	4.64908
2344.28	4.96375
2345.69	5.38659
2347.1	5.24525
2348.51	5.00144
2349.92	5.02351
2351.33	5.32388
2352.74	5.96538
2354.15	5.76124
2355.55	5.53351
2356.96	5.2546
2358.37	4.83487
2359.78	4.55168
2361.19	4.46939
2362.59	4.51574
2364	4.65871
2365.41	5.17769
2366.81	5.92959
2368.22	6.49468
2369.62	5.85312
2371.03	5.36862
2372.44	4.48734
2373.84	4.45346
2375.24	3.90677
2376.65	3.55135
2378.05	3.91523
2379.46	2.85125
2380.86	2.76665
2382.26	2.49013
2383.67	2.41047
2385.07	2.88494
2386.47	2.54711
2387.88	2.37243
2389.28	1.40768
2390.68	1.28511
2392.08	1.76672
2393.48	1.36344
2394.89	1.30632
2396.29	1.00999
2397.69	1.1108
2399.09	1.14768
2400.49	0.661164
2401.89	0.983268
2403.29	1.2226
2404.69	1.49496
2406.09	2.01544
2407.48	2.39057
2408.88	3.10837
2410.28	3.41288
2411.68	4.56481
2413.08	5.47256
2414.48	5.77985
2415.87	6.81518
2417.27	7.29229
2418.67	7.79299
2420.06	8.75019
2421.46	9.83473
2422.86	10.1816
2424.25	10.3737
2425.65	10.3362
2427.04	10.7755
2428.44	10.2896
2429.83	10.686
2431.23	11.2742
2432.62	10.922
2434.02	10.8064
2435.41	10.5199
2436.81	10.6531
2438.2	9.62948
2439.59	9.10838
2440.99	8.94377
2442.38	8.69456
2443.77	8.39422
2445.16	7.52107
2446.56	7.14591
2447.95	7.01716
2449.34	5.93307
2450.73	6.05947
2452.12	5.57976
2453.51	5.62743
2454.9	5.18879
2456.29	4.77556
2457.68	4.55506
2459.07	4.43578
2460.46	4.44513
2461.85	4.69327
2463.24	4.83652
2464.63	5.17987
2466.02	4.87358
2467.4	5.0415
2468.79	5.13958
2470.18	5.15471
2471.57	5.52174
2472.95	5.64486
2474.34	5.38951
2475.73	5.91842
2477.12	6.02391
2478.5	6.28538
2479.89	6.29998
2481.27	6.55093
2482.66	6.84974
2484.04	6.57473
2485.43	6.51833
2486.81	6.37104
2488.2	6.82589
2489.58	7.22185
2490.97	6.97711
2492.35	6.84131
2493.73	7.02802
2495.12	7.2123
2496.5	6.9701
2497.88	6.60675
2499.27	7.13153
2500.65	6.55788
2502.03	5.82039
2503.41	6.03478
2504.79	5.85425
2506.17	5.82937
2507.56	5.43428
2508.94	6.3575
2510.32	6.70329
2511.7	6.49641
2513.08	6.2617
2514.46	5.8331
2515.84	5.95596
2517.22	5.76191
2518.59	5.58139
2519.97	5.67187
2521.35	5.34036
2522.73	5.40006
2524.11	5.16899
2525.49	5.1501
2526.86	5.65686
2528.24	5.80507
2529.62	5.79452
2530.99	5.77389
2532.37	5.19565
2533.75	4.65223
2535.12	3.94244
2536.5	4.47402
2537.88	3.95314
2539.25	3.30907
2540.63	3.39737
2542	2.94975
2543.38	3.031
2544.75	3.14064
2546.12	2.7246
2547.5	2.4722
2548.87	2.4277
2550.24	2.48711
2551.62	2.45681
2552.99	2.31779
2554.36	2.19097
2555.74	3.30592
2557.11	3.57602
2558.48	3.21585
2559.85	3.20855
2561.22	3.46782
2562.59	3.85555
2563.96	3.96541
2565.34	3.91274
2566.71	4.93977
2568.08	5.79738
2569.45	5.4308
2570.82	5.77379
2572.18	5.98033
2573.55	5.85322
2574.92	6.22916
2576.29	6.64872
2577.66	7.10851
2579.03	6.44862
2580.4	6.06477
2581.77	5.88452
2583.13	5.16726
2584.5	4.91724
2585.87	5.04659
2587.23	4.94695
2588.6	5.11199
2589.97	5.08392
2591.33	5.0138
2592.7	5.60212
2594.06	5.5914
2595.43	5.40741
2596.79	4.86952
2598.16	4.76874
2599.52	4.73539
2600.89	5.03831
2602.25	5.31388
2603.62	4.91919
2604.98	5.08756
2606.34	4.85646
2607.71	4.69176
2609.07	4.40633
2610.43	4.02215
2611.79	4.03485
2613.16	4.14199
2614.52	3.83347
2615.88	3.97607
2617.24	4.2017
2618.6	3.8945
2619.96	3.99193
2621.32	4.31484
2622.68	3.89745
2624.04	4.32941
2625.4	4.11525
2626.76	4.10219
2628.12	5.06415
2629.48	5.19656
2630.84	5.71013
2632.2	5.78086
2633.56	6.134
2634.92	6.09539
2636.28	6.02731
2637.63	5.56158
2638.99	5.59728
2640.35	5.66007
2641.71	5.42812
2643.06	5.61056
2644.42	5.58035
2645.77	6.11281
2647.13	6.23434
2648.49	6.43894
2649.84	6.35844
2651.2	6.13589
2652.55	6.72922
2653.91	7.55618
2655.26	7.33427
2656.62	7.34086
2657.97	7.02469
2659.33	7.34863
2660.68	7.90061
2662.03	7.63159
2663.39	7.44142
2664.74	7.57644
2666.09	7.78229
2667.44	7.39204
2668.8	7.21004
2670.15	7.08359
2671.5	6.26689
2672.85	6.33409
2674.2	6.22187
2675.55	5.69215
2676.91	5.18031
2678.26	5.52311
2679.61	5.18445
2680.96	5.08024
2682.31	4.83871
2683.66	4.90668
2685	4.5516
2686.35	4.29947
2687.7	4.43774
2689.05	4.3844
2690.4	4.63998
2691.75	5.43526
2693.1	5.62971
2694.44	5.94516
2695.79	5.65904
2697.14	5.30816
2698.49	5.17167
2699.83	5.10477
2701.18	4.95571
2702.52	4.81873
2703.87	5.32213
2705.22	5.26113
2706.56	5.00578
2707.91	5.71581
2709.25	5.96779
2710.6	6.52767
2711.94	6.80607
2713.29	7.0693
2714.63	7.55257
2715.97	7.83835
2717.32	8.26036
2718.66	8.82457
2720.01	9.52079
2721.35	10.2136
2722.69	10.4878
2724.03	10.8906
2725.38	11.6363
2726.72	12.2627
2728.06	12.5494
2729.4	12.3525
2730.74	12.5679
2732.08	12.8324
2733.42	12.8922
2734.76	12.7577
2736.1	12.6779
2737.44	12.1129
2738.78	11.5015
2740.12	11.6351
2741.46	11.4443
2742.8	11.3301
2744.14	11.1274
2745.48	10.9658
2746.82	10.7523
2748.16	10.4326
2749.49	9.84589
2750.83	9.08887
2752.17	8.87666
2753.51	8.62439
2754.84	8.36014
2756.18	8.35879
2757.52	7.98581
2758.85	7.51374
2760.19	6.44651
2761.53	6.00589
2762.86	5.33747
2764.2	5.48877
2765.53	4.65981
2766.87	4.795
2768.2	4.30458
2769.54	4.29058
2770.87	4.60148
2772.2	4.43338
2773.54	3.84201
2774.87	4.2565
2776.2	3.81239
2777.54	3.50139
2778.87	3.70494
2780.2	3.64226
2781.53	3.73337
2782.87	3.21382
2784.2	3.33298
2785.53	3.32059
2786.86	3.18715
2788.19	2.65951
2789.52	2.15562
2790.85	1.69894
2792.18	1.44043
2793.51	0.760717
2794.84	0.356687
2796.17	0.165885
2797.5	0.00881617
2798.83	-0.0889501
2800.16	-0.157727
2801.49	-0.641447
2802.82	-0.679416
2804.15	-0.590836
2805.47	-0.662651
2806.8	-0.469155
2808.13	-0.31327
2809.46	-0.80852
2810.78	-1.89038
2812.11	-2.45486
2813.44	-2.30604
2814.76	-2.95951
2816.09	-2.8864
2817.42	-2.95988
2818.74	-2.96686
2820.07	-3.48606
2821.39	-3.25819
2822.72	-2.19016
2824.04	-1.56067
2825.37	-0.594248
2826.69	0.722857
2828.02	2.75965
2829.34	4.41056
2830.66	6.04799
2831.99	7.84467
2833.31	9.7139
2834.63	11.1165
2835.96	13.6788
2837.28	15.8553
2838.6	18.2422
2839.92	20.3184
2841.24	23.2691
2842.57	25.3606
2843.89	28.1532
2845.21	31.6015
2846.53	34.6742
2847.85	38.4307
2849.17	42.5723
2850.49	46.7863
2851.81	50.8453
2853.13	54.9606
2854.45	58.9958
2855.77	63.3593
2857.09	68.3386
2858.41	72.6482
2859.72	77.4006
2861.04	81.7081
2862.36	86.9061
2863.68	90.5484
2865	94.8797
2866.31	97.8593
2867.63	101.078
2868.95	104.195
2870.26	107.041
2871.58	110.483
2872.9	113.102
2874.21	115.111
2875.53	116.363
2876.84	117.645
2878.16	120.106
2879.47	122.153
2880.79	124.17
2882.1	125.389
2883.42	126.739
2884.73	128.411
2886.05	130.535
2887.36	132.565
2888.67	135.757
2889.99	138.249
2891.3	140.264
2892.61	142.715
2893.92	144.313
2895.24	146.376
2896.55	148.652
2897.86	151.05
2899.17	154.027
2900.48	157.86
2901.79	161.546
2903.11	165.138
2904.42	169.413
2905.73	174.022
2907.04	178.951
2908.35	184.488
2909.66	190.779
2910.97	197.244
2912.27	203.631
2913.58	210.351
2914.89	216.755
2916.2	223.083
2917.51	229.257
2918.82	235.246
2920.13	241.005
2921.43	246.536
2922.74	251.527
2924.05	255.204
2925.35	259.241
2926.66	262.1
2927.97	265.258
2929.27	266.234
2930.58	268.239
2931.89	269.172
2933.19	270.22
2934.5	270.205
2935.8	269.361
2937.11	268.459
2938.41	266.602
2939.72	264.992
2941.02	262.574
2942.32	259.644
2943.63	256.578
2944.93	253.119
2946.24	249.421
2947.54	244.248
2948.84	239.475
2950.14	234.572
2951.45	229.966
2952.75	225.026
2954.05	220.351
2955.35	214.04
2956.65	208.031
2957.95	202.758
2959.26	197.238
2960.56	192.072
2961.86	186.991
2963.16	182.001
2964.46	176.924
2965.76	171.867
2967.06	166.399
2968.36	162.095
2969.66	157.488
2970.96	153.194
2972.25	148.538
2973.55	144.202
2974.85	139.69
2976.15	135.556
2977.45	131.248
2978.74	126.785
2980.04	121.838
2981.34	117.465
2982.64	112.646
2983.93	107.723
2985.23	102.697
2986.52	97.713
2987.82	92.1054
2989.12	87.0463
2990.41	82.5086
2991.71	77.5516
2993	72.8035
2994.3	68.0195
2995.59	64.1134
2996.89	59.6867
2998.18	55.6449
2999.48	51.4029
3000.77	47.3543
3002.06	44.371
3003.36	40.7983
3004.65	36.6636
3005.94	32.5461
3007.23	28.9376
3008.53	26.2695
3009.82	23.4253
3011.11	20.3053
3012.4	17.1303
3013.69	15.1885
3014.99	13.7028
3016.28	11.854
3017.57	10.2186
3018.86	8.67513
3020.15	7.14359
3021.44	6.33721
3022.73	5.13906
3024.02	4.12406
3025.31	3.54639
3026.6	3.23673
3027.89	2.89301
3029.18	1.96094
3030.46	2.07278
3031.75	2.34578
3033.04	2.426
3034.33	2.49096
3035.62	2.93473
3036.9	4.04862
3038.19	4.2034
3039.48	5.30575
3040.76	6.10607
3042.05	6.43837
3043.34	7.11208
3044.62	7.35022
3045.91	8.10402
3047.19	8.65389
3048.48	9.25514
3049.77	9.72077
3051.05	10.406
3052.34	10.3339
3053.62	10.8171
3054.9	10.8975
3056.19	11.157
3057.47	11.0567
3058.76	11.3257
3060.04	10.9999
3061.32	10.4586
3062.61	10.5674
3063.89	9.49621
3065.17	8.95651
3066.45	8.5158
3067.74	7.68478
3069.02	7.47596
3070.3	6.87843
3071.58	6.40854
3072.86	5.61053
3074.14	4.55059
3075.42	4.06231
3076.7	3.57134
3077.99	3.16777
3079.26	2.76953
3080.54	1.64291
3081.82	1.58576
3083.1	0.548322
3084.38	-0.0390259
3085.66	-0.263146
3086.94	-0.376054
3088.22	-0.352541
3089.5	-0.548153
3090.78	-0.606017
3092.05	-0.150327
3093.33	0.15502
3094.61	0.487205
3095.89	0.825102
3097.16	0.982244
3098.44	1.60712
3099.72	2.13948
3100.99	2.77366
3102.27	2.89057
3103.54	3.69556
3104.82	4.0303
3106.1	4.64019
3107.37	5.29933
3108.65	5.65676
3109.92	5.93125
3111.2	6.40049
3112.47	6.83563
3113.74	7.42943
3115.02	7.82006
3116.29	7.66126
3117.56	7.79662
3118.84	8.30896
3120.11	8.92719
3121.38	9.02672
3122.66	9.54247
3123.93	9.63853
3125.2	10.5255
3126.47	11.0599
3127.74	11.2025
3129.01	12.171
3130.29	12.9512
3131.56	13.5639
3132.83	14.2594
3134.1	14.2326
3135.37	14.9089
3136.64	15.4446
3137.91	16.1493
3139.18	16.8464
3140.45	17.6962
3141.72	18.536
3142.99	19.5522
3144.26	20.6814
3145.52	22.0159
3146.79	23.9366
3148.06	25.2842
3149.33	27.5759
