#Acq. time (s)=	45
#Accumulations=	2
#Range (cm-¹)=	200...3150
#Windows=	2
#Auto scanning=	Off
#Autofocus=	Off
#Macrospot=	Off
#AutoExposure=	Off
#Spike filter=	Multiple accum.
#Delay time (s)=	0
#Binning=	1
#Readout mode=	Signal
#DeNoise=	Off
#ICS correction=	On
#Dark correction=	Off
#Inst. Process=	Off
#Detector Gain=	Best Dynamic Range
#Detector ADC=	20 kHz       
#Detector temperature (°C)=	-69.85
#Instrument=	LabRAM HR Evol
#Detector=	Synapse
#Objective=	x100
#Grating=	600 gr/mm
#ND Filter=	100%
#Laser (nm)=	532 
#Hole=	100.021
#Range=	Auto
#Laser Pol.=	No
#Raman. Pol.=	No
#Laser Pol. (°)=	-0.0007625
#Raman Pol. (°)=	89.9995
#Collection=	Microscope
#StageXY=	Marzhauser
#StageZ=	Marzhauser
#X (µm)=	-5913.2
#Y (µm)=	2876.9
#Z (µm)=	-223.7
#Full time(mm:ss)=	3:19
#Project=	
#Sample=	
#Site=	
#Title=	Thy_20_09_22_2x_45s_532 nm_x100_100%_600 gr_mm
#Remark=	
#Date=	29.06.2022 12:13
#Acquired=	29.06.2022 12:13:12
#Base:Fit=	10.08.2022 09:52:02
#Base:Fit=	10.08.2022 09:52:12
#Base:Sub=	10.08.2022 09:54:21
#Filter:Polynom=	16.08.2022 10:24:04
#AxisType[0]=Intens
#AxisUnit[0]=Cnt
#AxisType[1]=Spectr
#AxisUnit[1]=1/cm
200.523	32.9711
202.339	29.8329
204.154	27.4405
205.967	24.474
207.781	21.6224
209.596	19.0214
211.409	16.5694
213.222	14.2434
215.034	12.4291
216.848	11.5247
218.659	10.2727
220.47	9.31186
222.281	7.61395
224.091	6.67928
225.903	5.97273
227.713	4.85905
229.522	4.88373
231.331	4.0122
233.14	3.59844
234.948	2.80841
236.756	3.10785
238.566	2.87349
240.373	2.56376
242.18	2.59669
243.986	2.56064
245.792	1.8995
247.598	1.60936
249.403	2.22991
251.208	2.55691
253.013	2.69021
254.818	3.76748
256.624	3.88314
258.427	4.5406
260.231	4.72294
262.034	5.33928
263.836	4.47632
265.638	5.06563
267.44	4.77651
269.242	4.66395
271.043	5.00436
272.844	4.40205
274.645	3.93722
276.445	3.30119
278.245	3.45288
280.044	4.41861
281.843	4.10245
283.642	4.85962
285.44	4.96653
287.238	4.59823
289.036	4.40308
290.833	5.49408
292.63	6.06278
294.425	5.21896
296.221	5.34309
298.017	5.67388
299.813	5.0631
301.608	5.21759
303.403	5.06602
305.198	6.01439
306.992	6.23617
308.786	6.16665
310.579	6.53043
312.371	5.91655
314.163	6.6781
315.956	7.14215
317.748	7.51518
319.54	8.72954
321.331	8.85369
323.122	9.1488
324.911	9.55167
326.701	10.933
328.491	10.8118
330.281	10.9355
332.071	11.022
333.857	10.6115
335.646	10.7176
337.434	11.9213
339.222	12.5164
341.008	12.2245
342.795	12.8588
344.582	13.4307
346.369	12.6883
348.153	11.8407
349.939	11.1149
351.724	11.6263
353.51	11.2292
355.292	11.4414
357.077	11.0708
358.861	10.822
360.643	9.93319
362.426	9.39844
364.21	9.73795
365.99	9.76482
367.773	10.4894
369.555	9.59001
371.335	9.14701
373.116	8.6933
374.897	8.38148
376.676	8.42546
378.456	8.15542
380.236	7.95907
382.014	6.58696
383.793	4.83628
385.57	4.38592
387.349	3.84052
389.127	3.46179
390.903	3.85421
392.681	4.12854
394.456	5.03453
396.233	3.89752
398.007	4.32742
399.784	3.56224
401.56	3.28524
403.333	3.87766
405.108	4.25436
406.881	5.25063
408.656	6.28884
410.428	5.84244
412.202	5.9126
413.973	6.15453
415.746	6.13691
417.517	5.39277
419.29	5.35838
421.06	5.51828
422.831	6.30721
424.601	7.38632
426.37	7.22977
428.141	6.51418
429.909	6.9602
431.679	7.77597
433.447	7.19078
435.216	6.77697
436.983	7.35504
438.75	7.7672
440.519	8.44855
442.285	7.39567
444.052	7.04814
445.818	6.1218
447.583	6.5458
449.349	6.61203
451.114	7.44938
452.878	8.10183
454.643	7.85474
456.407	8.3414
458.169	8.09212
459.934	8.50219
461.696	8.34821
463.458	8.71034
465.222	8.92685
466.983	9.02737
468.744	9.13559
470.507	9.19888
472.267	9.58502
474.027	9.62669
475.787	10.3665
477.548	11.7506
479.307	12.673
481.065	12.9471
482.823	13.3308
484.583	13.5598
486.341	15.2489
488.098	15.8322
489.855	16.6131
491.612	17.8572
493.37	19.0657
495.126	19.9535
496.881	19.2308
498.636	18.0544
500.391	18.45
502.148	18.2921
503.902	18.1105
505.656	19.1663
507.409	19.6858
509.162	20.2481
510.915	20.3392
512.668	19.5493
514.42	19.1064
516.174	19.8592
517.925	20.1719
519.676	20.098
521.427	19.8638
523.178	19.833
524.928	20.0657
526.678	19.18
528.427	18.9251
530.176	18.6554
531.925	19.2827
533.673	18.8357
535.422	19.4406
537.169	18.5125
538.917	18.318
540.664	17.1466
542.411	16.9673
544.157	15.9512
545.903	14.9601
547.649	14.2889
549.395	14.1518
551.14	14.6116
552.884	14.4323
554.629	14.3895
556.373	14.0152
558.117	13.7803
559.86	12.9099
561.603	12.1735
563.346	12.3618
565.089	12.9667
566.831	12.033
568.573	10.8184
570.314	10.5627
572.053	9.90412
573.794	8.55995
575.534	7.90691
577.274	6.85194
579.014	6.66409
580.754	6.47118
582.493	5.83362
584.23	5.37839
585.968	5.2895
587.706	5.83148
589.444	5.24764
591.181	5.26873
592.919	6.0159
594.653	5.90384
596.39	5.58119
598.126	5.05765
599.862	5.25503
601.595	6.2862
603.33	6.98346
605.065	7.40659
606.8	8.29921
608.532	9.09077
610.266	9.90581
611.999	10.8316
613.732	10.5955
615.463	10.6288
617.196	11.0642
618.928	10.5483
620.66	10.7412
622.389	11.4662
624.12	11.7182
625.851	12.9116
627.58	14.0174
629.31	15.8651
631.04	16.5158
632.767	18.6355
634.497	19.0176
636.223	19.7627
637.952	20.2154
639.68	20.374
641.406	21.0867
643.134	21.115
644.861	20.567
646.586	19.8215
648.312	20.1662
650.037	20.813
651.762	20.7301
653.486	20.0918
655.211	20.0601
656.936	20.7097
658.659	21.208
660.383	21.5438
662.105	22.8567
663.829	23.2746
665.55	24.094
667.273	25.1359
668.994	24.9905
670.716	25.0432
672.436	25.038
674.158	25.6615
675.877	26.4021
677.598	27.8808
679.317	28.1616
681.035	29.3699
682.755	29.7652
684.473	31.1484
686.192	31.7814
687.909	33.1053
689.628	33.5588
691.344	34.6945
693.06	35.041
694.778	36.2192
696.493	37.0224
698.211	36.5212
699.925	35.7413
701.64	36.7873
703.356	37.9831
705.07	39.2826
706.783	41.2906
708.498	42.964
710.211	43.5833
711.924	44.6124
713.638	45.0024
715.35	45.9477
717.061	46.3336
718.774	47.3852
720.485	47.2724
722.196	48.1741
723.906	49.7291
725.618	50.9359
727.328	51.7561
729.037	52.2248
730.746	52.7001
732.456	53.9578
734.165	54.439
735.873	54.8901
737.58	55.8709
739.289	56.2804
740.997	57.0546
742.703	57.8142
744.41	57.9812
746.116	58.0077
747.823	59.3904
749.529	60.4042
751.234	60.7029
752.938	61.2398
754.643	61.897
756.347	63.1139
758.051	64.5086
759.756	66.0247
761.459	67.3036
763.162	67.4468
764.865	67.5701
766.567	68.3615
768.269	68.4975
769.97	68.7551
771.671	68.7546
773.372	70.2552
775.073	70.3
776.773	71.3363
778.473	71.3098
780.174	71.6094
781.874	71.7552
783.573	72.2343
785.271	73.7824
786.97	75.6803
788.668	77.2101
790.365	78.0098
792.063	78.569
793.76	79.0353
795.456	79.0989
797.153	79.8398
798.847	80.6235
800.543	81.715
802.238	82.5781
803.933	83.3969
805.628	84.4582
807.322	85.016
809.017	86.4537
810.71	86.0961
812.404	85.9285
814.097	85.7657
815.79	86.0449
817.483	85.8216
819.173	84.7193
820.865	84.5128
822.556	84.2761
824.248	82.6791
825.939	82.8292
827.629	81.7294
829.318	81.3246
831.008	81.1621
832.697	81.0705
834.387	79.5915
836.076	78.6367
837.765	78.4185
839.451	78.0099
841.139	77.0556
842.827	75.6926
844.514	74.2079
846.2	72.9572
847.886	71.8793
849.573	70.6344
851.259	69.8698
852.943	69.2677
854.629	68.7201
856.314	67.8691
857.997	67.1521
859.682	65.2897
861.366	64.7733
863.05	63.7967
864.732	63.249
866.415	62.8577
868.098	62.4269
869.779	62.1556
871.461	61.5389
873.141	60.0476
874.823	58.6053
876.505	58.0886
878.184	56.288
879.865	55.8579
881.545	55.0144
883.223	54.3498
884.903	53.8665
886.581	54.2007
888.26	53.935
889.937	54.7411
891.616	54.1125
893.294	54.4409
894.97	54.0772
896.648	54.0711
898.323	54.746
900	55.2856
901.675	54.0663
903.351	52.8137
905.026	52.7657
906.701	52.933
908.375	52.5206
910.05	53.0169
911.723	51.8666
913.398	51.2453
915.07	50.0119
916.742	49.5796
918.415	48.2235
920.087	47.7259
921.76	47.7447
923.43	47.508
925.103	46.754
926.773	46.2278
928.443	46.2207
930.114	46.1775
931.783	45.406
933.454	44.9239
935.123	44.6792
936.791	44.1144
938.461	43.1652
940.128	41.1892
941.796	39.6488
943.464	37.7101
945.131	37.154
946.797	36.3087
948.465	35.2139
950.131	34.1543
951.797	34.2696
953.462	33.7691
955.128	32.9833
956.793	31.9548
958.457	30.833
960.121	29.0766
961.786	27.7651
963.45	28.6528
965.113	28.3264
966.775	28.7969
968.44	29.5216
970.102	30.643
971.763	31.0705
973.425	32.6139
975.086	32.6617
976.748	33.7997
978.409	34.4638
980.069	34.631
981.729	34.9798
983.388	34.3673
985.048	34.2163
986.708	34.4562
988.367	35.4909
990.025	35.5957
991.683	35.6668
993.341	34.8828
994.998	34.2483
996.655	34.9262
998.312	35.4092
999.969	35.2072
1001.62	34.4355
1003.28	35.3809
1004.94	35.7878
1006.59	35.115
1008.25	35.035
1009.9	35.0258
1011.56	35.4338
1013.21	34.9939
1014.86	35.1908
1016.52	35.1026
1018.17	33.6927
1019.82	32.3549
1021.48	30.6855
1023.13	30.4177
1024.78	30.2174
1026.43	30.3301
1028.08	30.5678
1029.73	29.8913
1031.38	29.2044
1033.03	28.8885
1034.68	28.9227
1036.33	27.5642
1037.98	26.6655
1039.63	26.077
1041.28	25.3083
1042.93	24.4046
1044.57	24.3617
1046.22	24.3453
1047.87	23.7729
1049.52	23.1694
1051.16	23.6114
1052.81	23.1456
1054.45	22.1297
1056.1	22.1394
1057.75	21.2028
1059.39	20.7502
1061.04	19.8958
1062.68	18.8638
1064.32	17.9593
1065.97	17.4677
1067.61	16.5376
1069.25	16.2404
1070.9	15.9745
1072.54	15.9739
1074.18	15.8829
1075.82	15.6626
1077.47	15.7827
1079.11	15.6702
1080.75	14.981
1082.39	14.1657
1084.03	15.669
1085.67	16.285
1087.31	16.2541
1088.95	16.1491
1090.59	16.1648
1092.22	16.0876
1093.86	16.8841
1095.5	16.3668
1097.14	16.5785
1098.78	17.4215
1100.41	17.8316
1102.05	19.0989
1103.69	20.55
1105.32	22.0248
1106.96	22.5805
1108.59	23.6509
1110.23	24.6146
1111.86	25.1367
1113.5	25.8928
1115.13	26.5708
1116.77	26.6652
1118.4	27.2051
1120.03	27.639
1121.67	27.8734
1123.3	28.0054
1124.93	28.1554
1126.56	28.1374
1128.19	28.1968
1129.83	27.1758
1131.46	27.0347
1133.09	26.8313
1134.72	25.452
1136.35	24.0715
1137.98	23.9624
1139.61	23.0939
1141.24	22.3655
1142.86	21.2797
1144.49	20.005
1146.12	19.6332
1147.75	19.084
1149.38	18.6569
1151	18.5168
1152.63	17.5225
1154.26	17.0632
1155.88	15.8049
1157.51	13.9648
1159.14	12.7747
1160.76	12.1434
1162.39	10.871
1164.01	9.49932
1165.63	8.16949
1167.26	5.58893
1168.88	4.50544
1170.51	3.70886
1172.13	2.98734
1173.75	3.23285
1175.38	2.62607
1177	1.90078
1178.62	2.58424
1180.24	3.26077
1181.86	2.32418
1183.48	3.40424
1185.1	4.12559
1186.72	4.73803
1188.34	5.99343
1189.96	6.92906
1191.58	7.90981
1193.2	8.62235
1194.82	9.25143
1196.44	11.1484
1198.06	12.1311
1199.68	14.1174
1201.29	15.4649
1202.91	16.835
1204.53	19.0956
1206.14	19.7234
1207.76	20.2518
1209.38	22.0771
1210.99	23.4076
1212.61	25.1405
1214.22	26.6071
1215.84	28.7319
1217.45	30.7167
1219.07	32.7208
1220.68	34.4807
1222.29	36.2826
1223.91	36.8818
1225.52	38.7046
1227.13	41.0556
1228.74	41.0017
1230.36	41.865
1231.97	41.6909
1233.58	43.0789
1235.19	43.8469
1236.8	44.2221
1238.41	44.7591
1240.02	45.1832
1241.63	45.3015
1243.24	45.0668
1244.85	45.4735
1246.46	45.7024
1248.07	47.2273
1249.67	48.8349
1251.28	49.2049
1252.89	49.1091
1254.5	49.4493
1256.1	49.3171
1257.71	50.0832
1259.32	50.7935
1260.92	51.9093
1262.53	52.3283
1264.13	53.6526
1265.74	54.7305
1267.34	55.2823
1268.95	56.4955
1270.55	56.7306
1272.15	57.6907
1273.76	58.7958
1275.36	59.079
1276.97	60.372
1278.57	60.493
1280.17	61.3785
1281.77	62.5311
1283.37	62.6835
1284.97	62.645
1286.58	62.848
1288.18	64.0541
1289.78	65.7065
1291.38	66.3029
1292.98	67.1208
1294.58	67.8801
1296.18	68.8523
1297.78	68.6366
1299.37	68.5622
1300.97	68.7123
1302.57	68.8977
1304.17	68.2489
1305.77	68.942
1307.36	69.1006
1308.96	69.1891
1310.55	70.356
1312.15	71.412
1313.75	72.7083
1315.34	71.1949
1316.94	70.7901
1318.53	71.3318
1320.13	70.7322
1321.72	70.8156
1323.32	70.4777
1324.91	71.1731
1326.5	71.1376
1328.1	71.7294
1329.69	70.9707
1331.28	70.2752
1332.87	69.3058
1334.47	69.1289
1336.06	69.1337
1337.65	68.8751
1339.24	69.1033
1340.83	68.428
1342.42	67.9691
1344.01	68.5818
1345.6	68.9076
1347.19	67.5881
1348.78	65.8804
1350.37	64.8959
1351.96	64.3933
1353.54	63.3362
1355.13	62.5596
1356.72	62.5634
1358.31	61.6409
1359.89	61.6123
1361.48	61.1847
1363.07	60.5463
1364.65	59.9688
1366.24	60.9834
1367.82	60.7482
1369.41	59.9556
1370.99	58.3322
1372.58	57.6955
1374.16	56.1086
1375.75	55.794
1377.33	54.9926
1378.91	54.7644
1380.5	53.9452
1382.08	53.7868
1383.66	53.1359
1385.25	53.0999
1386.83	52.8758
1388.41	53.1783
1389.99	52.6172
1391.57	51.6924
1393.15	50.0124
1394.73	48.4792
1396.31	49.1527
1397.89	49.1734
1399.47	47.9219
1401.05	48.1453
1402.63	48.1506
1404.21	48.8399
1405.78	48.0156
1407.36	48.5922
1408.94	47.9191
1410.52	48.2126
1412.1	48.1512
1413.67	49.1832
1415.25	50.11
1416.82	51.2197
1418.4	52.8976
1419.98	53.6887
1421.55	54.5697
1423.13	55.5993
1424.7	55.8486
1426.28	56.9434
1427.85	57.8042
1429.42	60.3718
1431	61.9084
1432.57	63.8787
1434.14	65.8944
1435.71	67.2356
1437.29	68.1173
1438.86	69.0903
1440.43	69.0501
1442	70.1255
1443.57	70.1538
1445.14	69.9308
1446.71	69.3189
1448.28	69.1793
1449.85	69.2715
1451.42	69.4192
1452.99	68.6745
1454.56	68.8252
1456.13	68.6332
1457.7	66.9593
1459.26	65.6084
1460.83	64.6308
1462.4	63.9954
1463.97	62.9896
1465.54	62.0561
1467.1	60.6249
1468.67	59.2205
1470.23	57.0412
1471.8	55.043
1473.36	53.4869
1474.93	52.2891
1476.49	49.7165
1478.06	47.3532
1479.62	45.7476
1481.19	44.0031
1482.75	41.9898
1484.31	39.7396
1485.88	38.3331
1487.44	36.3757
1489	35.6964
1490.56	34.0948
1492.13	33.1028
1493.69	32.0168
1495.25	30.3414
1496.81	28.2707
1498.37	26.8445
1499.93	24.8103
1501.49	24.2409
1503.05	23.395
1504.61	22.6682
1506.17	21.2522
1507.73	21.6116
1509.28	20.4729
1510.84	19.9962
1512.4	19.3947
1513.96	19.2545
1515.52	18.54
1517.07	18.0303
1518.63	18.7861
1520.19	20.1201
1521.74	20.8866
1523.3	21.2026
1524.85	22.503
1526.41	23.5822
1527.96	24.4023
1529.52	25.8718
1531.07	27.3293
1532.63	29.0767
1534.18	30.7505
1535.73	31.7352
1537.29	34.696
1538.84	37.5778
1540.39	39.9235
1541.94	41.3638
1543.5	43.3989
1545.05	45.4071
1546.6	47.6446
1548.15	48.5681
1549.7	50.3927
1551.25	53.1465
1552.8	55.1416
1554.35	57.6386
1555.9	60.643
1557.45	62.5742
1559	64.4198
1560.55	66.1692
1562.1	67.9533
1563.65	68.7641
1565.19	69.2477
1566.74	70.5809
1568.29	71.1697
1569.83	72.2998
1571.38	73.3331
1572.93	73.6569
1574.47	74.4634
1576.02	75.1587
1577.56	74.9205
1579.11	75.4943
1580.66	75.9916
1582.2	75.8607
1583.74	76.6305
1585.29	77.1778
1586.83	76.4987
1588.38	76.4459
1589.92	76.625
1591.46	76.6982
1593.01	76.1245
1594.55	75.8825
1596.09	75.7021
1597.63	75.2659
1599.17	74.0859
1600.71	73.1044
1602.25	72.4706
1603.79	71.3248
1605.34	71.0532
1606.88	70.6371
1608.41	69.5438
1609.95	69.1386
1611.49	68.4605
1613.03	67.3523
1614.57	67.8065
1616.11	66.4771
1617.65	65.3242
1619.18	64.7282
1620.72	64.2252
1622.26	64.0419
1623.79	64.2255
1625.33	63.9737
1626.87	63.9226
1628.4	64.2601
1629.94	64.2829
1631.48	64.8455
1633.01	64.2449
1634.55	63.8662
1636.08	63.7331
1637.61	64.0994
1639.15	64.4481
1640.68	64.5479
1642.21	65.8636
1643.75	67.6353
1645.28	68.3508
1646.81	68.9713
1648.34	69.1338
1649.88	69.1797
1651.41	70.6439
1652.94	71.0532
1654.47	71.3422
1656	71.498
1657.53	71.7521
1659.06	71.8477
1660.59	72.0612
1662.12	71.5464
1663.65	70.8897
1665.18	70.9559
1666.71	70.2555
1668.24	69.4159
1669.76	68.3532
1671.29	67.2005
1672.82	66.1096
1674.35	64.1844
1675.87	61.6282
1677.4	60.2913
1678.93	57.5762
1680.45	55.0114
1681.98	53.1955
1683.5	50.6535
1685.03	48.8466
1686.55	46.4039
1688.08	43.7086
1689.6	41.749
1691.13	40.1546
1692.65	36.4396
1694.17	33.9066
1695.7	31.5728
1697.22	29.3283
1698.74	27.0853
1700.27	24.1676
1701.79	21.6592
1703.31	19.9148
1704.83	18.823
1706.35	17.3152
1707.87	16.1976
1709.39	14.8864
1710.91	13.8997
1712.43	13.3515
1713.95	13.0106
1715.47	12.4351
1716.99	11.5396
1718.51	11.2112
1720.03	10.92
1721.55	10.1897
1723.07	9.93294
1724.58	9.66362
1726.1	9.80153
1727.62	9.8643
1729.13	9.55432
1730.65	9.81267
1732.17	10.1761
1733.68	10.6807
1735.2	11.0886
1736.72	11.1777
1738.23	10.8791
1739.74	10.8831
1741.26	10.5318
1742.77	9.50489
1744.29	9.29198
1745.8	8.62428
1747.32	7.92423
1748.83	7.3546
1750.34	6.34054
1751.85	6.4559
1753.37	6.40095
1754.88	5.90667
1756.39	5.52269
1757.9	5.328
1759.41	5.3732
1760.92	5.03055
1762.44	4.12897
1763.95	4.24153
1765.46	4.14298
1766.96	3.4145
1768.47	2.39377
1769.98	2.52767
1771.49	2.19827
1773	1.74581
1774.51	1.25953
1776.02	1.29745
1777.53	1.39703
1779.03	1.45549
1780.54	1.45596
1782.05	1.29898
1783.55	1.60125
1785.06	1.34146
1786.57	1.40275
1788.07	1.26075
1789.58	1.26349
1791.08	1.85561
1792.59	2.20503
1794.09	2.71201
1795.6	3.66698
1797.1	3.89956
1798.61	4.06709
1800.11	4.07223
1801.61	4.17139
1803.12	4.35182
1804.62	4.89492
1806.12	4.64422
1807.62	4.25825
1809.12	4.51294
1810.63	4.67401
1812.13	4.46954
1813.63	4.29412
1815.13	4.29905
1816.63	3.66361
1818.13	4.02286
1819.63	4.4468
1821.13	4.64912
1822.63	5.03101
1824.13	5.08315
1825.63	5.40477
1827.13	5.96523
1828.62	5.98064
1830.12	6.36763
1831.62	6.24964
1833.12	6.17985
1834.61	6.38864
1836.11	6.22542
1837.61	6.4423
1839.1	6.41495
1840.6	6.06555
1842.09	5.5485
1843.59	5.33233
1845.09	4.82387
1846.58	4.33208
1848.08	3.96892
1849.57	3.48184
1851.06	3.64225
1852.56	3.631
1854.05	4.18841
1855.54	3.97301
1857.04	3.88802
1858.53	3.5808
1860.02	3.64796
1861.51	4.01501
1863.01	4.12332
1864.5	4.66823
1865.99	4.60118
1867.48	5.05326
1868.97	5.22186
1870.46	5.73956
1871.95	4.70379
1873.44	4.35531
1874.93	4.27652
1876.42	4.25306
1877.91	4.23828
1879.4	4.39427
1880.89	4.42745
1882.37	4.72654
1882.46	4.96277
1883.95	4.84537
1885.45	4.31641
1886.94	3.92478
1888.43	3.70625
1889.93	3.80566
1891.42	4.51828
1892.91	4.43537
1894.41	4.32738
1895.9	4.26173
1897.39	4.03304
1898.88	4.49143
1900.37	4.16613
1901.86	4.12589
1903.36	3.91735
1904.85	3.5875
1906.34	3.31338
1907.83	3.3463
1909.32	2.87392
1910.81	2.91745
1912.29	3.33819
1913.78	3.20513
1915.27	2.96286
1916.76	3.06153
1918.25	2.99405
1919.74	2.49049
1921.23	2.95419
1922.71	3.68497
1924.2	4.39687
1925.69	4.37941
1927.17	4.2301
1928.66	4.03688
1930.15	4.64608
1931.63	4.44199
1933.12	4.82638
1934.6	5.21553
1936.09	5.3592
1937.57	5.82069
1939.06	6.34406
1940.54	6.82226
1942.02	6.83469
1943.51	7.30343
1944.99	6.55169
1946.47	6.80854
1947.96	6.45916
1949.44	6.24493
1950.92	5.62936
1952.4	5.30752
1953.88	5.11802
1955.37	4.56882
1956.85	4.22317
1958.33	3.94162
1959.81	3.84545
1961.29	3.40512
1962.77	3.24444
1964.25	2.96551
1965.73	2.60303
1967.21	2.2815
1968.69	2.27599
1970.16	2.12109
1971.64	1.73495
1973.12	1.73449
1974.6	1.48156
1976.08	1.36428
1977.55	1.40955
1979.03	1.90259
1980.51	1.72781
1981.98	1.95796
1983.46	2.31762
1984.94	2.75765
1986.41	2.99592
1987.89	3.18231
1989.36	3.46882
1990.84	4.16914
1992.31	4.10257
1993.79	4.0702
1995.26	5.21968
1996.73	5.27636
1998.21	5.39914
1999.68	5.79295
2001.15	6.17786
2002.63	6.61663
2004.1	7.38461
2005.57	7.07153
2007.04	7.25416
2008.51	7.45971
2009.99	7.60633
2011.46	7.8312
2012.93	8.37377
2014.4	8.51258
2015.87	8.08263
2017.34	7.69597
2018.81	6.32197
2020.28	6.0586
2021.75	5.9075
2023.21	5.8026
2024.68	5.72479
2026.15	5.54142
2027.62	5.60528
2029.09	4.96077
2030.56	4.96834
2032.02	5.17063
2033.49	5.13614
2034.96	4.57172
2036.42	4.25656
2037.89	3.58693
2039.36	3.77693
2040.82	3.75063
2042.29	3.66276
2043.75	3.66062
2045.22	3.35754
2046.68	3.59522
2048.14	3.95121
2049.61	4.19349
2051.07	4.67231
2052.54	4.37136
2054	3.44947
2055.46	4.43429
2056.93	4.6583
2058.39	4.93443
2059.85	5.46315
2061.31	5.56316
2062.77	5.25955
2064.23	5.37598
2065.7	5.51387
2067.16	6.02648
2068.62	6.15266
2070.08	5.67381
2071.54	5.89329
2073	6.10502
2074.46	6.34936
2075.92	6.54253
2077.38	7.2934
2078.83	7.329
2080.29	7.29849
2081.75	7.72599
2083.21	8.62302
2084.67	8.98851
2086.12	9.84374
2087.58	9.12914
2089.04	8.23235
2090.49	8.59945
2091.95	8.14121
2093.41	9.12738
2094.86	9.85611
2096.32	10.3206
2097.77	10.2541
2099.23	10.0658
2100.68	10.5076
2102.14	10.7037
2103.59	11.4569
2105.05	11.8126
2106.5	11.5702
2107.95	11.3744
2109.41	11.4908
2110.86	12.063
2112.31	13.1671
2113.76	13.6627
2115.21	14.4707
2116.67	15.2612
2118.12	15.8817
2119.57	16.4088
2121.02	17.1003
2122.47	17.6669
2123.92	18.0839
2125.37	18.2604
2126.82	18.6243
2128.27	19.9343
2129.72	20.3893
2131.17	20.5813
2132.62	20.8069
2134.07	20.7301
2135.51	21.5424
2136.96	22.5325
2138.41	23.3266
2139.86	23.7961
2141.31	24.0909
2142.75	25.0026
2144.2	25.8572
2145.65	27.0995
2147.09	28.2528
2148.54	28.966
2149.98	29.9303
2151.43	30.789
2152.87	30.9907
2154.32	32.4368
2155.76	33.3801
2157.21	33.5496
2158.65	34.1711
2160.1	34.3163
2161.54	34.7656
2162.98	35.8131
2164.43	36.1461
2165.87	37.4003
2167.31	37.6536
2168.75	37.4287
2170.2	37.2949
2171.64	37.5684
2173.08	37.9402
2174.52	37.9967
2175.96	37.9808
2177.4	37.5887
2178.84	37.6307
2180.28	37.5084
2181.72	37.8406
2183.16	37.7133
2184.6	37.7064
2186.04	37.6016
2187.48	36.97
2188.92	36.0935
2190.36	35.4197
2191.79	34.5057
2193.23	34.3805
2194.67	34.0172
2196.11	33.2433
2197.54	32.3422
2198.98	31.6646
2200.42	30.7406
2201.85	29.7606
2203.29	29.115
2204.72	28.3223
2206.16	27.3103
2207.59	26.8919
2209.03	25.8525
2210.46	24.5445
2211.9	23.7893
2213.33	22.7734
2214.77	21.9283
2216.2	20.8324
2217.63	20.1325
2219.07	18.9081
2220.5	18.2986
2221.93	17.956
2223.36	17.508
2224.8	16.528
2226.23	16.1362
2227.66	15.562
2229.09	15.5003
2230.52	15.3171
2231.95	14.82
2233.39	14.287
2234.81	13.5108
2236.25	13.1609
2237.67	12.9228
2239.1	12.4262
2240.53	12.2473
2241.96	11.5394
2243.39	11.3331
2244.82	11.0139
2246.25	10.9744
2247.68	10.789
2249.1	10.3806
2250.53	10.4445
2251.96	9.92358
2253.38	10.095
2254.81	9.76526
2256.24	9.93984
2257.66	9.649
2259.09	9.32863
2260.51	9.75604
2261.94	10.2693
2263.36	10.3787
2264.79	10.8235
2266.21	10.452
2267.64	10.2637
2269.06	10.3174
2270.49	9.52762
2271.91	9.08525
2273.33	9.14442
2274.76	8.8978
2276.18	7.96926
2277.6	7.70644
2279.02	7.78744
2280.44	7.18128
2281.87	6.86658
2283.29	6.47689
2284.71	5.22319
2286.13	4.3176
2287.55	4.03943
2288.97	3.62324
2290.39	3.42837
2291.81	3.5427
2293.23	3.29382
2294.65	3.13858
2296.07	3.49825
2297.49	3.73528
2298.91	3.93785
2300.33	3.86637
2301.74	3.59441
2303.16	3.82892
2304.58	3.82108
2306	3.44819
2307.41	4.2778
2308.83	4.17425
2310.25	4.10892
2311.66	3.75778
2313.08	3.40269
2314.5	4.23149
2315.91	4.71754
2317.33	4.5543
2318.74	5.15322
2320.16	5.3451
2321.57	5.64081
2322.98	6.40196
2324.4	7.35728
2325.81	7.61052
2327.23	7.85279
2328.64	8.41102
2330.05	8.59052
2331.46	8.82155
2332.88	8.84619
2334.29	9.03725
2335.7	8.75787
2337.11	8.37871
2338.52	8.2985
2339.94	7.8719
2341.35	7.28134
2342.76	7.47451
2344.17	6.94348
2345.58	7.00834
2346.99	6.4647
2348.4	6.32384
2349.81	6.14113
2351.22	5.31189
2352.62	4.77707
2354.03	3.77132
2355.44	3.20217
2356.85	3.22457
2358.26	2.85068
2359.67	2.09187
2361.07	1.74226
2362.48	1.75688
2363.89	1.17508
2365.29	0.91653
2366.7	0.796902
2368.11	0.798643
2369.51	0.465835
2370.92	0.641044
2372.32	0.432556
2373.73	0.553102
2375.13	0.496102
2376.54	0.350201
2377.94	0.321983
2379.35	-0.147303
2380.75	0.180364
2382.15	0.716937
2383.56	1.16009
2384.96	1.58431
2386.36	1.34808
2387.76	0.992786
2389.17	1.51012
2390.57	1.49887
2391.97	1.72095
2393.37	2.34248
2394.77	2.53747
2396.17	2.51008
2397.58	2.47881
2398.98	2.8492
2400.38	2.84535
2401.78	2.99812
2403.18	3.24019
2404.58	3.61804
2405.97	3.35997
2407.37	3.69796
2408.77	4.10202
2410.17	4.32349
2411.57	4.41215
2412.97	4.68266
2414.37	4.69126
2415.76	5.37829
2417.16	5.14803
2418.56	5.91442
2419.95	6.30461
2421.35	5.47678
2422.75	5.37943
2424.14	5.51362
2425.54	5.5529
2426.93	5.92902
2428.33	5.37828
2429.72	5.51978
2431.12	6.17303
2432.51	6.03686
2433.91	6.44104
2435.3	6.74058
2436.7	6.80696
2438.09	7.19364
2439.48	6.32572
2440.88	5.65246
2442.27	5.84145
2443.66	5.74149
2445.05	5.42598
2446.44	5.18383
2447.84	5.14602
2449.23	5.34185
2450.62	4.85889
2452.01	4.40624
2453.4	4.22887
2454.79	3.5478
2456.18	3.07966
2457.57	2.71267
2458.96	2.73864
2460.35	2.9194
2461.74	2.80973
2463.13	3.04892
2464.52	2.84981
2465.91	2.31017
2467.29	2.47221
2468.68	2.89582
2470.07	2.84122
2471.46	2.75054
2472.85	3.16735
2474.23	2.8325
2475.62	2.55616
2477.01	2.96552
2478.39	3.14075
2479.78	3.29619
2481.16	3.48034
2482.55	3.8099
2483.93	3.9433
2485.32	4.14393
2486.7	4.08033
2488.09	4.76027
2489.47	4.33425
2490.86	4.43463
2492.24	4.89246
2493.62	4.98012
2495.01	4.88718
2496.39	5.08315
2497.77	4.63217
2499.15	5.03653
2500.54	5.14901
2501.92	4.46576
2503.3	4.04207
2504.68	3.32372
2506.06	3.38179
2507.45	2.93668
2508.83	2.05715
2510.21	1.78732
2511.59	2.13813
2512.97	1.85976
2514.35	1.98327
2515.73	1.86496
2517.11	1.77492
2518.48	1.83854
2519.86	1.46191
2521.24	1.92336
2522.62	2.59543
2524	2.33338
2525.38	2.24508
2526.75	2.50894
2528.13	3.37965
2529.51	3.70399
2530.89	3.57197
2532.26	3.43295
2533.64	3.68264
2535.02	4.07798
2536.39	3.98628
2537.77	3.73009
2539.14	3.24717
2540.52	3.63451
2541.89	3.82766
2543.27	3.50246
2544.64	4.13251
2546.01	4.49712
2547.39	4.63323
2548.76	4.64894
2550.14	4.51501
2551.51	4.52464
2552.88	4.43807
2554.25	4.30699
2555.63	4.34678
2557	4.44813
2558.37	4.35427
2559.74	4.99288
2561.11	4.89822
2562.49	4.67382
2563.86	4.74008
2565.23	4.43206
2566.6	4.24574
2567.97	4.419
2569.34	4.12173
2570.71	4.2005
2572.08	3.89829
2573.45	3.93578
2574.82	3.48494
2576.18	2.77143
2577.55	2.91685
2578.92	2.97477
2580.29	3.72597
2581.66	4.00218
2583.02	3.87725
2584.39	4.10659
2585.76	4.8251
2587.13	4.74951
2588.49	4.48768
2589.86	4.6223
2591.22	4.70838
2592.59	4.38988
2593.96	4.04269
2595.32	4.69648
2596.69	4.77535
2598.05	4.48389
2599.42	4.26523
2600.78	4.38374
2602.14	4.64698
2603.51	4.61413
2604.87	4.55027
2606.23	5.15729
2607.6	5.1536
2608.96	5.9301
2610.32	6.60806
2611.69	6.71965
2613.05	6.68623
2614.41	7.06936
2615.77	7.28225
2617.13	7.36019
2618.49	7.64716
2619.86	7.78991
2621.22	8.30644
2622.58	8.48036
2623.94	8.85938
2625.3	9.13582
2626.66	9.2944
2628.02	9.57608
2629.37	9.35085
2630.73	8.9123
2632.09	9.11971
2633.45	9.63208
2634.81	10.1903
2636.17	10.6595
2637.53	10.447
2638.88	10.6727
2640.24	10.2834
2641.6	9.86994
2642.96	9.53051
2644.31	9.63929
2645.67	9.5763
2647.02	9.11387
2648.38	9.67855
2649.74	8.96142
2651.09	8.70796
2652.45	8.36044
2653.8	7.88194
2655.16	7.12772
2656.51	6.63649
2657.86	6.80566
2659.22	6.96916
2660.57	6.88716
2661.93	6.97788
2663.28	7.83668
2664.63	7.57369
2665.98	7.92611
2667.34	8.10114
2668.69	8.10122
2670.04	7.97089
2671.39	7.74847
2672.75	7.32752
2674.09	6.88797
2675.45	6.4502
2676.8	6.92924
2678.15	7.19068
2679.5	6.68716
2680.85	6.90698
2682.2	7.17664
2683.55	7.10127
2684.9	6.68439
2686.25	6.5945
2687.6	6.57527
2688.94	6.56246
2690.29	6.37847
2691.64	6.35234
2692.99	6.3444
2694.34	6.33469
2695.68	7.11622
2697.03	7.12579
2698.38	7.22286
2699.73	8.1165
2701.07	9.0786
2702.42	9.19852
2703.76	9.27416
2705.11	9.66995
2706.45	9.6803
2707.8	9.78993
2709.15	9.70973
2710.49	9.76191
2711.83	10.4072
2713.18	10.3891
2714.52	10.681
2715.87	11.9381
2717.21	11.8614
2718.55	12.0367
2719.9	11.9002
2721.24	12.4584
2722.58	13.2013
2723.93	13.162
2725.27	13.8783
2726.61	13.8357
2727.95	13.9509
2729.29	14.3412
2730.63	14.2705
2731.98	13.6146
2733.32	13.4059
2734.66	12.7572
2736	12.1189
2737.34	11.319
2738.68	10.5632
2740.02	10.005
2741.36	9.80179
2742.7	9.65717
2744.03	9.68466
2745.37	9.27774
2746.71	8.24076
2748.05	7.59647
2749.39	6.2712
2750.72	5.57367
2752.06	5.09087
2753.4	4.69499
2754.74	4.33741
2756.07	3.71301
2757.41	3.40348
2758.75	2.42542
2760.08	2.41405
2761.42	2.15116
2762.76	2.04399
2764.09	1.49175
2765.42	0.98723
2766.76	1.4718
2768.09	1.61968
2769.43	1.92211
2770.76	1.76047
2772.1	2.02599
2773.43	1.41116
2774.76	1.72928
2776.1	1.63389
2777.43	1.42864
2778.76	1.5848
2780.1	1.20841
2781.43	1.79479
2782.76	2.09356
2784.09	1.46927
2785.42	1.08722
2786.75	1.12177
2788.09	1.70035
2789.42	1.76389
2790.75	1.22661
2792.08	1.35017
2793.41	1.5628
2794.74	2.14348
2796.07	1.75034
2797.4	1.62403
2798.73	1.39277
2800.06	1.12822
2801.39	0.651356
2802.71	0.609054
2804.04	-0.0085125
2805.37	-0.379396
2806.7	-0.43029
2808.03	-0.567437
2809.35	-0.703875
2810.68	-0.815556
2812.01	-1.05629
2813.33	-1.63501
2814.66	-1.81244
2815.99	-1.98514
2817.31	-1.61923
2818.64	-1.26883
2819.96	-1.07238
2821.29	-0.598013
2822.61	0.0360727
2823.94	1.04353
2825.26	2.23504
2826.59	4.40866
2827.91	5.94767
2829.23	7.73166
2830.56	9.48081
2831.88	11.2748
2833.21	14.0235
2834.53	16.2238
2835.85	18.2607
2837.17	19.8712
2838.5	22.3068
2839.82	24.3338
2841.14	27.4358
2842.46	29.8605
2843.78	33.083
2845.1	36.0168
2846.42	39.5717
2847.74	43.6585
2849.06	46.8915
2850.38	50.09
2851.71	54.2987
2853.03	58.3637
2854.34	62.9495
2855.66	66.5794
2856.98	70.2298
2858.3	74.4807
2859.62	78.3587
2860.94	81.4617
2862.26	83.4845
2863.57	87.2399
2864.89	89.846
2866.21	92.559
2867.53	95.0687
2868.84	97.7118
2870.16	99.7928
2871.48	102.02
2872.79	104.194
2874.11	106.071
2875.42	107.876
2876.74	109.91
2878.05	111.732
2879.37	113.313
2880.68	114.912
2882	116.956
2883.31	118.662
2884.63	119.992
2885.94	122.08
2887.26	123.509
2888.57	125.489
2889.88	127.418
2891.19	129.422
2892.51	131.268
2893.82	133.019
2895.13	134.651
2896.44	137.053
2897.76	139.57
2899.07	142.277
2900.38	144.814
2901.69	147.412
2903	150.875
2904.31	154.41
2905.62	157.837
2906.93	162.238
2908.24	165.799
2909.55	169.947
2910.86	173.885
2912.17	178.423
2913.48	183.019
2914.79	187.186
2916.1	191.369
2917.41	195.695
2918.71	199.079
2920.02	202.198
2921.33	205.374
2922.64	207.925
2923.94	209.957
2925.25	211.692
2926.56	212.867
2927.86	213.877
2929.17	214.853
2930.48	214.489
2931.78	214.078
2933.09	213.704
2934.39	213.408
2935.7	212.061
2937	210.536
2938.31	208.913
2939.61	206.981
2940.92	204.509
2942.22	202.107
2943.53	198.741
2944.83	195.359
2946.13	191.586
2947.43	188.021
2948.74	183.806
2950.04	179.622
2951.34	176.028
2952.64	171.298
2953.95	167.625
2955.25	163.655
2956.55	159.01
2957.85	154.963
2959.15	150.728
2960.45	146.662
2961.75	142.911
2963.05	138.971
2964.35	135.084
2965.65	131.501
2966.95	127.866
2968.25	124.842
2969.55	120.931
2970.85	117.543
2972.15	114.409
2973.45	110.717
2974.75	107.456
2976.05	104.73
2977.34	101.595
2978.64	98.0629
2979.94	94.3029
2981.24	90.4726
2982.53	87.0888
2983.83	83.5803
2985.13	80.0259
2986.42	76.9051
2987.72	72.6594
2989.01	69.1045
2990.31	65.5977
2991.61	61.6922
2992.9	57.5936
2994.19	54.3183
2995.49	51.2831
2996.78	48.4432
2998.08	45.1707
2999.37	41.9598
3000.67	38.5305
3001.96	35.1877
3003.25	32.0867
3004.55	29.269
3005.84	26.7658
3007.13	24.4934
3008.42	22.4446
3009.72	20.5646
3011.01	18.0641
3012.3	16.5147
3013.59	14.4917
3014.88	12.8392
3016.17	11.4326
3017.46	9.53244
3018.76	8.60269
3020.05	7.5655
3021.34	6.38743
3022.63	6.14475
3023.92	5.3749
3025.21	4.92822
3026.49	4.26134
3027.78	4.2952
3029.07	4.34147
3030.36	4.77164
3031.65	4.76084
3032.94	4.72536
3034.23	4.70127
3035.51	5.34892
3036.8	6.21767
3038.09	6.61286
3039.38	7.7092
3040.66	8.47495
3041.95	9.17082
3043.23	9.84378
3044.52	10.6194
3045.81	10.7379
3047.09	11.6175
3048.38	11.9703
3049.66	12.6582
3050.95	13.1568
3052.23	13.386
3053.52	13.8622
3054.8	13.8787
3056.09	13.6697
3057.37	13.6962
3058.65	14.0853
3059.94	13.843
3061.22	13.5665
3062.5	12.8255
3063.79	12.5735
3065.07	12.0118
3066.35	11.4211
3067.63	11.4762
3068.92	11.2262
3070.2	10.834
3071.48	9.73174
3072.76	8.99822
3074.04	7.85983
3075.32	6.80356
3076.6	6.05961
3077.88	5.0493
3079.16	4.46581
3080.44	3.64677
3081.72	3.02191
3083	2.38406
3084.28	1.70412
3085.56	1.01236
3086.84	0.4613
3088.12	-0.261611
3089.4	-0.444653
3090.67	0.132278
3091.95	0.499905
3093.23	0.609979
3094.51	0.824064
3095.78	0.236571
3097.06	0.605287
3098.34	0.888996
3099.61	1.72082
3100.89	2.22332
3102.17	2.65636
3103.44	3.36427
3104.72	3.14072
3105.99	3.46798
3107.27	3.58592
3108.54	3.55679
3109.82	3.9468
3111.09	5.45423
3112.37	6.20555
3113.64	7.06945
3114.92	7.67641
3116.19	8.36156
3117.46	9.13592
3118.74	9.64661
3120.01	10.2901
3121.28	11.2044
3122.55	11.8119
3123.83	12.5999
3125.1	13.0144
3126.37	13.7563
3127.64	14.3358
3128.91	15.0777
3130.19	15.7877
3131.46	16.1266
3132.73	16.5838
3134	17.278
3135.27	17.5344
3136.54	18.4624
3137.81	19.0388
3139.08	19.5963
3140.35	20.2041
3141.62	20.9135
3142.89	21.4697
3144.16	22.082
3145.42	22.6827
3146.69	23.4947
3147.96	23.7227
3149.23	23.7517
