#Acq. time (s)=	45
#Accumulations=	2
#Range (cm-¹)=	200...3150
#Windows=	2
#Auto scanning=	Off
#Autofocus=	Off
#Macrospot=	Off
#AutoExposure=	Off
#Spike filter=	Multiple accum.
#Delay time (s)=	0
#Binning=	1
#Readout mode=	Signal
#DeNoise=	Off
#ICS correction=	On
#Dark correction=	Off
#Inst. Process=	Off
#Detector Gain=	Best Dynamic Range
#Detector ADC=	20 kHz       
#Detector temperature (°C)=	-69.85
#Instrument=	LabRAM HR Evol
#Detector=	Synapse
#Objective=	x100
#Grating=	600 gr/mm
#ND Filter=	100%
#Laser (nm)=	532 
#Hole=	100.021
#Range=	Auto
#Laser Pol.=	No
#Raman. Pol.=	No
#Laser Pol. (°)=	-0.0007625
#Raman Pol. (°)=	89.9995
#Collection=	Microscope
#StageXY=	Marzhauser
#StageZ=	Marzhauser
#X (µm)=	-5136.3
#Y (µm)=	1516.5
#Z (µm)=	63.7
#Full time(mm:ss)=	3:18
#Project=	
#Sample=	
#Site=	
#Title=	Thy_50_12_34_2x_45s_532 nm_x100_100%_600 gr_mm
#Remark=	
#Date=	07.07.2022 11:43
#Acquired=	07.07.2022 11:43:54
#Base:Fit=	10.08.2022 10:04:30
#Base:Sub=	10.08.2022 10:04:45
#Filter:Polynom=	16.08.2022 10:20:25
#AxisType[0]=Intens
#AxisUnit[0]=Cnt
#AxisType[1]=Spectr
#AxisUnit[1]=1/cm
200.43	25.1671
202.246	24.3798
204.061	25.5678
205.875	25.7954
207.688	25.1608
209.501	24.2783
211.316	23.4328
213.129	22.195
214.941	20.7458
216.753	19.4134
218.566	18.0734
220.377	16.7625
222.188	15.8095
223.999	15.7984
225.809	14.1336
227.618	13.6073
229.43	13.0793
231.239	13.3905
233.047	12.4831
234.855	12.3903
236.663	12.3491
238.471	12.3082
240.278	12.4333
242.087	11.8923
243.894	12.2088
245.7	11.6666
247.506	10.6545
249.311	9.69442
251.116	10.144
252.921	9.5322
254.725	9.25887
256.529	8.74831
258.333	8.64817
260.136	10.2433
261.939	11.4343
263.744	12.2407
265.546	11.9542
267.348	12.1933
269.15	11.9886
270.951	12.4003
272.752	13.0241
274.552	14.8098
276.353	15.4214
278.152	15.7797
279.952	15.1726
281.751	15.5379
283.55	15.7709
285.348	16.3201
287.146	15.9837
288.942	15.5876
290.739	15.675
292.536	15.3116
294.333	14.8062
296.129	15.0672
297.925	15.523
299.721	15.77
301.516	14.9132
303.311	14.6032
305.106	14.6222
306.9	14.9222
308.694	14.5142
310.486	14.3674
312.279	14.7031
314.072	15.0217
315.864	14.4599
317.656	15.2539
319.448	15.48
321.24	15.1567
323.029	14.8153
324.819	14.9985
326.61	15.0461
328.4	15.2542
330.19	15.5891
331.977	15.9829
333.766	15.6348
335.555	14.3681
337.343	13.3244
339.131	13.7232
340.917	14.049
342.704	13.3331
344.491	12.9437
346.277	12.0867
348.062	11.1591
349.848	10.3021
351.633	9.90927
353.416	9.79666
355.201	9.6243
356.986	9.0265
358.77	8.73811
360.552	9.48516
362.335	9.66132
364.118	9.40565
365.899	9.90581
367.682	9.04786
369.464	9.06373
371.243	9.29646
373.025	8.48979
374.806	7.4815
376.585	6.7969
378.365	6.25523
380.143	5.8972
381.923	5.74626
383.702	6.36447
385.479	6.06508
387.258	6.34056
389.034	5.267
390.812	4.30442
392.59	5.57435
394.365	5.40735
396.142	4.95261
397.916	3.94395
399.693	3.15503
401.467	3.9919
403.242	4.04911
405.015	4.76897
406.79	5.46234
408.565	6.04168
410.337	6.20799
412.111	6.92497
413.882	7.61165
415.656	9.29725
417.426	9.486
419.197	9.33353
420.969	9.31363
422.739	8.55351
424.51	9.2123
426.279	10.4105
428.05	11.1859
429.819	11.2251
431.589	11.6673
433.356	11.2117
435.124	10.681
436.893	11.7446
438.66	12.2166
440.428	13.4798
442.194	13.8694
443.96	12.9965
445.727	13.552
447.492	14.0819
449.259	15.0512
451.023	15.458
452.787	15.3505
454.553	15.4401
456.316	15.2742
458.079	15.9919
459.844	14.8316
461.606	14.961
463.368	14.9593
465.132	15.5023
466.893	15.9886
468.654	16.3553
470.415	16.8041
472.177	17.2319
473.937	18.0046
475.696	18.3765
477.456	17.0476
479.217	17.9431
480.975	18.8324
482.733	17.348
484.491	17.086
486.251	17.0801
488.008	17.9909
489.765	19.7342
491.522	20.0629
493.278	20.7277
495.036	21.2233
496.791	21.5946
498.546	21.8758
500.301	23.0821
502.056	23.5807
503.81	24.1742
505.566	24.0658
507.319	24.9082
509.073	26.1175
510.825	26.0797
512.578	26.451
514.33	26.1242
516.082	24.7404
517.833	25.0906
519.587	24.4792
521.337	23.6527
523.088	22.9824
524.838	24.2379
526.588	24.2108
528.337	24.579
530.087	24.6687
531.835	25.0535
533.584	26.347
535.332	26.2965
537.08	27.1212
538.827	26.1403
540.574	26.1117
542.321	26.4271
544.068	25.3599
545.814	25.1733
547.56	25.0624
549.305	25.7681
551.05	25.3935
552.795	25.5076
554.54	25.9541
556.284	25.7616
558.027	25.9226
559.771	24.856
561.514	24.9098
563.257	23.2712
564.999	22.694
566.742	22.9968
568.481	22.3221
570.223	22.0509
571.964	23.2717
573.705	23.1602
575.445	23.4137
577.185	23.2061
578.925	22.802
580.665	21.6562
582.402	20.8623
584.141	20.2892
585.879	19.7274
587.617	19.4013
589.355	18.0345
591.092	16.5996
592.828	15.5815
594.564	14.4059
596.301	14.4705
598.037	13.0049
599.773	12.6356
601.506	11.8045
603.242	11.6776
604.976	11.8179
606.711	11.7232
608.443	11.8889
610.177	12.6869
611.91	13.3203
613.644	13.8082
615.374	13.4428
617.107	13.3088
618.839	14.0499
620.569	14.3821
622.3	14.2114
624.032	14.3815
625.761	14.8338
627.491	15.6961
629.221	15.2169
630.949	15.2637
632.679	17.1303
634.408	17.5284
636.135	18.1558
637.863	17.9536
639.592	19.5678
641.318	20.9031
643.045	22.0144
644.77	22.8395
646.497	23.7666
648.224	24.4675
649.948	24.9254
651.674	26.9428
653.398	27.8305
655.123	28.9351
656.846	30.028
658.57	29.763
660.293	30.5596
662.017	30.8931
663.738	30.1341
665.462	29.7496
667.185	29.6138
668.905	30.4081
670.628	31.8228
672.348	31.5016
674.067	31.9153
675.789	30.9752
677.508	31.7143
679.228	34.1111
680.947	35.4037
682.667	35.6637
684.385	36.2183
686.104	36.826
687.821	37.8442
689.538	38.3157
691.256	38.252
692.972	39.6011
694.69	40.6711
696.406	41.0568
698.121	41.7869
699.837	41.7087
701.552	40.952
703.268	41.151
704.982	41.8953
706.695	42.4362
708.41	43.6014
710.123	45.1619
711.836	46.0027
713.55	46.7061
715.262	47.916
716.973	49.623
718.685	51.4624
720.398	51.5313
722.108	53.7598
723.818	54.766
725.53	56.8055
727.24	57.9562
728.949	58.0115
730.658	58.0786
732.369	58.58
734.077	58.0772
735.785	59.5614
737.493	60.5232
739.2	61.1683
740.909	61.805
742.616	61.6986
744.322	62.0096
746.028	63.8351
747.734	63.9829
749.441	65.0303
751.146	66.8521
752.851	68.7085
754.555	70.3155
756.26	71.0458
757.963	71.4398
759.667	73.2539
761.372	74.6449
763.075	76.537
764.777	77.7932
766.479	78.3898
768.181	78.717
769.883	79.2462
771.584	79.5034
773.285	80.0479
774.986	80.5874
776.686	81.0371
778.386	81.9037
780.085	81.8069
781.785	81.0788
783.484	81.8289
785.182	81.2483
786.881	83.4127
788.579	84.7989
790.276	85.3973
791.974	86.864
793.671	88.2646
795.367	88.7441
797.064	89.0099
798.76	90.755
800.456	91.2516
802.151	91.0903
803.846	92.3227
805.541	92.8444
807.236	93.8976
808.93	93.377
810.624	92.9174
812.317	92.6573
814.01	91.1622
815.703	91.3639
817.394	91.4802
819.086	91.3092
820.778	92.3858
822.47	92.4087
824.161	91.8446
825.852	91.3423
827.543	91.6359
829.231	92.2529
830.921	92.5619
832.611	92.704
834.3	92.7144
835.989	91.5768
837.676	90.3673
839.364	89.0823
841.053	87.9661
842.74	87.4325
844.426	86.9365
846.113	86.2864
847.8	84.453
849.486	83.3077
851.171	81.912
852.857	80.3806
854.542	79.0742
856.227	78.9872
857.911	77.0146
859.595	75.6266
861.279	74.3767
862.961	73.8743
864.645	72.8761
866.329	71.3456
868.01	70.5568
869.692	69.9294
871.375	69.3771
873.055	68.0568
874.737	67.5329
876.418	67.6401
878.097	66.9229
879.778	65.3655
881.457	64.2907
883.137	64.0097
884.817	63.8791
886.495	63.5995
888.174	63.5839
889.851	62.3391
891.53	61.107
893.206	60.9132
894.884	60.6907
896.562	60.9007
898.237	61.2472
899.914	61.4731
901.589	62.0328
903.265	61.0857
904.94	61.4119
906.615	61.3875
908.289	60.916
909.964	60.4357
911.637	60.3805
913.31	59.8167
914.984	58.741
916.656	58.6313
918.33	57.5681
920.001	56.2995
921.674	56.0303
923.345	55.5103
925.015	55.3858
926.687	54.4802
928.357	52.8323
930.028	51.5771
931.698	49.4851
933.366	47.6215
935.037	47.4342
936.705	47.378
938.373	46.7384
940.043	45.7568
941.71	44.3802
943.379	43.5345
945.046	43.6681
946.712	42.9358
948.378	42.2197
950.046	42.0537
951.711	42.6547
953.376	43.2817
955.043	41.6931
956.708	41.7542
958.372	41.1166
960.036	40.5004
961.701	39.7475
963.364	40.4019
965.027	40.9189
966.69	43.1369
968.354	44.3182
970.016	44.498
971.678	44.0001
973.339	44.6467
975	45.2413
976.661	46.4981
978.324	46.1196
979.984	46.3902
981.644	47.0924
983.303	46.4718
984.962	47.1763
986.621	47.5732
988.282	48.3301
989.94	48.7909
991.598	48.0458
993.256	47.6058
994.913	47.5474
996.57	46.9365
998.227	47.4766
999.884	47.5394
1001.54	46.5402
1003.2	45.5112
1004.85	45.6319
1006.51	45.3697
1008.16	45.4183
1009.82	44.7358
1011.47	45.3175
1013.12	47.4434
1014.78	47.9679
1016.43	48.7177
1018.08	50.9487
1019.74	52.6728
1021.39	52.0079
1023.04	51.4386
1024.69	51.1854
1026.34	51.3646
1028	51.7842
1029.65	52.3752
1031.3	52.3522
1032.95	52.131
1034.6	51.2642
1036.25	49.9368
1037.9	48.9061
1039.55	50.0962
1041.19	50.2484
1042.84	51.0106
1044.49	50.2759
1046.14	50.8189
1047.79	50.3588
1049.43	50.1754
1051.08	48.8288
1052.73	47.6553
1054.37	45.6906
1056.02	44.7866
1057.66	43.4309
1059.31	42.2735
1060.95	40.5442
1062.6	39.2697
1064.24	37.351
1065.88	35.77
1067.53	35.0626
1069.17	33.157
1070.81	30.8366
1072.46	28.9624
1074.1	26.7307
1075.74	25.6836
1077.38	25.3067
1079.02	24.6348
1080.66	25.2503
1082.3	23.3336
1083.94	22.8545
1085.58	23.4743
1087.22	24.5523
1088.86	23.5239
1090.5	23.6088
1092.14	23.5335
1093.78	24.855
1095.42	25.2319
1097.05	25.1981
1098.69	26.2707
1100.33	27.471
1101.97	27.348
1103.6	26.4968
1105.24	26.6084
1106.87	27.5096
1108.51	28.3406
1110.15	28.486
1111.78	27.847
1113.41	27.2287
1115.05	26.4187
1116.68	25.8107
1118.31	25.9802
1119.95	25.9512
1121.58	26.0215
1123.21	25.6074
1124.85	25.1802
1126.48	24.4996
1128.11	25.0706
1129.74	24.2425
1131.37	22.6457
1133	21.655
1134.63	19.9359
1136.26	17.9906
1137.89	17.8102
1139.52	16.9594
1141.15	15.9734
1142.78	14.7534
1144.41	12.1413
1146.04	11.9235
1147.66	11.4599
1149.29	10.3067
1150.92	8.91307
1152.55	7.94264
1154.17	7.1738
1155.8	6.18052
1157.43	6.41864
1159.05	5.73064
1160.68	4.84174
1162.3	5.32113
1163.93	4.30511
1165.55	4.91774
1167.17	4.82269
1168.8	4.0693
1170.42	3.59299
1172.05	5.19524
1173.67	6.28093
1175.29	8.08554
1176.91	8.99706
1178.54	10.6231
1180.16	11.4545
1181.78	11.5242
1183.4	11.3818
1185.02	12.5061
1186.64	13.3768
1188.26	13.8018
1189.88	14.459
1191.5	14.4233
1193.12	14.1226
1194.74	14.9623
1196.36	14.2635
1197.97	15.5252
1199.59	16.4477
1201.21	16.5103
1202.83	17.8291
1204.44	19.0508
1206.06	19.7073
1207.68	20.7229
1209.29	21.1423
1210.91	21.6154
1212.52	22.6562
1214.14	23.3529
1215.75	24.2383
1217.37	26.0287
1218.98	26.996
1220.6	27.7304
1222.21	27.8809
1223.82	28.2702
1225.44	29.1633
1227.05	31.0471
1228.66	31.6573
1230.27	32.9407
1231.88	34.1486
1233.49	35.8873
1235.1	37.3796
1236.72	38.5205
1238.33	41.164
1239.94	42.4181
1241.55	44.4302
1243.16	46.0631
1244.76	47.3313
1246.37	49.3504
1247.98	50.9615
1249.59	52.4496
1251.2	53.8215
1252.8	55.9264
1254.41	57.5782
1256.02	59.4677
1257.63	61.1643
1259.23	62.9546
1260.84	63.4457
1262.44	65.2173
1264.05	66.8489
1265.66	69.1058
1267.26	70.8565
1268.87	71.3483
1270.47	72.6306
1272.07	73.1323
1273.68	73.663
1275.28	74.5666
1276.88	75.5471
1278.48	76.8543
1280.09	77.1316
1281.69	77.7867
1283.29	79.2051
1284.89	80.0819
1286.49	80.2296
1288.09	81.4378
1289.69	81.4653
1291.3	82.194
1292.9	81.3786
1294.49	81.3987
1296.09	81.1578
1297.69	80.1693
1299.29	79.1314
1300.89	78.7075
1302.49	78.3812
1304.09	78.654
1305.68	79.2499
1307.28	79.3415
1308.88	79.5238
1310.47	78.996
1312.07	78.7406
1313.66	78.9347
1315.26	77.7032
1316.86	77.3758
1318.45	77.0062
1320.05	75.9116
1321.64	74.086
1323.23	73.6188
1324.83	72.0981
1326.42	71.2999
1328.01	69.9424
1329.61	68.0258
1331.2	66.3858
1332.79	65.764
1334.38	64.8629
1335.98	63.7601
1337.57	61.9065
1339.16	60.3933
1340.75	59.0095
1342.34	58.1642
1343.93	57.059
1345.52	55.3053
1347.11	52.263
1348.7	51.3114
1350.29	50.5067
1351.87	48.5749
1353.46	47.1868
1355.05	46.3756
1356.64	45.8442
1358.23	44.3238
1359.81	43.9786
1361.4	43.7326
1362.99	43.5643
1364.57	43.1836
1366.16	42.419
1367.74	41.889
1369.33	40.1308
1370.91	39.6866
1372.5	39.0104
1374.08	39.0178
1375.67	38.6397
1377.25	38.634
1378.83	39.3799
1380.42	39.2068
1382	39.9695
1383.58	39.261
1385.16	39.0639
1386.75	38.5018
1388.33	37.7757
1389.91	36.8662
1391.49	36.9975
1393.07	36.334
1394.65	34.8894
1396.23	35.6431
1397.81	35.5433
1399.39	34.4702
1400.97	34.063
1402.55	34.9663
1404.13	34.3373
1405.7	36.1103
1407.28	36.5308
1408.86	37.3838
1410.44	38.1555
1412.01	39.6477
1413.59	40.2243
1415.17	40.7865
1416.74	41.599
1418.32	43.6022
1419.89	45.3763
1421.47	47.2479
1423.05	49.3646
1424.62	50.7366
1426.19	53.0591
1427.77	56.5038
1429.34	57.8971
1430.92	59.6785
1432.49	63.0647
1434.06	66.6306
1435.63	69.4678
1437.2	72.5492
1438.78	75.3363
1440.35	77.1483
1441.92	79.3941
1443.49	80.4458
1445.06	81.2302
1446.63	82.6612
1448.2	82.8128
1449.77	83.3299
1451.34	82.9132
1452.91	82.8428
1454.48	82.3463
1456.05	81.2232
1457.62	79.9752
1459.18	78.1353
1460.75	76.1038
1462.32	73.2213
1463.89	71.334
1465.45	68.9161
1467.02	65.7579
1468.59	62.492
1470.15	60.3921
1471.72	57.5662
1473.28	54.1211
1474.85	51.7987
1476.41	48.2318
1477.98	44.9105
1479.54	42.4615
1481.11	39.3083
1482.67	36.4499
1484.23	34.4784
1485.8	31.2162
1487.36	28.5024
1488.92	25.6465
1490.48	23.1953
1492.05	21.5853
1493.61	20.0995
1495.17	19.3946
1496.73	18.6903
1498.29	17.2443
1499.85	16.7297
1501.41	16.4979
1502.97	16.6469
1504.53	17.3003
1506.09	17.9018
1507.65	18.0127
1509.2	18.7489
1510.76	19.6389
1512.32	19.9246
1513.88	20.6718
1515.44	20.6658
1516.99	20.63
1518.55	21.5706
1520.1	22.5634
1521.66	22.9807
1523.22	22.9754
1524.77	23.8659
1526.33	23.8956
1527.88	24.5872
1529.44	25.1932
1530.99	26.8948
1532.55	27.9559
1534.1	29.0926
1535.65	29.4337
1537.21	30.4392
1538.76	31.64
1540.31	32.3429
1541.86	34.6423
1543.42	36.6406
1544.97	37.7758
1546.52	39.836
1548.07	41.7374
1549.62	42.6393
1551.17	44.1093
1552.72	46.4953
1554.27	47.6831
1555.82	49.9001
1557.37	51.3086
1558.92	52.226
1560.47	53.5003
1562.02	55.2517
1563.57	55.4651
1565.11	57.2015
1566.66	59.484
1568.21	61.5518
1569.75	63.4524
1571.3	64.3096
1572.85	65.3278
1574.39	66.6876
1575.94	67.7244
1577.49	69.0285
1579.03	70.3232
1580.58	71.13
1582.12	71.9419
1583.67	71.6645
1585.21	71.6386
1586.75	72.6786
1588.3	73.3119
1589.84	73.5212
1591.38	75.1147
1592.93	75.0384
1594.47	75.3128
1596.01	75.1629
1597.55	73.9889
1599.09	73.6366
1600.63	72.6834
1602.18	72.4285
1603.72	71.4431
1605.26	71.0657
1606.8	71.0377
1608.34	70.8297
1609.87	70.3851
1611.41	69.5299
1612.95	69.2664
1614.49	69.3687
1616.03	69.8982
1617.57	70.5824
1619.11	72.0434
1620.64	72.5452
1622.18	72.2103
1623.72	72.9947
1625.25	73.8225
1626.79	75.2545
1628.32	77.4235
1629.86	79.0372
1631.4	81.3766
1632.93	82.7272
1634.47	81.6519
1636	80.7105
1637.53	81.4369
1639.07	82.6396
1640.6	85.0173
1642.14	89.1606
1643.67	91.7082
1645.2	94.0747
1646.73	96.4543
1648.27	99.1202
1649.8	101.178
1651.33	103.183
1652.86	104.603
1654.39	106.649
1655.92	108.06
1657.45	108.919
1658.98	109.609
1660.51	109.704
1662.04	109.352
1663.57	109.336
1665.1	108.986
1666.63	107.249
1668.16	105.84
1669.69	103.774
1671.21	101.347
1672.74	98.9052
1674.27	96.0468
1675.79	92.8152
1677.32	88.6426
1678.85	84.866
1680.37	80.8127
1681.9	76.9066
1683.42	73.2372
1684.95	69.3422
1686.47	65.1508
1688	60.8008
1689.52	56.588
1691.05	52.2266
1692.57	48.9568
1694.1	44.897
1695.62	41.4694
1697.14	37.4137
1698.66	33.0927
1700.19	30.3193
1701.71	28.0526
1703.23	25.3196
1704.75	22.3599
1706.27	18.6325
1707.79	15.528
1709.32	11.9999
1710.83	9.60733
1712.35	8.55069
1713.88	9.1691
1715.39	10.2367
1716.91	11.0671
1718.43	10.9971
1719.95	10.9457
1721.47	10.8637
1722.99	10.7168
1724.5	10.8524
1726.02	10.0932
1727.54	9.61756
1729.06	10.2491
1730.57	9.63728
1732.09	8.93767
1733.61	9.17869
1735.12	9.23454
1736.64	9.26504
1738.15	9.71954
1739.67	10.4632
1741.18	11.0385
1742.7	10.5255
1744.21	11.0695
1745.72	11.4305
1747.24	11.1279
1748.75	10.497
1750.26	9.66549
1751.78	9.22693
1753.29	9.37139
1754.8	9.47992
1756.31	9.02968
1757.82	9.05804
1759.34	9.16003
1760.85	8.51142
1762.36	7.3104
1763.87	6.87783
1765.38	5.8346
1766.89	5.5942
1768.4	5.38728
1769.91	4.5363
1771.41	4.28011
1772.92	3.08108
1774.43	3.14038
1775.94	3.4926
1777.45	3.04242
1778.96	2.17638
1780.46	1.42606
1781.97	1.27337
1783.48	1.31475
1784.98	1.08922
1786.49	1.05171
1788	0.904293
1789.5	1.27461
1791.01	1.08233
1792.51	0.703713
1794.01	1.16982
1795.52	1.17533
1797.02	0.561728
1798.53	0.919769
1800.03	1.11508
1801.54	0.170256
1803.04	0.0165473
1804.54	0.475303
1806.04	0.443729
1807.54	1.07591
1809.05	1.42266
1810.55	1.51752
1812.05	1.77616
1813.55	2.34661
1815.05	2.20402
1816.55	2.48958
1818.05	2.33494
1819.55	2.74189
1821.05	2.25154
1822.55	2.22337
1824.05	2.31908
1825.55	2.34374
1827.05	2.73381
1828.55	2.90973
1830.04	2.78345
1831.54	2.81179
1833.04	3.0228
1834.54	3.12923
1836.03	2.88564
1837.53	2.50965
1839.03	1.98433
1840.52	1.46481
1842.02	1.91028
1843.51	1.71649
1845.01	1.75357
1846.5	1.90113
1848	1.86204
1849.49	2.01274
1850.99	1.85759
1852.48	1.87446
1853.97	1.82345
1855.47	2.60283
1856.96	3.42842
1858.45	3.52801
1859.94	4.04031
1861.44	3.86779
1862.93	4.36003
1864.42	4.39141
1865.91	4.29392
1867.4	4.61156
1868.89	4.74569
1870.38	5.06081
1871.87	5.72939
1873.36	5.83756
1874.85	6.07338
1876.34	5.61765
1877.83	6.20732
1879.32	5.9628
1880.81	6.19477
1882.3	5.75027
1882.56	5.83204
1884.06	5.94207
1885.55	5.68623
1887.04	5.94846
1888.54	5.75815
1890.03	5.80484
1891.52	6.01915
1893.02	5.54439
1894.51	4.79091
1896	5.56167
1897.49	5.33894
1898.99	4.7081
1900.48	4.75753
1901.97	4.73308
1903.46	3.97134
1904.95	3.14266
1906.44	2.21012
1907.93	1.7387
1909.42	1.37157
1910.91	1.14437
1912.4	1.39709
1913.89	1.7367
1915.38	1.93294
1916.86	1.93183
1918.35	2.6612
1919.84	2.7038
1921.33	2.5865
1922.82	2.28413
1924.3	2.4127
1925.79	3.33988
1927.28	3.58208
1928.76	4.23201
1930.25	3.72568
1931.74	3.59006
1933.22	3.38856
1934.71	3.40794
1936.19	4.32207
1937.67	3.84
1939.16	3.61847
1940.64	3.43586
1942.13	3.90404
1943.61	3.95798
1945.09	3.34293
1946.58	2.86204
1948.06	2.49607
1949.54	1.93034
1951.03	1.77999
1952.51	1.38813
1953.99	1.38934
1955.47	0.75406
1956.95	0.681234
1958.43	0.809256
1959.91	0.595282
1961.39	1.10033
1962.87	0.725173
1964.35	1.09122
1965.83	1.16604
1967.31	0.432298
1968.79	-0.0298008
1970.27	0.4192
1971.75	0.329706
1973.22	-0.378058
1974.7	-0.259129
1976.18	-0.366136
1977.66	-0.58649
1979.13	0.0977866
1980.61	-0.0133815
1982.09	0.721879
1983.56	1.02813
1985.04	1.69005
1986.52	2.15355
1987.99	2.09602
1989.47	3.00085
1990.94	3.4835
1992.41	3.93016
1993.89	4.24792
1995.36	4.39556
1996.84	4.7621
1998.31	5.5491
1999.78	6.35654
2001.26	6.41085
2002.73	6.527
2004.2	6.56684
2005.67	7.17529
2007.15	6.84782
2008.62	7.51294
2010.09	7.66283
2011.56	7.82584
2013.03	8.22628
2014.5	8.29287
2015.97	8.93253
2017.44	8.70756
2018.91	8.91069
2020.38	8.84535
2021.85	8.48975
2023.32	8.80485
2024.79	8.31033
2026.25	9.09825
2027.72	9.23842
2029.19	9.69182
2030.66	10.0532
2032.13	10.6809
2033.59	10.553
2035.06	10.787
2036.53	10.5875
2037.99	11.4028
2039.46	10.9585
2040.92	10.5302
2042.39	10.8164
2043.85	11.6599
2045.32	11.6115
2046.78	11.0803
2048.25	11.836
2049.71	11.7319
2051.18	11.4856
2052.64	11.8932
2054.1	11.0238
2055.56	11.6863
2057.03	11.784
2058.49	11.9808
2059.95	12.3408
2061.42	13.2091
2062.88	13.692
2064.34	14.2689
2065.8	14.4956
2067.26	15.2222
2068.72	15.0639
2070.18	15.5939
2071.64	16.5444
2073.1	18.1392
2074.56	18.7899
2076.02	19.1166
2077.48	20.3008
2078.94	21.08
2080.39	22.9207
2081.85	24.5382
2083.31	26.0725
2084.77	27.6889
2086.22	28.5696
2087.68	29.3202
2089.14	30.8052
2090.6	32.2098
2092.05	33.2677
2093.51	34.9618
2094.96	36.7244
2096.42	37.7679
2097.87	39.3134
2099.33	41.726
2100.78	43.2195
2102.24	45.3359
2103.69	47.3173
2105.15	49.666
2106.6	51.2614
2108.05	52.9925
2109.51	55.981
2110.96	57.5937
2112.41	59.5566
2113.86	61.7425
2115.32	63.7658
2116.77	65.7599
2118.22	67.4506
2119.67	69.5018
2121.12	71.4722
2122.57	73.0319
2124.02	74.5674
2125.47	76.5467
2126.92	78.3955
2128.37	80.5949
2129.82	82.4623
2131.27	84.4493
2132.72	86.7193
2134.17	88.6355
2135.62	90.3717
2137.06	91.909
2138.51	93.7397
2139.96	96.7617
2141.41	98.554
2142.85	100.704
2144.3	102.88
2145.75	104.761
2147.19	106.328
2148.64	108.322
2150.09	110.472
2151.53	112.345
2152.97	114.848
2154.42	115.879
2155.86	117.463
2157.31	118.38
2158.75	119.49
2160.2	120.367
2161.64	121.109
2163.08	122.184
2164.53	122.662
2165.97	124.54
2167.41	124.39
2168.86	124.433
2170.3	125.63
2171.74	126.073
2173.18	126.377
2174.62	125.595
2176.06	124.455
2177.5	123.625
2178.94	122.398
2180.38	121.503
2181.82	120.811
2183.26	118.834
2184.7	118.064
2186.14	116.095
2187.58	114.502
2189.02	113.282
2190.46	111.729
2191.89	110.075
2193.33	108.099
2194.77	106.206
2196.21	103.933
2197.64	102.73
2199.08	101.092
2200.52	98.5135
2201.95	96.2145
2203.39	94.0871
2204.83	92.1265
2206.26	90.2181
2207.7	87.9336
2209.13	85.1709
2210.57	83.9747
2212	82.0824
2213.43	78.8464
2214.87	77.3643
2216.3	75.3741
2217.73	74.0055
2219.17	72.2314
2220.6	70.2845
2222.03	68.8747
2223.47	67.3674
2224.9	65.6547
2226.33	63.5214
2227.76	62.2117
2229.19	60.991
2230.62	59.4024
2232.05	57.4832
2233.49	56.3276
2234.91	55.8416
2236.34	54.4151
2237.77	53.2798
2239.2	51.0737
2240.63	49.8814
2242.06	48.6151
2243.49	46.6876
2244.92	44.9008
2246.35	42.3406
2247.78	41.097
2249.2	39.9574
2250.63	38.6219
2252.06	37.4606
2253.48	36.3105
2254.91	36.0874
2256.34	35.9215
2257.76	35.3805
2259.19	34.7352
2260.61	33.9301
2262.04	32.8993
2263.46	31.78
2264.89	30.8203
2266.31	30.2191
2267.74	29.3582
2269.16	28.9818
2270.59	27.4401
2272.01	26.7388
2273.43	26.1943
2274.85	25.3494
2276.28	24.5044
2277.7	24.562
2279.12	23.8168
2280.54	23.1917
2281.97	22.7745
2283.39	22.0184
2284.81	21.9035
2286.23	22.1203
2287.65	21.8439
2289.07	21.5031
2290.49	20.1711
2291.91	19.7259
2293.33	19.6145
2294.75	19.4495
2296.17	19.2695
2297.59	19.6425
2299.01	20.1764
2300.42	20.1798
2301.84	20.0811
2303.26	20.1363
2304.68	20.3214
2306.1	20.2039
2307.51	19.6737
2308.93	19.5804
2310.35	19.6182
2311.76	18.8998
2313.18	18.6032
2314.59	18.0511
2316.01	18.2651
2317.43	17.1574
2318.84	17.5657
2320.26	17.2233
2321.67	17.0339
2323.08	17.2323
2324.5	16.877
2325.91	16.9437
2327.33	16.3673
2328.74	15.0678
2330.15	14.5222
2331.56	13.8422
2332.98	13.1128
2334.39	12.3286
2335.8	11.745
2337.21	11.3273
2338.62	10.6268
2340.04	9.36782
2341.45	8.45496
2342.86	8.38291
2344.27	7.00876
2345.68	6.60186
2347.09	6.37902
2348.5	6.38
2349.91	4.93587
2351.31	4.36052
2352.72	4.29512
2354.13	4.3027
2355.54	4.45931
2356.95	3.6909
2358.36	3.82778
2359.76	2.50302
2361.17	2.31262
2362.58	3.12796
2363.98	4.22728
2365.39	5.01021
2366.8	5.3938
2368.21	6.162
2369.61	6.14927
2371.02	6.83765
2372.42	7.57992
2373.83	7.12005
2375.23	6.88867
2376.64	6.77592
2378.04	7.81978
2379.44	8.37566
2380.85	9.36049
2382.25	9.30331
2383.66	10.2707
2385.06	11.0639
2386.46	11.3686
2387.86	10.7954
2389.26	11.4517
2390.67	11.4964
2392.07	11.232
2393.47	11.3212
2394.87	11.2919
2396.27	11.5178
2397.67	11.0716
2399.07	11.0392
2400.47	11.3982
2401.87	11.6316
2403.27	11.8923
2404.67	12.0116
2406.07	11.592
2407.47	11.4453
2408.87	11.1077
2410.27	10.8211
2411.67	11.8653
2413.07	11.8208
2414.46	11.3676
2415.86	12.0435
2417.26	11.6978
2418.66	11.4677
2420.05	11.5953
2421.45	12.5383
2422.84	12.8341
2424.24	12.6091
2425.64	12.9798
2427.03	13.1555
2428.43	13.1845
2429.82	12.9297
2431.22	13.8818
2432.61	14.0341
2434.01	14.1199
2435.4	14.0261
2436.79	14.0811
2438.19	13.9602
2439.58	13.7129
2440.97	13.6183
2442.37	13.0047
2443.76	12.1939
2445.15	12.3455
2446.54	12.3764
2447.93	12.693
2449.33	12.5052
2450.72	12.0094
2452.11	11.512
2453.5	11.0294
2454.89	10.7263
2456.28	10.3961
2457.67	9.88799
2459.06	9.65768
2460.45	9.12589
2461.84	8.41666
2463.23	8.56542
2464.62	8.7644
2466	8.28897
2467.39	7.88854
2468.78	8.09949
2470.17	8.11512
2471.55	7.70295
2472.94	7.20943
2474.33	6.85183
2475.72	6.26884
2477.1	7.20965
2478.49	6.99674
2479.87	7.06804
2481.26	7.43551
2482.65	6.70612
2484.03	7.17601
2485.42	7.33803
2486.8	6.92021
2488.19	7.18065
2489.57	8.00667
2490.95	8.07918
2492.34	7.32801
2493.72	6.81271
2495.1	7.04719
2496.49	6.66903
2497.87	6.60741
2499.25	6.27637
2500.63	5.95848
2502.02	4.97277
2503.4	5.1907
2504.78	4.80356
2506.16	4.05575
2507.54	3.50157
2508.92	2.59774
2510.3	2.03045
2511.68	2.00381
2513.06	1.63801
2514.44	1.32666
2515.82	0.995544
2517.2	1.03908
2518.58	1.06549
2519.96	0.94583
2521.34	0.776076
2522.72	0.544011
2524.1	1.31451
2525.47	1.76979
2526.85	1.50309
2528.23	2.02011
2529.6	2.14724
2530.98	2.71743
2532.36	3.39136
2533.74	3.32268
2535.11	3.52915
2536.49	3.69439
2537.86	4.42297
2539.24	4.89087
2540.61	5.18184
2541.99	6.06345
2543.36	5.84601
2544.74	6.5106
2546.11	7.31569
2547.49	6.60842
2548.86	7.06792
2550.23	7.59461
2551.61	7.99014
2552.98	8.60954
2554.35	8.59944
2555.72	9.11301
2557.09	9.63367
2558.47	10.0419
2559.84	9.86976
2561.21	9.7275
2562.58	9.6507
2563.95	9.93946
2565.32	9.53751
2566.69	8.83303
2568.06	7.93784
2569.43	7.80907
2570.8	7.13186
2572.17	7.1642
2573.54	5.77622
2574.91	5.67136
2576.28	5.69525
2577.65	5.21442
2579.02	5.40054
2580.39	5.46533
2581.75	4.4634
2583.12	4.26271
2584.49	3.74155
2585.85	3.53072
2587.22	3.37113
2588.59	3.17126
2589.95	2.60671
2591.32	2.76385
2592.68	3.11603
2594.05	3.30075
2595.42	3.20628
2596.78	2.68916
2598.15	2.22629
2599.51	1.88087
2600.88	1.93669
2602.24	1.75592
2603.6	2.20285
2604.97	2.12221
2606.33	2.16729
2607.69	1.47973
2609.06	1.61904
2610.42	1.50869
2611.78	1.13446
2613.14	1.49158
2614.51	1.34072
2615.87	1.40547
2617.23	1.9231
2618.59	1.70749
2619.95	2.01223
2621.31	2.45463
2622.67	2.73381
2624.03	3.16259
2625.39	3.35159
2626.75	2.9147
2628.11	2.40674
2629.47	1.82321
2630.83	1.2415
2632.19	1.16359
2633.55	1.13365
2634.91	0.883387
2636.26	1.11363
2637.62	1.07362
2638.98	0.454817
2640.34	0.566962
2641.69	0.921285
2643.05	1.93112
2644.41	1.66976
2645.76	1.45035
2647.12	1.74556
2648.48	1.77005
2649.83	1.35877
2651.19	1.94105
2652.54	1.5726
2653.9	1.53025
2655.25	1.38904
2656.6	1.68501
2657.96	2.08672
2659.31	2.31185
2660.67	2.67899
2662.02	2.88972
2663.37	2.42895
2664.73	2.61304
2666.08	3.94351
2667.43	4.18349
2668.78	5.09579
2670.14	5.13267
2671.49	5.04995
2672.84	4.75993
2674.19	4.75313
2675.54	4.64595
2676.89	4.88303
2678.24	4.36271
2679.59	4.0502
2680.94	4.08303
2682.29	3.91125
2683.64	4.08616
2684.99	3.50577
2686.34	3.94873
2687.69	4.80238
2689.04	4.78029
2690.39	4.92405
2691.74	4.5602
2693.08	4.21888
2694.43	3.80519
2695.78	3.66368
2697.13	3.75544
2698.47	3.79345
2699.82	4.02
2701.17	4.30711
2702.51	4.70225
2703.86	5.40731
2705.21	5.22161
2706.55	5.62451
2707.9	7.09542
2709.24	7.72534
2710.58	7.75774
2711.93	7.54249
2713.27	8.02874
2714.62	9.03196
2715.96	9.32104
2717.3	9.68472
2718.65	10.1377
2719.99	10.2715
2721.33	11.0422
2722.68	11.4906
2724.02	12.2307
2725.36	12.4594
2726.71	12.5921
2728.05	13.1017
2729.39	14.0128
2730.73	14.4016
2732.07	14.9826
2733.41	14.4983
2734.75	13.581
2736.09	13.3601
2737.43	12.4247
2738.77	12.0576
2740.11	11.4311
2741.45	10.7688
2742.79	9.99464
2744.13	9.70843
2745.47	9.25896
2746.81	9.13926
2748.14	8.84414
2749.48	8.13845
2750.82	8.22384
2752.16	7.62436
2753.49	7.58534
2754.83	6.84457
2756.17	6.36162
2757.5	6.60281
2758.84	5.7334
2760.18	5.58348
2761.51	5.52563
2762.85	4.82277
2764.18	4.61955
2765.52	3.96747
2766.85	3.87381
2768.19	4.16283
2769.52	4.06944
2770.86	3.9666
2772.19	3.56777
2773.52	3.47698
2774.86	3.4089
2776.19	2.38191
2777.52	2.20837
2778.86	2.03769
2780.19	2.60212
2781.52	2.70242
2782.85	2.32197
2784.19	2.59385
2785.52	2.78807
2786.85	3.31361
2788.18	3.61796
2789.51	3.7036
2790.84	3.69269
2792.17	3.90353
2793.5	3.78605
2794.83	3.83375
2796.16	3.14849
2797.49	2.7346
2798.82	2.24328
2800.15	1.53494
2801.48	1.30844
2802.81	1.47326
2804.13	1.12137
2805.46	1.3748
2806.79	0.760181
2808.12	1.14662
2809.45	1.76866
2810.77	1.69141
2812.1	1.57398
2813.43	1.79138
2814.75	2.20697
2816.08	2.5916
2817.41	3.49755
2818.73	4.75975
2820.06	6.52743
2821.38	9.04079
2822.71	11.9157
2824.03	14.8061
2825.36	17.1655
2826.68	19.8675
2828	23.0829
2829.33	26.5335
2830.65	30.4107
2831.98	33.5801
2833.3	37.7477
2834.62	41.1763
2835.94	44.436
2837.27	48.6792
2838.59	51.9321
2839.91	54.9858
2841.23	59.05
2842.55	63.2917
2843.87	68.4082
2845.2	73.1796
2846.52	78.8646
2847.84	84.1103
2849.16	90.2758
2850.48	96.8326
2851.8	102.806
2853.12	108.533
2854.44	114.737
2855.76	120.601
2857.08	126.108
2858.39	131.382
2859.71	135.973
2861.03	141.072
2862.35	146.574
2863.67	151.842
2864.98	156.065
2866.3	159.888
2867.62	163.501
2868.94	166.863
2870.25	169.411
2871.57	172.312
2872.88	174.718
2874.2	177.137
2875.52	179.638
2876.83	182.565
2878.15	184.981
2879.46	187.407
2880.78	189.307
2882.09	191.782
2883.41	194.458
2884.72	197.038
2886.03	199.707
2887.35	202.468
2888.66	205.003
2889.97	206.905
2891.29	208.542
2892.6	210.601
2893.91	213.32
2895.22	215.018
2896.54	216.844
2897.85	219.382
2899.16	221.584
2900.47	224.147
2901.78	227.512
2903.09	232.425
2904.4	235.367
2905.71	239.999
2907.02	245.613
2908.33	251.325
2909.64	257.588
2910.95	264.23
2912.26	271.196
2913.57	277.383
2914.88	283.713
2916.19	290.187
2917.5	295.81
2918.81	301.389
2920.11	306.765
2921.42	310.161
2922.73	313.478
2924.04	316.692
2925.34	319.58
2926.65	322.311
2927.96	324.771
2929.26	325.342
2930.57	325.549
2931.87	325.208
2933.18	324.651
2934.49	323.427
2935.79	321.909
2937.1	319.92
2938.4	317.486
2939.7	314.329
2941.01	311.502
2942.31	307.183
2943.62	301.827
2944.92	296.664
2946.22	291.355
2947.53	285.863
2948.83	279.4
2950.13	273.309
2951.43	267.96
2952.74	261.276
2954.04	255.166
2955.34	248.486
2956.64	242.096
2957.94	235.948
2959.24	230.417
2960.54	223.98
2961.84	218.071
2963.15	212.158
2964.45	205.546
2965.75	200.554
2967.05	194.898
2968.34	189.524
2969.64	183.231
2970.94	178.814
2972.24	173.704
2973.54	168.404
2974.84	163.949
2976.14	159.027
2977.43	153.764
2978.73	148.557
2980.03	143.404
2981.33	138.198
2982.62	132.338
2983.92	126.94
2985.22	121.422
2986.51	115.399
2987.81	110.392
2989.11	105.802
2990.4	100.845
2991.7	96.3364
2992.99	91.3795
2994.29	86.0501
2995.58	80.968
2996.88	76.5325
2998.17	72.1883
2999.46	67.384
3000.76	62.9688
3002.05	59.0769
3003.34	55.0692
3004.64	51.5935
3005.93	48.4179
3007.22	44.5956
3008.52	41.4486
3009.81	38.6782
3011.1	36.0008
3012.39	33.4553
3013.68	31.5987
3014.97	30.4111
3016.27	29.3243
3017.56	27.481
3018.85	26.2674
3020.14	24.4214
3021.43	23.2551
3022.72	21.9584
3024.01	20.8589
3025.3	19.5085
3026.59	18.8404
3027.88	18.4178
3029.16	17.7209
3030.45	17.8612
3031.74	17.8037
3033.03	18.5694
3034.32	18.7788
3035.6	18.8409
3036.89	19.5902
3038.18	20.1166
3039.47	20.6511
3040.75	20.7285
3042.04	21.2346
3043.33	21.2582
3044.61	21.4045
3045.9	21.7452
3047.18	22.071
3048.47	22.4544
3049.75	22.3779
3051.04	22.1362
3052.32	23.0006
3053.61	22.7647
3054.89	22.7069
3056.18	22.2381
3057.46	21.2622
3058.74	20.6458
3060.03	20.2429
3061.31	19.4702
3062.59	18.7641
3063.88	18.2153
3065.16	17.3949
3066.44	17.143
3067.72	16.2175
3069	15.2589
3070.29	13.6811
3071.57	12.1672
3072.85	11.0232
3074.13	10.1434
3075.41	9.06658
3076.69	7.85878
3077.97	6.68676
3079.25	5.82242
3080.53	4.66251
3081.81	3.43318
3083.09	2.16937
3084.37	1.77085
3085.65	1.29786
3086.93	0.366799
3088.21	-0.113362
3089.49	0.20207
3090.76	0.171831
3092.04	-0.384302
3093.32	-0.265986
3094.6	0.148128
3095.87	-0.00592333
3097.15	-0.422198
3098.43	-0.876157
3099.7	-1.0218
3100.98	-0.941957
3102.26	-1.8337
3103.53	-1.9766
3104.81	-1.97883
3106.08	-1.64698
3107.36	-1.32675
3108.63	-0.541404
3109.91	0.152834
3111.18	0.104978
3112.46	0.266736
3113.73	0.639149
3115	1.19411
3116.28	1.85964
3117.55	1.63492
3118.83	2.3049
3120.1	2.13002
3121.37	2.32203
3122.64	2.90767
3123.92	3.5028
3125.19	3.69151
3126.46	4.6459
3127.73	5.12108
3129	5.13145
3130.27	5.78878
3131.55	5.68709
3132.82	5.67483
3134.09	6.19972
3135.36	6.71547
3136.63	7.35007
3137.9	8.06626
3139.17	8.41113
3140.44	8.67728
3141.71	9.40875
3142.98	9.97062
3144.24	10.3523
3145.51	10.6456
3146.78	11.0226
3148.05	11.0506
3149.32	11.8519
