#Acq. time (s)=	45
#Accumulations=	2
#Range (cm-¹)=	200...3150
#Windows=	2
#Auto scanning=	Off
#Autofocus=	Off
#Macrospot=	Off
#AutoExposure=	Off
#Spike filter=	Multiple accum.
#Delay time (s)=	0
#Binning=	1
#Readout mode=	Signal
#DeNoise=	Off
#ICS correction=	On
#Dark correction=	Off
#Inst. Process=	Off
#Detector Gain=	Best Dynamic Range
#Detector ADC=	20 kHz       
#Detector temperature (°C)=	-69.85
#Instrument=	LabRAM HR Evol
#Detector=	Synapse
#Objective=	x100
#Grating=	600 gr/mm
#ND Filter=	100%
#Laser (nm)=	532 
#Hole=	100.021
#Range=	Auto
#Laser Pol.=	No
#Raman. Pol.=	No
#Laser Pol. (°)=	-0.0007625
#Raman Pol. (°)=	89.9995
#Collection=	Microscope
#StageXY=	Marzhauser
#StageZ=	Marzhauser
#X (µm)=	4766.5
#Y (µm)=	-7711
#Z (µm)=	584.65
#Full time(mm:ss)=	3:19
#Project=	
#Sample=	
#Site=	
#Title=	Thy_30_10_28_2x_45s_532 nm_x100_100%_600 gr_mm
#Remark=	
#Date=	30.06.2022 13:29
#Acquired=	30.06.2022 13:29:11
#Base:Fit=	10.08.2022 09:58:11
#Base:Sub=	10.08.2022 09:58:44
#Filter:Polynom=	16.08.2022 10:22:53
#AxisType[0]=Intens
#AxisUnit[0]=Cnt
#AxisType[1]=Spectr
#AxisUnit[1]=1/cm
200.533	0.534101
202.348	1.70175
204.162	2.34004
205.976	2.51192
207.792	2.87693
209.605	3.25604
211.418	3.66627
213.23	4.78915
215.044	4.95812
216.856	5.48722
218.667	5.8201
220.478	6.7573
222.289	6.99596
224.102	7.92141
225.912	9.0214
227.721	9.37194
229.531	9.11973
231.34	9.57915
233.148	9.30412
234.956	10.709
236.766	12.0529
238.574	12.9371
240.381	13.1395
242.188	13.5788
243.994	13.517
245.801	13.0992
247.606	12.4845
249.412	12.4898
251.217	12.7542
253.024	11.9635
254.828	13.3929
256.632	13.4171
258.436	11.907
260.239	11.5024
262.042	10.6151
263.845	10.6243
265.647	11.3067
267.449	12.0706
269.25	12.2657
271.052	12.0294
272.852	10.3242
274.653	9.39802
276.453	9.47404
278.253	9.1942
280.052	8.93375
281.852	9.20306
283.65	9.02357
285.449	8.98604
287.247	9.3876
289.044	9.17538
290.842	9.77296
292.639	9.42033
294.436	10.351
296.232	10.6421
298.028	10.3713
299.821	10.7403
301.617	11.3216
303.412	12.9832
305.206	12.7719
307	13.7694
308.794	15.0374
310.588	16.4732
312.381	16.2915
314.172	17.0749
315.964	17.5816
317.756	18.5634
319.548	18.6875
321.34	20.2056
323.131	20.8243
324.921	22.8577
326.71	21.9796
328.5	21.4559
330.29	21.4484
332.079	21.6793
333.868	20.9715
335.654	20.7693
337.443	20.3353
339.231	20.226
341.018	20.2946
342.804	19.8918
344.591	20.3313
346.377	18.7919
348.163	18.3421
349.947	18.8897
351.733	17.9932
353.518	18.5103
355.303	18.3853
357.085	17.7106
358.869	16.5341
360.653	16.1155
362.435	15.4672
364.218	16.384
366.001	16.7877
367.781	16.7449
369.563	16.8253
371.345	17.2858
373.124	16.8314
374.905	16.4746
376.686	16.3857
378.464	16.1367
380.244	15.0154
382.022	14.8975
383.801	15.5288
385.58	15.242
387.357	15.4727
389.135	15.6039
390.911	15.2905
392.689	15.3261
394.466	15.5705
396.241	15.8482
398.018	15.2393
399.792	14.3373
401.568	13.5324
403.341	14.1296
405.117	14.3005
406.889	13.8994
408.664	13.6195
410.436	14.5337
412.21	14.2024
413.981	14.3563
415.755	13.3206
417.525	14.673
419.298	14.5302
421.068	14.0655
422.84	13.0912
424.609	12.5672
426.38	11.8246
428.149	11.8263
429.919	12.6207
431.688	12.2563
433.455	12.1654
435.225	11.6926
436.992	11.5758
438.76	11.684
440.527	10.9112
442.293	11.6255
444.06	11.5008
445.826	11.1399
447.593	10.9062
449.357	11.0346
451.122	10.4356
452.888	10.3993
454.651	9.69678
456.415	9.60749
458.18	9.81402
459.942	10.157
461.705	9.3999
463.469	8.74361
465.23	8.81569
466.991	8.73952
468.752	8.709
470.515	8.93364
472.275	8.89241
474.035	9.07114
475.797	9.06575
477.556	9.67197
479.315	9.90697
481.073	10.4011
482.834	11.1344
484.592	10.6021
486.349	11.7325
488.106	12.5471
489.863	13.6983
491.622	14.9514
493.378	15.494
495.134	17.1618
496.889	18.8892
498.645	19.8897
500.401	20.021
502.156	20.7223
503.91	21.4535
505.664	22.4827
507.417	21.9523
509.171	22.9183
510.923	23.3633
512.678	23.6874
514.43	23.8059
516.182	23.8915
517.933	23.9446
519.684	23.0044
521.435	22.332
523.186	23.0032
524.936	22.9921
526.686	23.5703
528.435	22.9597
530.184	22.3849
531.933	22.1128
533.682	21.8793
535.43	21.0345
537.18	19.8857
538.927	18.2656
540.674	17.6133
542.421	15.9526
544.167	15.4948
545.913	14.1245
547.659	12.6945
549.403	11.3716
551.148	10.3509
552.893	10.1501
554.637	9.70673
556.381	9.1366
558.125	8.30704
559.868	7.68933
561.611	7.32019
563.354	6.76131
565.097	6.39191
566.839	4.72465
568.581	5.10889
570.322	5.1516
572.063	5.79953
573.802	5.59945
575.542	4.54413
577.283	4.92291
579.022	5.72102
580.762	6.34934
582.501	7.39163
584.24	7.3393
585.976	7.97326
587.714	8.39808
589.452	8.9164
591.19	9.05052
592.927	9.09788
594.663	9.52437
596.398	10.1747
598.134	10.173
599.87	9.9498
601.605	10.4881
603.338	10.8164
605.073	11.3591
606.808	11.4251
608.542	11.4953
610.274	12.3332
612.007	11.9112
613.74	11.6798
615.473	11.1013
617.204	11.0211
618.936	10.7758
620.668	10.3164
622.397	10.3146
624.128	10.2255
625.859	9.64334
627.588	11.0828
629.318	10.7236
631.048	12.1887
632.775	11.9923
634.505	12.4985
636.233	13.165
637.96	13.2375
639.688	13.6681
641.416	14.0699
643.142	14.5252
644.869	14.4319
646.594	14.9571
648.32	15.6628
650.045	16.2662
651.771	17.0751
653.496	17.8485
655.219	18.721
656.944	19.5842
658.667	20.9968
660.391	21.2847
662.113	22.2803
663.837	23.0747
665.558	24.5389
667.281	25.5128
669.002	26.2872
670.724	27.9912
672.444	28.2612
674.166	28.7085
675.885	29.801
677.606	30.4727
679.325	31.2079
681.045	31.6729
682.763	31.5755
684.483	32.3302
686.2	31.8046
687.917	32.41
689.636	32.1565
691.352	32.3787
693.07	32.4855
694.786	32.3062
696.501	33.1725
698.219	33.7713
699.933	33.6466
701.65	34.0988
703.364	33.5669
705.078	34.028
706.793	34.8633
708.506	35.7455
710.219	35.3819
711.934	36.0155
713.646	38.3885
715.358	38.7752
717.071	39.8244
718.782	40.3402
720.493	41.467
722.204	42.7319
723.916	43.7674
725.626	45.4254
727.336	46.2241
729.045	46.9571
730.756	47.7556
732.464	50.0002
734.173	51.194
735.881	52.7751
737.59	53.6209
739.297	54.4424
741.004	55.1626
742.711	57.6325
744.417	58.8552
746.125	59.5799
747.831	61.0811
749.537	62.7193
751.242	64.5589
752.946	66.5999
754.651	68.3153
756.357	69.8722
758.061	70.3213
759.764	71.8719
761.467	72.8718
763.17	72.4974
764.872	72.7402
766.575	73.7202
768.276	75.771
769.978	76.9073
771.679	76.978
773.382	78.5201
775.083	78.6569
776.783	79.3591
778.483	79.1252
780.182	79.0303
781.882	79.0963
783.581	78.5401
785.279	78.0561
786.978	78.2704
788.676	78.2342
790.373	79.3988
792.071	79.5488
793.768	80.7469
795.464	81.4307
797.161	82.6072
798.857	83.5421
800.552	83.1978
802.248	82.9225
803.941	83.728
805.636	83.5864
807.33	83.2765
809.024	83.4604
810.718	83.0112
812.412	81.8174
814.105	81.8767
815.798	81.4286
817.49	81.1569
819.183	80.3024
820.873	79.6278
822.564	78.9789
824.256	78.7741
825.947	78.7113
827.637	79.462
829.328	78.0629
831.016	78.0843
832.705	77.5157
834.395	77.4604
836.084	77.149
837.772	76.6203
839.459	76.5957
841.147	75.7175
842.835	74.1742
844.522	74.049
846.209	73.9838
847.894	73.308
849.581	73.0241
851.267	72.2866
852.953	71.0077
854.637	69.1413
856.322	67.6405
858.007	67.1028
859.689	65.611
861.374	64.7308
863.058	63.9611
864.739	62.6476
866.423	60.9385
868.106	60.2455
869.787	59.949
871.469	59.4754
873.151	59.2907
874.831	58.3718
876.512	57.4892
878.193	56.72
879.872	55.5162
881.553	54.777
883.231	53.7728
884.911	53.0891
886.591	52.8175
888.268	53.0253
889.947	52.234
891.623	51.4658
893.302	49.8271
894.978	49.0695
896.656	47.9709
898.331	48.1164
900.008	47.8071
901.683	48.2143
903.359	47.8874
905.033	47.8376
906.709	48.7179
908.383	48.5681
910.058	48.8373
911.731	49.8084
913.405	49.6463
915.078	50.3844
916.752	49.8399
918.423	50.5877
920.096	50.5468
921.768	50.8254
923.438	51.4706
925.111	50.4615
926.781	50.884
928.452	51.9339
930.122	50.8512
931.791	50.0502
933.462	49.6188
935.13	48.2181
936.799	47.8136
938.468	47.6657
940.136	47.2598
941.803	47.1107
943.472	45.6457
945.139	45.0137
946.805	44.2938
948.473	42.7176
950.139	41.8275
951.804	41.9753
953.471	41.4544
955.136	41.0532
956.801	40.3404
958.465	39.3815
960.131	39.7884
961.794	39.0593
963.458	39.5118
965.12	39.3402
966.785	40.2638
968.447	40.3555
970.109	40.4511
971.771	40.5502
973.432	39.869
975.095	39.5258
976.756	39.2597
978.417	40.6015
980.077	40.8975
981.737	41.4153
983.396	41.8575
985.057	42.0438
986.716	41.6031
988.375	41.3284
990.033	41.4563
991.691	41.3944
993.349	41.3497
995.006	41.5649
996.663	40.3147
998.32	40.5676
999.976	41.3364
1001.63	42.3462
1003.29	42.2901
1004.95	43.1972
1006.6	43.6116
1008.26	43.7955
1009.91	43.5429
1011.56	43.2064
1013.22	42.4849
1014.87	42.1836
1016.53	41.9767
1018.18	41.6621
1019.83	42.1546
1021.48	42.303
1023.14	42.1026
1024.79	41.7102
1026.44	41.3309
1028.09	42.7501
1029.74	42.9504
1031.39	42.9045
1033.04	42.2544
1034.69	42.1202
1036.34	41.5773
1037.99	41.7476
1039.64	40.5803
1041.29	40.3686
1042.94	40.0497
1044.58	38.8094
1046.23	38.1622
1047.88	37.847
1049.52	37.9099
1051.17	36.7486
1052.82	36.5484
1054.46	35.6649
1056.11	33.9154
1057.75	33.3462
1059.4	32.5511
1061.04	31.6145
1062.69	30.2651
1064.33	28.2695
1065.98	27.2887
1067.62	26.7053
1069.26	25.6168
1070.9	24.312
1072.55	24.0885
1074.19	23.9389
1075.83	23.1552
1077.47	23.3784
1079.11	23.0246
1080.76	24.0081
1082.4	24.292
1084.04	23.6873
1085.68	23.3373
1087.32	23.3267
1088.95	22.8169
1090.59	22.8455
1092.23	22.832
1093.87	23.4252
1095.51	24.1891
1097.15	25.135
1098.78	26.1968
1100.42	26.7507
1102.06	27.1045
1103.69	27.4875
1105.33	27.6247
1106.97	27.8585
1108.6	27.9135
1110.24	28.6435
1111.87	27.9579
1113.51	27.2245
1115.14	26.7374
1116.77	27.3658
1118.41	27.4637
1120.04	26.9218
1121.67	26.1021
1123.31	25.471
1124.94	24.6172
1126.57	24.6532
1128.2	24.7097
1129.83	24.2789
1131.47	23.536
1133.1	22.3024
1134.72	20.6972
1136.36	19.4183
1137.98	17.5015
1139.62	17.0056
1141.24	16.4375
1142.87	15.1562
1144.5	14.3453
1146.13	13.8523
1147.76	13.3371
1149.38	12.9651
1151.01	10.5509
1152.64	10.7218
1154.27	11.3241
1155.89	10.9557
1157.52	9.67552
1159.14	8.70809
1160.77	7.15046
1162.39	6.29949
1164.02	5.41111
1165.64	4.5095
1167.27	4.70119
1168.89	4.11387
1170.51	4.10856
1172.14	4.65514
1173.76	4.64319
1175.38	5.13997
1177	5.82716
1178.63	5.95265
1180.25	6.53857
1181.87	7.22348
1183.49	7.07385
1185.11	7.53305
1186.73	7.45314
1188.35	8.21114
1189.97	8.91088
1191.59	10.1411
1193.21	12.0276
1194.83	12.8321
1196.45	15.0148
1198.07	16.1441
1199.68	16.6641
1201.3	17.9857
1202.92	19.0231
1204.53	19.8366
1206.15	21.3368
1207.77	22.5613
1209.38	23.2905
1211	24.5469
1212.62	26.3472
1214.23	26.7139
1215.84	27.9836
1217.46	29.4405
1219.07	30.8314
1220.69	32.8921
1222.3	35.3129
1223.91	36.1186
1225.53	37.4412
1227.14	38.6815
1228.75	39.3943
1230.36	40.7707
1231.97	41.1807
1233.59	43.0242
1235.2	42.6656
1236.81	42.2616
1238.42	42.278
1240.03	42.2079
1241.64	42.7112
1243.25	42.8745
1244.85	43.4077
1246.46	44.4609
1248.07	44.8235
1249.68	45.2731
1251.29	46.2459
1252.9	46.3657
1254.5	46.0458
1256.11	45.6708
1257.72	46.5128
1259.32	47.0636
1260.93	46.8454
1262.54	46.063
1264.14	45.4413
1265.75	46.2604
1267.35	47.0033
1268.96	48.1968
1270.56	49.3979
1272.16	50.8659
1273.77	51.9569
1275.37	51.3981
1276.97	52.6213
1278.57	53.3768
1280.18	55.7696
1281.78	57.1154
1283.38	58.2211
1284.98	59.5492
1286.58	60.0759
1288.18	59.6695
1289.78	59.9212
1291.38	60.0062
1292.99	59.6981
1294.58	61.8083
1296.18	64.1085
1297.78	65.9174
1299.38	68.41
1300.98	70.7211
1302.58	71.975
1304.17	72.2627
1305.77	73.0526
1307.37	74.8941
1308.97	76.3592
1310.56	76.9875
1312.16	76.7244
1313.76	78.2934
1315.35	79.1715
1316.95	79.2907
1318.54	79.8345
1320.14	80.6998
1321.73	81.3546
1323.32	80.4347
1324.92	80.9511
1326.51	81.3225
1328.1	80.3169
1329.7	80.1483
1331.29	79.023
1332.88	77.2447
1334.47	76.6898
1336.07	76.1613
1337.66	76.281
1339.25	74.4905
1340.84	72.7854
1342.43	71.2656
1344.02	70.0846
1345.61	69.3929
1347.2	67.5751
1348.79	66.1186
1350.37	65.2166
1351.96	63.6571
1353.55	61.8545
1355.14	60.8551
1356.73	60.8315
1358.31	59.8683
1359.9	58.1419
1361.49	54.7688
1363.07	52.3823
1364.66	50.1975
1366.25	47.9676
1367.83	46.0512
1369.42	46.0623
1371	45.7831
1372.59	45.5563
1374.17	47.1385
1375.75	45.3681
1377.34	44.311
1378.92	43.7039
1380.5	42.2825
1382.09	40.6513
1383.67	40.1935
1385.25	39.2004
1386.83	38.825
1388.42	37.676
1390	36.6354
1391.58	35.9316
1393.16	36.0887
1394.74	35.7926
1396.32	34.5353
1397.9	33.8233
1399.48	32.6906
1401.06	31.6722
1402.64	31.7778
1404.21	31.5813
1405.79	31.6664
1407.37	31.6838
1408.95	32.2829
1410.53	32.6672
1412.1	33.1229
1413.68	34.4513
1415.26	36.3539
1416.83	37.6517
1418.41	38.7262
1419.98	40.0531
1421.56	41.8373
1423.13	43.9489
1424.71	45.9517
1426.28	48.4968
1427.86	50.9156
1429.43	53.7713
1431	55.5261
1432.58	58.0619
1434.15	60.0986
1435.72	61.3726
1437.29	62.3288
1438.87	63.4156
1440.44	65.2677
1442.01	66.8315
1443.58	68.3827
1445.15	69.6314
1446.72	70.012
1448.29	70.3789
1449.86	70.3271
1451.43	70.4686
1453	70.0174
1454.57	68.3311
1456.14	68.2863
1457.71	67.2178
1459.27	65.62
1460.84	64.0656
1462.41	62.7445
1463.98	60.6624
1465.54	59.0308
1467.11	56.4732
1468.67	54.2289
1470.24	51.706
1471.81	49.175
1473.37	47.0023
1474.94	43.6794
1476.5	40.2462
1478.07	38.4405
1479.63	36.689
1481.19	34.3333
1482.76	31.2259
1484.32	30.4434
1485.88	28.8944
1487.45	26.8737
1489.01	25.654
1490.57	23.6387
1492.13	22.9924
1493.69	22.5774
1495.26	21.0474
1496.82	20.4025
1498.38	19.6268
1499.94	19.2442
1501.5	18.1366
1503.06	18.1765
1504.62	18.304
1506.17	17.033
1507.73	17.0581
1509.29	16.0355
1510.85	16.0374
1512.41	15.2567
1513.97	15.0157
1515.52	15.7182
1517.08	17.0529
1518.64	17.5504
1520.19	17.6301
1521.75	18.42
1523.31	19.6673
1524.86	19.2289
1526.42	20.469
1527.97	20.7636
1529.52	21.7626
1531.08	22.0355
1532.63	23.4367
1534.19	24.9646
1535.74	26.1601
1537.29	27.5319
1538.85	29.1563
1540.4	30.2642
1541.95	31.8517
1543.5	33.8673
1545.06	35.8921
1546.61	38.3762
1548.16	40.0902
1549.71	41.9387
1551.26	44.4076
1552.81	46.0717
1554.36	48.2963
1555.91	51.1953
1557.46	53.3075
1559.01	55.0501
1560.56	57.7589
1562.11	59.7345
1563.65	60.8431
1565.2	62.757
1566.75	64.7642
1568.29	66.3239
1569.84	68.3532
1571.39	69.8349
1572.94	70.8188
1574.48	71.9413
1576.03	72.9526
1577.57	74.1474
1579.12	74.7751
1580.66	75.6723
1582.21	75.5806
1583.75	75.0161
1585.3	74.9303
1586.84	73.876
1588.38	73.776
1589.93	73.1672
1591.47	72.368
1593.01	71.7022
1594.55	70.725
1596.1	69.2397
1597.64	68.4767
1599.18	66.8481
1600.72	65.6673
1602.26	63.8552
1603.8	63.201
1605.34	61.3221
1606.88	60.6243
1608.42	59.4155
1609.96	58.6745
1611.5	58.0484
1613.04	56.6817
1614.58	55.8251
1616.12	55.5265
1617.65	55.309
1619.19	56.5895
1620.73	56.7401
1622.27	57.1732
1623.8	56.6997
1625.34	57.4286
1626.87	58.0637
1628.41	59.189
1629.95	60.185
1631.48	61.3825
1633.02	61.6177
1634.55	62.7594
1636.09	62.9018
1637.62	64.1127
1639.15	64.7491
1640.69	66.1226
1642.22	67.3943
1643.76	68.0723
1645.29	68.7196
1646.82	68.808
1648.35	69.8553
1649.88	70.3604
1651.42	71.3283
1652.95	71.8317
1654.48	72.0705
1656.01	70.914
1657.54	70.1099
1659.07	69.1684
1660.6	67.6161
1662.13	65.7702
1663.66	64.2857
1665.19	62.7535
1666.72	61.4151
1668.24	59.7774
1669.77	58.1066
1671.3	55.863
1672.83	53.6463
1674.35	51.0841
1675.88	48.5373
1677.41	46.3247
1678.93	43.8613
1680.46	41.279
1681.99	38.8037
1683.51	36.3474
1685.04	34.1676
1686.56	31.6552
1688.09	29.0931
1689.61	27.0635
1691.13	25.2897
1692.66	23.6045
1694.18	22.1339
1695.71	20.1702
1697.23	19.1963
1698.75	17.9902
1700.27	16.6304
1701.8	15.6989
1703.32	14.9563
1704.84	14.297
1706.36	13.9838
1707.88	13.0672
1709.4	11.525
1710.92	11.2942
1712.44	10.18
1713.96	10.0401
1715.48	9.69618
1717	8.85969
1718.52	8.28349
1720.04	7.59198
1721.56	6.63233
1723.07	6.36305
1724.59	6.52368
1726.11	6.44909
1727.63	6.0328
1729.14	5.19426
1730.66	4.61066
1732.18	3.97912
1733.69	3.47582
1735.21	3.21734
1736.72	2.65891
1738.24	2.37756
1739.75	3.10782
1741.27	2.65067
1742.78	3.11828
1744.3	2.41187
1745.81	2.04289
1747.32	1.31375
1748.84	0.804343
1750.35	0.802895
1751.86	0.171562
1753.37	-0.218112
1754.89	-0.0316409
1756.4	0.21932
1757.91	0.0816258
1759.42	0.179016
1760.93	0.170551
1762.44	0.249451
1763.95	0.108597
1765.46	0.532964
1766.97	0.107996
1768.48	0.704216
1769.99	1.12102
1771.5	1.40898
1773.01	2.73859
1774.52	2.15843
1776.03	2.57301
1777.53	3.00991
1779.04	4.07213
1780.55	3.86219
1782.06	3.95336
1783.56	2.99266
1785.07	3.18152
1786.57	3.58057
1788.08	3.29759
1789.59	3.24303
1791.09	3.11532
1792.6	2.55041
1794.1	2.62542
1795.6	2.30242
1797.11	2.40605
1798.61	2.59344
1800.12	2.57301
1801.62	2.9151
1803.12	2.44433
1804.63	2.96245
1806.13	2.99907
1807.63	3.50641
1809.13	3.27185
1810.63	4.51231
1812.14	4.6169
1813.64	5.01288
1815.14	4.93293
1816.64	4.93069
1818.14	4.88537
1819.64	4.89798
1821.14	4.97545
1822.64	4.57232
1824.14	4.68469
1825.63	5.33539
1827.13	5.69784
1828.63	5.82658
1830.13	6.13995
1831.63	6.39933
1833.12	6.16288
1834.62	6.12545
1836.12	5.6708
1837.62	5.95992
1839.11	6.03058
1840.61	5.85122
1842.1	5.9086
1843.6	6.44473
1845.09	6.72478
1846.59	6.74544
1848.08	6.86662
1849.58	6.91111
1851.07	7.11431
1852.57	6.71377
1854.06	6.07975
1855.55	5.67077
1857.04	5.4477
1858.54	5.19791
1860.03	5.08331
1861.52	4.64129
1863.01	4.95914
1864.5	4.65891
1866	4.78518
1867.49	4.87059
1868.98	5.17584
1870.47	4.73305
1871.96	4.51206
1873.45	4.71551
1874.94	4.79467
1876.43	5.00388
1877.92	5.39704
1879.41	5.86446
1880.89	5.97129
1882.38	6.52508
1882.48	6.13378
1883.97	6.53161
1885.47	6.19551
1886.96	6.64072
1888.46	6.45507
1889.95	6.93608
1891.44	6.45458
1892.94	7.06399
1894.43	6.83926
1895.92	7.08632
1897.41	7.44756
1898.9	7.46638
1900.4	7.77676
1901.89	7.21536
1903.38	7.61222
1904.87	7.79259
1906.36	7.82715
1907.85	7.81489
1909.34	7.92356
1910.83	8.33342
1912.32	8.77749
1913.81	8.82205
1915.29	9.08463
1916.78	9.15395
1918.27	9.12553
1919.76	9.3793
1921.25	9.80066
1922.74	10.0551
1924.22	9.9497
1925.71	10.0668
1927.2	11.066
1928.68	11.2224
1930.17	10.9587
1931.65	10.9236
1933.14	11.1335
1934.63	11.5507
1936.11	11.6625
1937.59	11.2162
1939.08	11.3625
1940.56	11.5817
1942.05	12.0209
1943.53	11.9048
1945.01	12.4093
1946.5	12.8088
1947.98	12.5161
1949.46	12.6452
1950.94	12.4413
1952.43	12.1505
1953.91	12.1016
1955.39	12.0975
1956.87	11.1521
1958.35	11.1168
1959.83	11.3897
1961.31	11.3181
1962.79	10.3605
1964.27	10.7625
1965.75	10.0715
1967.23	10.1442
1968.71	9.88443
1970.19	10.0822
1971.67	9.96201
1973.14	9.82218
1974.62	9.91036
1976.1	9.43999
1977.58	9.32664
1979.05	9.50551
1980.53	8.96437
1982.01	8.64148
1983.48	8.7026
1984.96	8.5641
1986.43	8.95645
1987.91	8.91184
1989.38	9.10752
1990.86	8.91458
1992.33	9.29959
1993.81	9.99258
1995.28	10.4049
1996.76	10.6318
1998.23	10.4685
1999.7	10.9344
2001.18	11.247
2002.65	10.0916
2004.12	10.7617
2005.59	10.7089
2007.06	10.4307
2008.54	10.7956
2010.01	10.9856
2011.48	11.6257
2012.95	12.3933
2014.42	12.5864
2015.89	12.5726
2017.36	12.3803
2018.83	12.3584
2020.3	12.0801
2021.77	11.8462
2023.24	11.8794
2024.71	11.8233
2026.17	11.9295
2027.64	11.7495
2029.11	11.679
2030.58	11.1351
2032.04	11.551
2033.51	11.8765
2034.98	11.5268
2036.45	11.832
2037.91	12.7833
2039.38	13.0111
2040.84	13.6897
2042.31	14.0117
2043.77	13.9415
2045.24	13.6469
2046.7	14.1104
2048.17	14.6359
2049.63	14.7652
2051.1	14.6952
2052.56	15.1894
2054.02	15.5914
2055.48	16.0581
2056.95	16.5676
2058.41	16.5783
2059.87	17.397
2061.33	17.4278
2062.8	17.8239
2064.26	17.9298
2065.72	18.6565
2067.18	19.1408
2068.64	19.8173
2070.1	20.4543
2071.56	20.6797
2073.02	21.9024
2074.48	21.8646
2075.94	22.1577
2077.4	23.5739
2078.86	23.4621
2080.31	24.1718
2081.77	24.8877
2083.23	25.001
2084.69	24.9575
2086.14	24.7639
2087.6	24.6518
2089.06	24.7489
2090.52	24.4504
2091.97	24.3065
2093.43	24.9732
2094.88	25.2937
2096.34	25.6047
2097.79	25.7566
2099.25	26.4705
2100.7	27.138
2102.16	27.9118
2103.61	28.687
2105.07	29.694
2106.52	30.0187
2107.97	30.2401
2109.43	31.0277
2110.88	31.1678
2112.33	31.4569
2113.78	31.8714
2115.24	32.6031
2116.69	33.41
2118.14	34.6183
2119.59	35.8958
2121.04	36.2243
2122.49	37.2185
2123.94	38.6088
2125.39	40.0921
2126.84	41.6464
2128.29	42.9062
2129.74	44.3741
2131.19	45.2282
2132.64	46.3804
2134.09	47.8715
2135.54	49.2121
2136.98	50.4882
2138.43	51.6343
2139.88	53.6605
2141.33	54.7882
2142.77	55.9333
2144.22	57.2257
2145.67	58.7506
2147.11	59.5229
2148.56	60.9889
2150.01	62.755
2151.45	63.2593
2152.9	63.5978
2154.34	64.7189
2155.79	66.0744
2157.23	66.8361
2158.67	67.4031
2160.12	68.1949
2161.56	68.2483
2163	69.2521
2164.45	70.4729
2165.89	71.0328
2167.33	71.8454
2168.78	72.3099
2170.22	72.2965
2171.66	72.6912
2173.1	72.6895
2174.54	72.7386
2175.98	72.5532
2177.42	72.0934
2178.86	71.9667
2180.3	70.6691
2181.74	70.8094
2183.18	69.9849
2184.62	70.047
2186.06	70.216
2187.5	69.8558
2188.94	69.9452
2190.38	69.2604
2191.82	67.9878
2193.25	66.8186
2194.69	66.9276
2196.13	65.9769
2197.57	64.4965
2199	63.9902
2200.44	62.8389
2201.88	62.0557
2203.31	60.1093
2204.75	59.135
2206.18	58.3257
2207.62	57.0219
2209.05	55.8388
2210.49	54.1555
2211.92	53.3226
2213.36	52.1307
2214.79	51.1146
2216.22	49.9531
2217.66	48.5296
2219.09	47.428
2220.52	46.9466
2221.96	45.4942
2223.39	43.918
2224.82	42.8737
2226.25	42.1095
2227.68	40.6615
2229.11	39.4209
2230.55	38.2627
2231.98	37.8277
2233.41	37.0089
2234.84	37.0784
2236.27	35.9946
2237.7	35.1708
2239.12	34.8264
2240.55	33.9877
2241.98	33.2843
2243.41	32.9964
2244.84	33.3357
2246.27	32.9978
2247.7	32.372
2249.12	31.7537
2250.55	31.2522
2251.98	30.172
2253.41	30.6044
2254.83	29.9157
2256.26	30.1259
2257.68	30.0496
2259.11	29.085
2260.54	29.1094
2261.96	28.1939
2263.39	28.0096
2264.81	27.6792
2266.24	27.8
2267.66	27.2879
2269.08	26.8152
2270.51	27.3243
2271.93	27.0357
2273.35	26.6679
2274.78	25.8968
2276.2	26.1637
2277.62	25.3917
2279.04	25.2203
2280.47	24.3219
2281.89	23.5851
2283.31	23.2216
2284.73	22.6911
2286.15	22.0331
2287.57	21.6165
2288.99	21.3462
2290.41	20.8215
2291.83	19.7709
2293.25	18.8716
2294.67	18.6386
2296.09	18.348
2297.51	18.073
2298.93	18.0586
2300.35	17.9032
2301.76	17.5548
2303.18	18.2213
2304.6	18.3132
2306.02	18.6654
2307.44	18.1147
2308.85	18.6901
2310.27	18.7446
2311.69	19.17
2313.1	18.7807
2314.52	18.7946
2315.93	18.5778
2317.35	17.9783
2318.76	17.8588
2320.18	17.9954
2321.59	18.0104
2323.01	17.8002
2324.42	17.8615
2325.83	17.7406
2327.25	17.8883
2328.66	17.637
2330.07	17.4829
2331.49	17.4692
2332.9	17.0681
2334.31	17.1533
2335.72	16.6739
2337.13	16.3914
2338.55	16.6433
2339.96	16.4007
2341.37	15.3574
2342.78	15.1452
2344.19	14.9219
2345.6	14.7376
2347.01	14.1932
2348.42	13.1916
2349.83	12.7527
2351.24	11.6626
2352.65	11.0787
2354.05	10.6441
2355.46	10.4559
2356.87	10.0248
2358.28	9.41508
2359.69	9.00072
2361.09	8.84374
2362.5	8.70628
2363.91	8.81781
2365.31	8.34072
2366.72	8.55352
2368.13	8.26424
2369.53	8.03456
2370.94	7.93874
2372.34	8.6341
2373.75	9.11307
2375.15	9.35767
2376.56	8.60071
2377.96	8.55603
2379.37	8.88422
2380.77	8.54331
2382.17	8.46732
2383.58	8.37579
2384.98	8.47306
2386.38	8.8796
2387.79	9.83277
2389.19	9.63383
2390.59	9.94571
2391.99	9.52735
2393.39	9.21393
2394.8	9.10402
2396.2	9.26614
2397.6	9.7852
2399	9.6592
2400.4	9.85846
2401.8	9.56611
2403.2	10.1472
2404.6	9.90376
2406	9.59849
2407.4	9.39163
2408.79	9.43458
2410.19	8.59146
2411.59	8.55503
2412.99	9.4928
2414.39	9.14675
2415.78	8.81184
2417.18	8.68916
2418.58	8.98971
2419.98	9.26209
2421.37	8.68504
2422.77	9.07351
2424.16	8.91631
2425.56	8.78295
2426.96	8.49147
2428.35	8.22727
2429.74	8.20375
2431.14	7.78965
2432.53	7.10017
2433.93	7.10927
2435.32	7.28224
2436.72	7.53431
2438.11	6.85924
2439.5	6.94922
2440.9	7.40824
2442.29	7.69289
2443.68	6.86793
2445.07	6.35483
2446.47	5.55752
2447.86	5.97967
2449.25	5.72218
2450.64	4.83991
2452.03	4.12528
2453.42	4.01824
2454.81	3.37761
2456.2	3.18678
2457.59	2.5751
2458.98	1.70973
2460.37	1.3843
2461.76	0.758675
2463.15	0.816678
2464.54	0.726963
2465.93	1.18607
2467.32	0.445056
2468.7	0.707059
2470.09	0.877969
2471.48	0.176407
2472.87	0.450007
2474.25	0.246538
2475.64	0.827296
2477.03	1.01336
2478.41	0.549371
2479.8	1.0532
2481.18	1.77282
2482.57	1.58352
2483.95	1.88404
2485.34	1.77583
2486.72	1.77492
2488.11	2.27829
2489.49	2.1194
2490.88	1.86591
2492.26	2.77597
2493.65	2.57584
2495.03	2.70602
2496.41	2.39255
2497.79	2.67592
2499.18	3.52622
2500.56	3.75104
2501.94	4.29498
2503.32	4.94736
2504.7	5.30636
2506.09	5.26377
2507.47	5.41339
2508.85	5.62816
2510.23	5.56371
2511.61	5.12119
2512.99	4.7333
2514.37	5.08065
2515.75	5.33822
2517.13	4.8103
2518.51	4.44062
2519.89	4.31855
2521.26	4.48911
2522.64	4.60299
2524.02	4.20788
2525.4	4.1295
2526.78	3.78806
2528.15	3.94027
2529.53	3.51241
2530.91	3.38657
2532.28	3.32509
2533.66	3.42746
2535.04	3.7486
2536.41	3.42283
2537.79	4.00365
2539.16	3.79724
2540.54	2.96291
2541.91	3.30696
2543.29	2.85399
2544.66	3.09199
2546.04	3.07656
2547.41	2.85632
2548.78	3.09219
2550.16	2.568
2551.53	1.8292
2552.9	1.36057
2554.27	1.12837
2555.65	1.22877
2557.02	1.17419
2558.39	0.635404
2559.76	0.151568
2561.13	-0.200815
2562.51	-0.442438
2563.88	-0.511271
2565.25	-0.386367
2566.62	0.430767
2567.99	0.648552
2569.36	0.676673
2570.73	0.858086
2572.1	1.54777
2573.47	1.89984
2574.84	1.08846
2576.2	1.18992
2577.57	0.938703
2578.94	1.09808
2580.31	0.956691
2581.68	1.08476
2583.05	1.21315
2584.41	1.24907
2585.78	0.885913
2587.15	1.11323
2588.51	1.22206
2589.88	0.861031
2591.24	0.866862
2592.61	0.51316
2593.98	0.37326
2595.34	0.242788
2596.71	0.19136
2598.07	0.047009
2599.44	0.761033
2600.8	1.40868
2602.16	1.67036
2603.53	2.24407
2604.89	2.24857
2606.26	2.20152
2607.62	2.31074
2608.98	1.61373
2610.34	2.48687
2611.71	2.67055
2613.07	3.37654
2614.43	3.24425
2615.79	3.21067
2617.15	2.94784
2618.52	2.88974
2619.88	2.77565
2621.24	2.55832
2622.6	2.7457
2623.96	3.08914
2625.32	2.92836
2626.68	2.99222
2628.04	3.14156
2629.4	3.35741
2630.75	3.53816
2632.11	3.5091
2633.47	3.19749
2634.83	3.31118
2636.19	2.96173
2637.55	2.86111
2638.9	2.95155
2640.26	3.31209
2641.62	2.53264
2642.98	2.40696
2644.33	2.90508
2645.69	2.85087
2647.04	2.76859
2648.4	2.43686
2649.76	2.57835
2651.11	2.31482
2652.47	2.11457
2653.82	2.27608
2655.18	2.37389
2656.53	2.52477
2657.88	2.31723
2659.24	2.43675
2660.59	2.41315
2661.95	2.40183
2663.3	2.99387
2664.65	3.44045
2666	4.28711
2667.36	4.57066
2668.71	5.33844
2670.06	5.78021
2671.41	6.28047
2672.76	6.01932
2674.12	6.08812
2675.47	6.6023
2676.82	6.25847
2678.17	6.37949
2679.52	6.25064
2680.87	6.42935
2682.22	5.98801
2683.57	5.69427
2684.92	5.02778
2686.27	5.20566
2687.62	5.18345
2688.97	5.08999
2690.31	5.57654
2691.66	5.08091
2693.01	4.62307
2694.36	4.85495
2695.71	4.415
2697.05	4.30947
2698.4	3.96339
2699.75	3.76823
2701.09	3.74774
2702.44	3.62308
2703.78	3.67077
2705.13	4.18055
2706.48	4.63288
2707.82	4.66871
2709.17	4.12284
2710.51	4.28452
2711.86	4.09744
2713.2	4.013
2714.54	4.63822
2715.89	4.25187
2717.23	4.39256
2718.57	4.17991
2719.92	4.41781
2721.26	4.45112
2722.6	4.04375
2723.95	4.37377
2725.29	4.25518
2726.63	4.32755
2727.97	4.40867
2729.31	4.2032
2730.65	4.64524
2732	4.92419
2733.34	5.3073
2734.68	4.90093
2736.02	5.19043
2737.36	5.09358
2738.7	4.80191
2740.04	4.7353
2741.38	4.64995
2742.72	4.16557
2744.05	3.90291
2745.39	3.71206
2746.73	4.12002
2748.07	4.03713
2749.41	3.86846
2750.75	3.88778
2752.08	4.06159
2753.42	4.23821
2754.76	3.9339
2756.09	3.72036
2757.43	3.54174
2758.77	3.39982
2760.1	4.11418
2761.44	4.33558
2762.78	3.99483
2764.11	3.94874
2765.44	3.76888
2766.78	3.84273
2768.11	3.69016
2769.45	3.00631
2770.78	3.94727
2772.12	3.7014
2773.45	3.45917
2774.78	3.55635
2776.12	3.66211
2777.45	3.71574
2778.78	3.69314
2780.12	3.53604
2781.45	3.75904
2782.78	2.65706
2784.11	2.35532
2785.44	1.96633
2786.78	2.31189
2788.11	1.98142
2789.44	1.82207
2790.77	1.39736
2792.1	1.42614
2793.43	0.785729
2794.76	0.751381
2796.09	0.636289
2797.42	0.631207
2798.75	0.34618
2800.08	-0.384368
2801.4	-0.890219
2802.73	-0.752995
2804.06	-0.467575
2805.39	-0.908879
2806.72	-0.580324
2808.05	-0.83442
2809.37	-1.24057
2810.7	-1.30387
2812.03	-1.72282
2813.35	-1.64032
2814.68	-2.04172
2816.01	-2.07776
2817.33	-1.5651
2818.66	-1.30662
2819.98	-0.62886
2821.31	0.701009
2822.63	1.05995
2823.96	2.17316
2825.28	2.99234
2826.61	4.38508
2827.93	5.48537
2829.25	6.35073
2830.58	7.98893
2831.9	10.4427
2833.23	12.2582
2834.55	13.7267
2835.87	15.747
2837.19	18.8932
2838.52	21.1908
2839.84	23.3994
2841.16	26.5277
2842.48	28.6614
2843.8	31.0256
2845.12	33.5445
2846.44	36.5206
2847.77	40.2938
2849.08	43.0807
2850.4	46.9121
2851.73	50.8148
2853.05	54.5301
2854.36	57.9607
2855.68	62.6777
2857	66.2124
2858.32	70.6042
2859.64	74.3195
2860.96	78.5776
2862.28	82.4843
2863.59	85.869
2864.91	89.2006
2866.23	92.2345
2867.55	95.095
2868.86	97.8293
2870.18	100.54
2871.5	102.76
2872.81	105.408
2874.13	107.035
2875.44	109.071
2876.76	111.18
2878.07	113.057
2879.39	114.649
2880.7	116.873
2882.02	118.849
2883.33	120.424
2884.65	121.752
2885.96	123.109
2887.28	124.357
2888.59	125.928
2889.9	128.131
2891.21	129.997
2892.53	133.351
2893.84	135.501
2895.15	137.975
2896.46	140.34
2897.78	142.476
2899.09	145.07
2900.4	147.699
2901.71	151.319
2903.02	155.358
2904.33	158.479
2905.64	161.789
2906.95	166.506
2908.26	170.793
2909.57	175.669
2910.88	180.752
2912.19	186.799
2913.5	192.537
2914.81	196.967
2916.12	202.721
2917.43	207.431
2918.73	212.957
2920.04	217.631
2921.35	221.877
2922.66	224.874
2923.96	228.21
2925.27	230.755
2926.58	233.424
2927.88	234.963
2929.19	235.825
2930.5	236.741
2931.8	237.262
2933.11	237.115
2934.41	236.535
2935.72	236.286
2937.02	235.606
2938.33	234.478
2939.63	232.709
2940.94	230.593
2942.24	228.664
2943.54	225.819
2944.85	223.132
2946.15	219.745
2947.45	216.534
2948.76	212.654
2950.06	208.988
2951.36	204.956
2952.66	201.865
2953.97	198.582
2955.27	194.392
2956.57	190.762
2957.87	187.336
2959.17	182.731
2960.47	178.778
2961.77	174.553
2963.07	171.174
2964.37	167.777
2965.67	164.473
2966.97	160.617
2968.27	156.929
2969.57	153.38
2970.87	150.626
2972.17	147.195
2973.47	143.667
2974.77	139.745
2976.07	136.085
2977.36	132.709
2978.66	128.641
2979.96	124.816
2981.26	121.14
2982.55	116.94
2983.85	113.093
2985.15	108.415
2986.44	104.083
2987.74	99.8949
2989.03	95.4135
2990.33	91.3211
2991.63	87.5148
2992.92	82.738
2994.21	79.1363
2995.51	75.0032
2996.8	70.7475
2998.1	66.7324
2999.39	63.1422
3000.69	60.5302
3001.98	57.2224
3003.27	53.6005
3004.57	50.3662
3005.86	47.3177
3007.15	45.5216
3008.44	42.5821
3009.74	40.3058
3011.03	37.9333
3012.32	36.0483
3013.61	33.5421
3014.9	32.2109
3016.19	30.5249
3017.48	29.1612
3018.78	27.8684
3020.07	26.3417
3021.36	25.5847
3022.65	24.5134
3023.94	23.6204
3025.23	22.8042
3026.51	21.7133
3027.8	21.2352
3029.09	20.8839
3030.38	20.4895
3031.67	19.516
3032.96	19.9547
3034.24	19.7743
3035.53	19.5299
3036.82	19.0352
3038.11	19.8848
3039.39	20.316
3040.68	20.762
3041.97	21.3689
3043.25	21.8586
3044.54	21.9653
3045.83	22.5084
3047.11	23.0036
3048.4	23.2172
3049.68	23.673
3050.97	23.6046
3052.25	23.673
3053.54	23.4462
3054.82	23.4938
3056.11	23.4976
3057.39	23.2069
3058.67	22.974
3059.96	22.2983
3061.24	21.8988
3062.52	21.7851
3063.81	21.1722
3065.09	21.1299
3066.37	19.9015
3067.65	18.9324
3068.94	18.5614
3070.22	17.9785
3071.5	17.764
3072.78	16.3733
3074.06	15.6498
3075.34	14.4806
3076.62	13.2095
3077.9	12.6069
3079.18	11.729
3080.46	10.4437
3081.74	9.4962
3083.02	8.15397
3084.3	6.77454
3085.58	5.7654
3086.86	4.86763
3088.14	4.25143
3089.42	3.22024
3090.69	2.50898
3091.97	1.91294
3093.25	1.50657
3094.53	0.72688
3095.8	0.308317
3097.08	0.338332
3098.36	-0.693815
3099.63	-1.08527
3100.91	-0.938842
3102.19	-1.10511
3103.46	-1.45694
3104.74	-1.03872
3106.01	-0.857343
3107.29	-1.24075
3108.56	-1.37055
3109.84	-1.16267
3111.11	-1.0454
3112.39	-0.70885
3113.66	-0.576641
3114.94	-0.693419
3116.21	-0.719886
3117.48	-0.766265
3118.76	-0.594743
3120.03	-0.575751
3121.3	-0.660907
3122.57	-0.570648
3123.85	-0.575206
3125.12	-0.657106
3126.39	-0.237547
3127.66	-0.381773
3128.93	-0.221344
3130.21	-0.754861
3131.48	-0.21826
3132.75	0.0527166
3134.02	0.312519
3135.29	0.889177
3136.56	0.816065
3137.83	1.31169
3139.1	1.35743
3140.37	1.62032
3141.64	1.9073
3142.91	1.87858
3144.17	2.04324
3145.44	2.51836
3146.71	3.36569
3147.98	3.50796
3149.25	3.7074
