#Acq. time (s)=	45
#Accumulations=	2
#Range (cm-¹)=	200...3150
#Windows=	2
#Auto scanning=	Off
#Autofocus=	Off
#Macrospot=	Off
#AutoExposure=	Off
#Spike filter=	Multiple accum.
#Delay time (s)=	0
#Binning=	1
#Readout mode=	Signal
#DeNoise=	Off
#ICS correction=	On
#Dark correction=	Off
#Inst. Process=	Off
#Detector Gain=	Best Dynamic Range
#Detector ADC=	20 kHz       
#Detector temperature (°C)=	-69.85
#Instrument=	LabRAM HR Evol
#Detector=	Synapse
#Objective=	x100
#Grating=	600 gr/mm
#ND Filter=	100%
#Laser (nm)=	532 
#Hole=	100.021
#Range=	Auto
#Laser Pol.=	No
#Raman. Pol.=	No
#Laser Pol. (°)=	-0.0007625
#Raman Pol. (°)=	89.9995
#Collection=	Microscope
#StageXY=	Marzhauser
#StageZ=	Marzhauser
#X (µm)=	-5924.4
#Y (µm)=	2830.8
#Z (µm)=	-223.35
#Full time(mm:ss)=	3:05
#Project=	
#Sample=	
#Site=	
#Title=	Thy_20_09_03_2x_45s_532 nm_x100_100%_600 gr_mm
#Remark=	
#Date=	29.06.2022 10:56
#Acquired=	29.06.2022 10:56:09
#Base:Fit=	10.08.2022 09:49:32
#Base:Fit=	10.08.2022 09:49:42
#Base:Fit=	10.08.2022 09:49:53
#Base:Fit=	10.08.2022 09:50:12
#Base:Fit=	10.08.2022 09:50:26
#Base:Fit=	10.08.2022 09:50:30
#Base:Fit=	10.08.2022 09:50:43
#Base:Fit=	10.08.2022 09:52:02
#Base:Fit=	10.08.2022 09:52:12
#Base:Sub=	10.08.2022 09:54:21
#Filter:Polynom=	16.08.2022 10:24:04
#AxisType[0]=Intens
#AxisUnit[0]=Cnt
#AxisType[1]=Spectr
#AxisUnit[1]=1/cm
200.523	22.7171
202.339	18.7822
204.154	16.2149
205.967	13.4476
207.781	11.8061
209.596	10.6241
211.409	9.82144
213.222	8.80914
215.034	8.01659
216.848	7.65938
218.659	8.17582
220.47	6.63559
222.281	5.25589
224.091	5.25522
225.903	4.20972
227.713	4.5744
229.522	4.95144
231.331	4.94087
233.14	4.38379
234.948	4.16758
236.756	3.72891
238.566	3.10955
240.373	3.67592
242.18	2.48819
243.986	1.49261
245.792	2.64307
247.598	2.87905
249.403	3.05897
251.208	4.04329
253.013	4.03955
254.818	2.75337
256.624	3.20693
258.427	3.77215
260.231	3.49293
262.034	4.00378
263.836	3.62247
265.638	4.20017
267.44	4.03998
269.242	4.1388
271.043	5.17035
272.844	5.30318
274.645	5.31148
276.445	4.53432
278.245	3.57392
280.044	2.79498
281.843	5.3372
283.642	5.91255
285.44	5.90241
287.238	7.29835
289.036	8.73507
290.833	9.46657
292.63	10.5983
294.425	10.545
296.221	11.4823
298.017	11.9595
299.813	13.3074
301.608	13.1746
303.403	13.7215
305.198	13.9391
306.992	14.4489
308.786	14.6522
310.579	14.4046
312.371	15.2462
314.163	15.6532
315.956	15.232
317.748	15.4712
319.54	15.4819
321.331	15.7842
323.122	15.1238
324.911	15.0801
326.701	14.2215
328.491	14.2397
330.281	14.0651
332.071	13.7615
333.857	14.6964
335.646	15.4545
337.434	15.2602
339.222	15.052
341.008	15.3556
342.795	14.2461
344.582	14.4935
346.369	15.4138
348.153	15.4896
349.939	15.8227
351.724	16.5929
353.51	15.4622
355.292	14.7167
357.077	13.9155
358.861	13.4039
360.643	12.1656
362.426	11.9965
364.21	11.9628
365.99	12.2997
367.773	12.9683
369.555	12.6896
371.335	14.1869
373.116	13.3835
374.897	12.8008
376.676	12.5141
378.456	12.3118
380.236	12.0094
382.014	11.8469
383.793	10.803
385.57	11.2915
387.349	11.5956
389.127	11.5178
390.903	10.7823
392.681	10.5804
394.456	10.0473
396.233	10.584
398.007	9.78091
399.784	9.72001
401.56	9.15218
403.333	7.90201
405.108	7.7686
406.881	7.92347
408.656	8.34518
410.428	7.9669
412.202	7.32526
413.973	7.11353
415.746	7.03463
417.517	7.796
419.29	7.45117
421.06	7.82111
422.831	6.96729
424.601	6.83204
426.37	6.8996
428.141	6.76135
429.909	7.36197
431.679	7.43245
433.447	8.38878
435.216	8.59177
436.983	8.23167
438.75	8.15953
440.519	8.01645
442.285	7.104
444.052	7.14812
445.818	8.42177
447.583	9.19119
449.349	10.026
451.114	10.2554
452.878	10.8739
454.643	10.0638
456.407	10.669
458.169	10.7587
459.934	11.5929
461.696	11.9232
463.458	11.8068
465.222	12.935
466.983	13.092
468.744	13.4096
470.507	13.1882
472.267	13.1565
474.027	14.144
475.787	15.0574
477.548	15.4369
479.307	15.1289
481.065	15.6338
482.823	16.5082
484.583	16.7025
486.341	16.382
488.098	17.1215
489.855	16.8675
491.612	16.8158
493.37	17.6448
495.126	17.6265
496.881	17.3194
498.636	17.287
500.391	17.0462
502.148	16.3985
503.902	16.4415
505.656	15.9024
507.409	14.0295
509.162	14.1401
510.915	14.1708
512.668	14.4024
514.42	14.5099
516.174	15.8392
517.925	15.4298
519.676	15.6648
521.427	16.5781
523.178	16.2166
524.928	15.3829
526.678	15.5585
528.427	15.436
530.176	15.564
531.925	14.8729
533.673	14.116
535.422	13.5454
537.169	12.0302
538.917	11.6
540.664	11.7781
542.411	10.4896
544.157	10.1756
545.903	9.14936
547.649	8.8956
549.395	8.38393
551.14	7.20886
552.884	7.04115
554.629	6.12979
556.373	6.23967
558.117	5.6487
559.86	5.57878
561.603	5.95542
563.346	6.02642
565.089	5.37075
566.831	5.32053
568.573	6.31686
570.314	6.17972
572.053	6.5011
573.794	6.53811
575.534	6.58944
577.274	6.69905
579.014	6.8737
580.754	6.99454
582.493	7.11484
584.23	7.75348
585.968	7.47327
587.706	7.60209
589.444	7.92766
591.181	7.77576
592.919	7.88036
594.653	7.07675
596.39	8.38423
598.126	8.53789
599.862	8.48842
601.595	9.06569
603.33	9.63612
605.065	9.44051
606.8	11.3596
608.532	12.5033
610.266	11.9207
611.999	12.0605
613.732	12.4375
615.463	11.5314
617.196	11.1596
618.928	10.1565
620.66	9.62947
622.389	10.3841
624.12	9.31876
625.851	10.2345
627.58	9.40943
629.31	8.15389
631.04	8.4582
632.767	8.122
634.497	8.36908
636.223	8.31713
637.952	9.76509
639.68	11.3839
641.406	11.1901
643.134	10.7942
644.861	10.9713
646.586	11.316
648.312	12.0693
650.037	12.3081
651.762	13.0158
653.486	13.6574
655.211	14.1225
656.936	14.7618
658.659	15.0087
660.383	14.9469
662.105	15.3422
663.829	16.4473
665.55	17.1124
667.273	17.9427
668.994	18.272
670.716	19.1667
672.436	19.5962
674.158	20.7961
675.877	21.1524
677.598	21.9014
679.317	22.2286
681.035	22.5062
682.755	24.299
684.473	26.2513
686.192	27.1721
687.909	28.2596
689.628	28.8416
691.344	30.0729
693.06	31.44
694.778	31.5204
696.493	30.3436
698.211	30.8239
699.925	31.0815
701.64	30.231
703.356	30.6466
705.07	31.1261
706.783	31.5399
708.498	32.5902
710.211	33.8121
711.924	34.6346
713.638	34.7796
715.35	34.953
717.061	36.397
718.774	37.3269
720.485	37.9874
722.196	39.2819
723.906	40.5182
725.618	39.9841
727.328	39.303
729.037	39.6993
730.746	40.0418
732.456	39.8761
734.165	40.6539
735.873	41.2213
737.58	42.0431
739.289	42.8654
740.997	44.4018
742.703	44.9664
744.41	45.8309
746.116	47.9611
747.823	50.2119
749.529	52.1899
751.234	54.1774
752.938	56.5734
754.643	58.2036
756.347	60.3379
758.051	61.5413
759.756	63.0725
761.459	64.458
763.162	66.1851
764.865	68.4158
766.567	70.5253
768.269	71.6895
769.97	73.1579
771.671	73.3634
773.372	74.2888
775.073	74.9493
776.773	76.232
778.473	77.1511
780.174	78.1925
781.874	79.3809
783.573	80.0798
785.271	80.5443
786.97	80.9845
788.668	82.3269
790.365	84.5461
792.063	85.1305
793.76	85.6879
795.456	87.0163
797.153	86.3924
798.847	86.687
800.543	86.6059
802.238	88.1477
803.933	87.6971
805.628	87.4982
807.322	87.5614
809.017	86.3937
810.71	86.2432
812.404	86.2406
814.097	86.4475
815.79	86.1333
817.483	86.9896
819.173	87.7081
820.865	88.4779
822.556	89.0105
824.248	89.5712
825.939	89.4591
827.629	89.4153
829.318	90.7315
831.008	90.8598
832.697	90.212
834.387	90.0565
836.076	89.6271
837.765	88.324
839.451	87.1309
841.139	86.3331
842.827	85.0555
844.514	83.8447
846.2	83.2626
847.886	82.9428
849.573	81.9708
851.259	79.7173
852.943	78.6245
854.629	78.1154
856.314	76.7517
857.997	75.4925
859.682	74.5365
861.366	74.4263
863.05	73.7835
864.732	73.2954
866.415	72.3746
868.098	70.388
869.779	70.6835
871.461	70.6894
873.141	70.6245
874.823	70.2879
876.505	67.7802
878.184	68.1512
879.865	68.2294
881.545	66.9076
883.223	66.4505
884.903	65.7552
886.581	65.5647
888.26	63.7161
889.937	63.1376
891.616	62.0959
893.294	62.3614
894.97	62.8291
896.648	61.5314
898.323	61.1841
900	60.2796
901.675	59.9025
903.351	58.9495
905.026	59.0321
906.701	58.6543
908.375	58.3247
910.05	58.5663
911.723	58.6607
913.398	58.7348
915.07	57.2881
916.742	56.8645
918.415	56.8012
920.087	56.1494
921.76	55.5793
923.43	56.1914
925.103	55.9536
926.773	55.0979
928.443	55.2673
930.114	55.5313
931.783	54.6636
933.454	53.5973
935.123	53.7772
936.791	53.6366
938.461	52.8812
940.128	51.9366
941.796	50.7597
943.464	50.2533
945.131	49.5617
946.797	48.9494
948.465	48.0054
950.131	47.0815
951.797	46.9551
953.462	46.6764
955.128	45.6072
956.793	43.6689
958.457	40.5001
960.121	39.0695
961.786	39.1801
963.45	37.2393
965.113	35.3015
966.775	34.8772
968.44	34.3919
970.102	33.2573
971.763	31.9404
973.425	31.7364
975.086	31.1724
976.748	30.8941
978.409	30.2233
980.069	29.1249
981.729	29.3434
983.388	29.3736
985.048	29.1086
986.708	29.6964
988.367	30.145
990.025	31.0153
991.683	30.9321
993.341	30.8263
994.998	30.5512
996.655	29.947
998.312	29.0733
999.969	30.025
1001.62	29.479
1003.28	29.5111
1004.94	29.9113
1006.59	29.8025
1008.25	29.1982
1009.9	28.4426
1011.56	28.6004
1013.21	28.1331
1014.86	27.883
1016.52	26.6518
1018.17	24.9922
1019.82	23.5115
1021.48	21.6976
1023.13	20.2546
1024.78	19.1085
1026.43	19.3675
1028.08	18.5213
1029.73	18.2946
1031.38	16.9573
1033.03	15.917
1034.68	14.2644
1036.33	11.7408
1037.98	10.1249
1039.63	9.1778
1041.28	7.92827
1042.93	9.65332
1044.57	9.03907
1046.22	9.34434
1047.87	8.58085
1049.52	9.68109
1051.16	10.1566
1052.81	10.7173
1054.45	12.0282
1056.1	12.6524
1057.75	12.5488
1059.39	12.8262
1061.04	12.577
1062.68	13.2545
1064.32	14.0649
1065.97	15.4602
1067.61	16.1364
1069.25	17.5407
1070.9	18.1783
1072.54	19.2349
1074.18	19.077
1075.82	19.3518
1077.47	19.9162
1079.11	19.5727
1080.75	19.7579
1082.39	19.5663
1084.03	18.8892
1085.67	20.1147
1087.31	20.2505
1088.95	20.3256
1090.59	21.3408
1092.22	21.2488
1093.86	21.4619
1095.5	21.6388
1097.14	20.6782
1098.78	19.2771
1100.41	19.2075
1102.05	19.5364
1103.69	18.6289
1105.32	19.6502
1106.96	19.8522
1108.59	19.918
1110.23	18.9725
1111.86	18.2949
1113.5	17.9659
1115.13	17.8345
1116.77	17.3795
1118.4	18.3812
1120.03	19.3103
1121.67	20.1757
1123.3	19.5466
1124.93	19.7595
1126.56	18.1704
1128.19	18.4843
1129.83	17.7084
1131.46	18.238
1133.09	17.9397
1134.72	18.5728
1136.35	17.3346
1137.98	16.1388
1139.61	16.2605
1141.24	16.3091
1142.86	16.8519
1144.49	17.2438
1146.12	16.5466
1147.75	16.756
1149.38	15.3728
1151	13.6121
1152.63	12.5696
1154.26	11.1804
1155.88	10.6628
1157.51	9.03329
1159.14	7.54181
1160.76	6.63111
1162.39	6.66521
1164.01	5.86764
1165.63	6.36729
1167.26	6.19986
1168.88	6.42535
1170.51	7.39965
1172.13	7.45897
1173.75	7.59927
1175.38	7.19799
1177	7.23839
1178.62	6.6871
1180.24	7.05111
1181.86	8.42699
1183.48	9.25998
1185.1	9.27754
1186.72	10.6926
1188.34	11.4022
1189.96	12.2947
1191.58	12.297
1193.2	13.5431
1194.82	15.6734
1196.44	16.335
1198.06	16.3536
1199.68	18.3357
1201.29	18.4677
1202.91	19.1487
1204.53	18.8305
1206.14	19.2589
1207.76	20.4403
1209.38	22.1066
1210.99	23.1962
1212.61	23.8719
1214.22	25.956
1215.84	28.1583
1217.45	27.9285
1219.07	30.1823
1220.68	31.7228
1222.29	32.6257
1223.91	32.8075
1225.52	33.6841
1227.13	35.0304
1228.74	36.1311
1230.36	36.0919
1231.97	37.1864
1233.58	38.32
1235.19	39.5275
1236.8	40.9777
1238.41	41.2846
1240.02	43.8006
1241.63	45.3093
1243.24	46.1643
1244.85	46.4101
1246.46	48.336
1248.07	48.7537
1249.67	50.4037
1251.28	51.5468
1252.89	51.9069
1254.5	51.7486
1256.1	52.0585
1257.71	52.7594
1259.32	52.5778
1260.92	52.9767
1262.53	53.6134
1264.13	53.5751
1265.74	53.0673
1267.34	54.0619
1268.95	54.525
1270.55	54.6125
1272.15	54.7144
1273.76	57.1498
1275.36	58.4269
1276.97	59.2962
1278.57	59.2873
1280.17	60.8414
1281.77	61.0607
1283.37	61.7628
1284.97	61.6775
1286.58	62.7068
1288.18	63.5175
1289.78	64.3811
1291.38	65.2307
1292.98	66.0034
1294.58	67.2651
1296.18	67.6423
1297.78	67.7432
1299.37	68.9491
1300.97	69.803
1302.57	70.2844
1304.17	71.5093
1305.77	73.3727
1307.36	73.9036
1308.96	74.4538
1310.55	75.857
1312.15	77.0736
1313.75	76.5694
1315.34	77.5504
1316.94	78.1353
1318.53	78.607
1320.13	79.3905
1321.72	78.5681
1323.32	78.4924
1324.91	78.5142
1326.5	78.2475
1328.1	77.2253
1329.69	77.1472
1331.28	76.8022
1332.87	74.6402
1334.47	74.013
1336.06	73.6504
1337.65	72.1444
1339.24	70.8206
1340.83	70.3495
1342.42	70.6873
1344.01	69.3064
1345.6	68.3953
1347.19	68.3738
1348.78	68.1286
1350.37	67.9892
1351.96	67.1192
1353.54	66.5533
1355.13	65.023
1356.72	64.3688
1358.31	62.3907
1359.89	61.5902
1361.48	60.4726
1363.07	58.4217
1364.65	56.9257
1366.24	56.505
1367.82	55.576
1369.41	55.7193
1370.99	55.1727
1372.58	54.5047
1374.16	52.9804
1375.75	53.6395
1377.33	52.603
1378.91	52.0335
1380.5	52.7533
1382.08	51.8711
1383.66	51.0668
1385.25	50.7542
1386.83	49.3789
1388.41	49.0524
1389.99	48.8089
1391.57	46.5756
1393.15	45.6648
1394.73	46.0165
1396.31	45.6098
1397.89	45.6402
1399.47	45.5047
1401.05	45.2579
1402.63	44.5116
1404.21	44.0758
1405.78	43.1519
1407.36	43.831
1408.94	44.0781
1410.52	44.4499
1412.1	44.0998
1413.67	45.4515
1415.25	45.9185
1416.82	46.5905
1418.4	47.297
1419.98	49.5274
1421.55	52.3668
1423.13	53.1577
1424.7	54.5334
1426.28	55.7875
1427.85	57.1407
1429.42	58.2725
1431	60.3423
1432.57	61.545
1434.14	63.4605
1435.71	65.2285
1437.29	66.044
1438.86	67.8728
1440.43	68.8182
1442	69.2266
1443.57	70.8521
1445.14	72.8221
1446.71	73.1218
1448.28	73.9114
1449.85	72.6218
1451.42	71.9932
1452.99	70.9863
1454.56	70.2151
1456.13	67.4548
1457.7	66.8529
1459.26	65.1051
1460.83	63.1177
1462.4	61.4315
1463.97	60.0755
1465.54	57.9881
1467.1	55.9117
1468.67	53.0634
1470.23	50.0742
1471.8	48.4552
1473.36	45.963
1474.93	43.5632
1476.49	41.7018
1478.06	38.2108
1479.62	35.7243
1481.19	32.5568
1482.75	30.1859
1484.31	28.7208
1485.88	27.099
1487.44	25.2921
1489	24.2274
1490.56	22.004
1492.13	21.3847
1493.69	20.9943
1495.25	20.9263
1496.81	20.5632
1498.37	21.0463
1499.93	20.9685
1501.49	18.8763
1503.05	18.922
1504.61	19.9038
1506.17	20.8899
1507.73	20.7014
1509.28	21.4842
1510.84	21.0262
1512.4	22.242
1513.96	22.5702
1515.52	23.0083
1517.07	23.9682
1518.63	24.3178
1520.19	25.9879
1521.74	26.8771
1523.3	26.8947
1524.85	26.9318
1526.41	28.1792
1527.96	28.0662
1529.52	28.6514
1531.07	29.8686
1532.63	30.0168
1534.18	31.63
1535.73	33.5556
1537.29	34.0647
1538.84	35.8114
1540.39	36.5767
1541.94	37.0529
1543.5	38.0866
1545.05	39.0891
1546.6	39.8535
1548.15	41.4237
1549.7	42.3969
1551.25	43.2657
1552.8	44.0508
1554.35	45.1149
1555.9	44.7878
1557.45	46.0464
1559	47.1099
1560.55	47.6728
1562.1	48.6511
1563.65	49.4836
1565.19	50.9909
1566.74	52.0477
1568.29	53.0167
1569.83	54.4692
1571.38	55.4933
1572.93	55.9884
1574.47	55.7745
1576.02	56.6129
1577.56	57.4826
1579.11	58.6646
1580.66	60.681
1582.2	61.1095
1583.74	61.7611
1585.29	62.4357
1586.83	63.7263
1588.38	64.3889
1589.92	65.1625
1591.46	64.6773
1593.01	65.6556
1594.55	66.5461
1596.09	66.4862
1597.63	67.1053
1599.17	66.1336
1600.71	66.4657
1602.25	67.6033
1603.79	66.629
1605.34	65.6104
1606.88	65.1982
1608.41	64.9751
1609.95	63.9187
1611.49	63.6152
1613.03	62.2656
1614.57	60.8454
1616.11	60.8408
1617.65	60.2713
1619.18	59.7625
1620.72	59.1982
1622.26	58.8971
1623.79	57.7341
1625.33	56.9912
1626.87	56.4564
1628.4	55.5549
1629.94	54.6682
1631.48	54.1808
1633.01	53.3069
1634.55	54.2441
1636.08	54.2666
1637.61	54.5442
1639.15	55.3817
1640.68	56.7951
1642.21	57.587
1643.75	57.5321
1645.28	57.3905
1646.81	56.946
1648.34	57.4459
1649.88	57.6801
1651.41	57.7541
1652.94	59.3533
1654.47	60.1939
1656	60.7068
1657.53	59.8198
1659.06	59.2207
1660.59	59.4633
1662.12	59.4233
1663.65	58.9076
1665.18	57.8713
1666.71	56.7112
1668.24	56.1428
1669.76	56.1511
1671.29	54.4357
1672.82	53.0794
1674.35	52.2207
1675.87	49.9007
1677.4	48.4513
1678.93	45.9485
1680.45	42.6625
1681.98	41.0513
1683.5	38.4033
1685.03	35.3224
1686.55	33.135
1688.08	31.1834
1689.6	27.7343
1691.13	25.9658
1692.65	24.0062
1694.17	21.5388
1695.7	20.2611
1697.22	18.0653
1698.74	16.4293
1700.27	14.6761
1701.79	12.9518
1703.31	12.456
1704.83	10.9005
1706.35	9.73032
1707.87	8.93473
1709.39	8.6623
1710.91	8.73213
1712.43	8.68731
1713.95	8.40072
1715.47	7.32315
1716.99	7.45928
1718.51	6.99127
1720.03	6.42964
1721.55	6.35199
1723.07	6.74959
1724.58	7.23637
1726.1	7.58567
1727.62	7.83301
1729.13	8.83989
1730.65	8.64201
1732.17	8.8114
1733.68	8.44868
1735.2	8.99569
1736.72	9.62664
1738.23	9.99053
1739.74	9.96852
1741.26	9.7693
1742.77	10.3311
1744.29	10.8208
1745.8	10.1338
1747.32	9.28897
1748.83	9.46065
1750.34	9.64132
1751.85	8.92712
1753.37	8.7205
1754.88	8.05534
1756.39	7.18133
1757.9	7.12539
1759.41	6.13308
1760.92	5.66316
1762.44	5.4503
1763.95	4.57619
1765.46	3.50913
1766.96	3.90356
1768.47	2.96325
1769.98	2.96754
1771.49	3.03675
1773	2.1743
1774.51	2.30402
1776.02	2.07882
1777.53	2.09693
1779.03	2.04492
1780.54	1.35393
1782.05	1.27354
1783.55	2.00852
1785.06	2.48002
1786.57	2.568
1788.07	2.50369
1789.58	2.27853
1791.08	3.10698
1792.59	3.53076
1794.09	3.98599
1795.6	3.63879
1797.1	3.56531
1798.61	3.96015
1800.11	3.95293
1801.61	4.12696
1803.12	4.53472
1804.62	4.98594
1806.12	5.00258
1807.62	5.25728
1809.12	5.34802
1810.63	6.22981
1812.13	7.00291
1813.63	7.26519
1815.13	7.54782
1816.63	7.71316
1818.13	8.13035
1819.63	7.72727
1821.13	7.432
1822.63	7.42329
1824.13	7.42027
1825.63	7.47093
1827.13	6.581
1828.62	6.3203
1830.12	5.87656
1831.62	5.45698
1833.12	5.75135
1834.61	4.54008
1836.11	4.61951
1837.61	4.07258
1839.1	3.34145
1840.6	2.98764
1842.09	2.51745
1843.59	2.1955
1845.09	2.20266
1846.58	2.21647
1848.08	2.40949
1849.57	2.67805
1851.06	2.71157
1852.56	3.01235
1854.05	3.50702
1855.54	3.69135
1857.04	3.43373
1858.53	3.35187
1860.02	3.3455
1861.51	2.236
1863.01	2.47134
1864.5	2.9341
1865.99	2.79317
1867.48	2.02565
1868.97	1.86078
1870.46	1.51739
1871.95	1.7494
1873.44	2.03019
1874.93	2.88499
1876.42	3.2094
1877.91	3.71128
1879.4	3.8921
1880.89	4.28065
1882.37	4.46433
1882.46	4.59617
1883.95	5.27169
1885.45	4.33522
1886.94	4.61018
1888.43	4.52776
1889.93	4.67186
1891.42	5.14386
1892.91	4.93239
1894.41	4.83525
1895.9	4.59352
1897.39	3.89517
1898.88	4.15417
1900.37	3.70878
1901.86	4.04236
1903.36	3.97761
1904.85	3.62363
1906.34	3.42591
1907.83	2.64848
1909.32	2.42607
1910.81	2.01781
1912.29	1.74104
1913.78	2.51582
1915.27	2.88731
1916.76	3.30048
1918.25	3.72002
1919.74	4.16486
1921.23	5.13987
1922.71	5.45852
1924.2	5.89305
1925.69	6.29545
1927.17	6.28506
1928.66	6.06458
1930.15	5.65552
1931.63	6.09111
1933.12	6.24834
1934.6	6.09894
1936.09	6.75217
1937.57	6.69999
1939.06	5.82926
1940.54	5.40751
1942.02	5.04564
1943.51	5.74005
1944.99	5.65927
1946.47	6.66266
1947.96	6.72125
1949.44	6.57087
1950.92	6.31037
1952.4	6.58342
1953.88	7.09202
1955.37	6.91375
1956.85	7.97212
1958.33	8.05505
1959.81	6.86607
1961.29	7.90963
1962.77	8.31916
1964.25	8.32386
1965.73	8.38195
1967.21	7.69024
1968.69	7.50919
1970.16	7.08262
1971.64	6.68083
1973.12	6.75488
1974.6	6.69352
1976.08	6.35753
1977.55	5.63137
1979.03	5.21405
1980.51	5.1346
1981.98	4.8554
1983.46	4.73191
1984.94	5.06924
1986.41	4.82127
1987.89	5.02762
1989.36	4.69056
1990.84	4.79312
1992.31	4.8035
1993.79	4.73516
1995.26	4.68876
1996.73	5.01221
1998.21	5.02847
1999.68	4.92451
2001.15	4.5014
2002.63	4.31275
2004.1	3.59157
2005.57	3.76306
2007.04	3.51368
2008.51	3.5949
2009.99	3.36034
2011.46	3.26549
2012.93	2.85552
2014.4	2.82698
2015.87	2.53839
2017.34	3.90899
2018.81	3.68485
2020.28	3.74699
2021.75	3.7624
2023.21	3.9714
2024.68	4.11309
2026.15	4.42846
2027.62	4.27009
2029.09	4.34613
2030.56	4.84077
2032.02	4.44815
2033.49	4.1874
2034.96	5.20154
2036.42	5.59224
2037.89	4.88733
2039.36	5.90202
2040.82	4.79572
2042.29	5.69388
2043.75	5.52061
2045.22	5.46825
2046.68	5.87279
2048.14	5.57001
2049.61	4.59534
2051.07	4.69904
2052.54	4.92536
2054	4.5472
2055.46	4.31017
2056.93	4.38465
2058.39	4.04919
2059.85	3.75653
2061.31	4.22136
2062.77	5.04675
2064.23	4.40698
2065.7	3.97946
2067.16	3.56057
2068.62	3.76833
2070.08	3.81771
2071.54	3.19467
2073	3.02259
2074.46	2.72545
2075.92	2.71228
2077.38	2.92493
2078.83	2.9793
2080.29	2.97903
2081.75	3.65021
2083.21	3.6631
2084.67	3.35119
2086.12	4.29358
2087.58	4.3634
2089.04	5.6853
2090.49	6.90598
2091.95	6.77284
2093.41	7.08489
2094.86	7.78269
2096.32	7.86828
2097.77	8.66179
2099.23	8.70258
2100.68	9.14392
2102.14	9.88302
2103.59	9.92935
2105.05	10.0042
2106.5	10.5605
2107.95	11.4652
2109.41	12.2886
2110.86	13.0233
2112.31	14.186
2113.76	15.0232
2115.21	16.3344
2116.67	15.922
2118.12	16.1907
2119.57	17.0741
2121.02	16.8909
2122.47	17.5488
2123.92	18.1756
2125.37	18.3013
2126.82	19.0106
2128.27	18.975
2129.72	19.6895
2131.17	20.274
2132.62	20.7921
2134.07	21.6565
2135.51	21.6532
2136.96	21.215
2138.41	21.9379
2139.86	21.9113
2141.31	22.4984
2142.75	23.1243
2144.2	23.7792
2145.65	24.1319
2147.09	24.7948
2148.54	25.3514
2149.98	25.8025
2151.43	26.683
2152.87	27.6755
2154.32	28.4631
2155.76	28.7652
2157.21	30.1224
2158.65	31.6034
2160.1	32.4984
2161.54	34.1674
2162.98	34.8249
2164.43	36.2098
2165.87	36.661
2167.31	36.9925
2168.75	37.7746
2170.2	37.9976
2171.64	38.3087
2173.08	38.3885
2174.52	39.3319
2175.96	40.4214
2177.4	41.0733
2178.84	41.4646
2180.28	42.331
2181.72	43.0136
2183.16	43.0931
2184.6	43.3524
2186.04	42.9988
2187.48	42.103
2188.92	41.2993
2190.36	40.7486
2191.79	40.3048
2193.23	38.8692
2194.67	38.2075
2196.11	37.3139
2197.54	36.6946
2198.98	35.8102
2200.42	33.8271
2201.85	33.6469
2203.29	32.132
2204.72	31.1369
2206.16	29.922
2207.59	28.3811
2209.03	27.259
2210.46	25.6307
2211.9	24.2761
2213.33	23.4685
2214.77	22.1926
2216.2	20.7307
2217.63	19.6771
2219.07	19.2881
2220.5	18.2556
2221.93	18.0705
2223.36	17.7097
2224.8	16.752
2226.23	16.3664
2227.66	16.3321
2229.09	16.4726
2230.52	16.2393
2231.95	16.5457
2233.39	16.8211
2234.81	16.4549
2236.25	16.4538
2237.67	15.1331
2239.1	15.2418
2240.53	15.5446
2241.96	15.7047
2243.39	16.3752
2244.82	16.0632
2246.25	16.7397
2247.68	16.227
2249.1	15.9335
2250.53	16.0951
2251.96	16.8891
2253.38	16.9926
2254.81	17.2517
2256.24	17.3574
2257.66	17.3244
2259.09	16.9573
2260.51	16.23
2261.94	16.6272
2263.36	16.8072
2264.79	16.0744
2266.21	16.1461
2267.64	15.7699
2269.06	15.3757
2270.49	14.8947
2271.91	14.2394
2273.33	14.0333
2274.76	13.9516
2276.18	13.9518
2277.6	12.7963
2279.02	12.5797
2280.44	12.2096
2281.87	11.3173
2283.29	11.0419
2284.71	11.0346
2286.13	11.1421
2287.55	11.3125
2288.97	10.8375
2290.39	10.1266
2291.81	8.85209
2293.23	8.00095
2294.65	7.1862
2296.07	6.34947
2297.49	6.86359
2298.91	6.95147
2300.33	7.4606
2301.74	7.56509
2303.16	7.90987
2304.58	8.05174
2306	8.24298
2307.41	8.40975
2308.83	8.39636
2310.25	8.89297
2311.66	8.83066
2313.08	9.18695
2314.5	9.10976
2315.91	9.18076
2317.33	9.27661
2318.74	9.65228
2320.16	10.4375
2321.57	10.6551
2322.98	10.7831
2324.4	10.3689
2325.81	10.2459
2327.23	10.0825
2328.64	10.0267
2330.05	9.65867
2331.46	9.21394
2332.88	9.2648
2334.29	8.16411
2335.7	7.24549
2337.11	7.37746
2338.52	6.59735
2339.94	6.13153
2341.35	5.85894
2342.76	5.37581
2344.17	5.73386
2345.58	5.75394
2346.99	5.09617
2348.4	4.91507
2349.81	5.39158
2351.22	4.83724
2352.62	4.07822
2354.03	3.80492
2355.44	3.70752
2356.85	2.77378
2358.26	2.17856
2359.67	0.91407
2361.07	0.65986
2362.48	-0.181516
2363.89	-0.228658
2365.29	0.673478
2366.7	0.855491
2368.11	0.971498
2369.51	0.884269
2370.92	1.17632
2372.32	1.04267
2373.73	1.6073
2375.13	2.40242
2376.54	2.60888
2377.94	2.66185
2379.35	3.06726
2380.75	3.18835
2382.15	3.31806
2383.56	3.21629
2384.96	3.73326
2386.36	3.71519
2387.76	3.76795
2389.17	4.16603
2390.57	3.96886
2391.97	3.4537
2393.37	2.6668
2394.77	2.67142
2396.17	3.28324
2397.58	3.7294
2398.98	3.08568
2400.38	3.29128
2401.78	3.06732
2403.18	2.97092
2404.58	3.18015
2405.97	3.46877
2407.37	3.8858
2408.77	3.64462
2410.17	3.87817
2411.57	3.784
2412.97	4.15557
2414.37	5.00345
2415.76	5.31758
2417.16	5.64707
2418.56	5.65154
2419.95	5.82098
2421.35	5.21895
2422.75	5.66059
2424.14	5.74973
2425.54	5.70228
2426.93	6.1038
2428.33	6.00286
2429.72	5.61821
2431.12	5.92662
2432.51	5.55847
2433.91	6.39174
2435.3	6.85449
2436.7	6.27371
2438.09	5.83651
2439.48	6.21716
2440.88	6.44768
2442.27	6.77841
2443.66	7.32281
2445.05	7.68336
2446.44	6.94241
2447.84	7.03835
2449.23	6.85574
2450.62	6.14207
2452.01	6.42599
2453.4	6.434
2454.79	6.86001
2456.18	6.58177
2457.57	6.19641
2458.96	5.92344
2460.35	5.74706
2461.74	5.5738
2463.13	5.39041
2464.52	5.96715
2465.91	5.97623
2467.29	6.0673
2468.68	5.56798
2470.07	6.1203
2471.46	5.39686
2472.85	5.41798
2474.23	5.43792
2475.62	4.35024
2477.01	4.15009
2478.39	3.90023
2479.78	3.80323
2481.16	3.30401
2482.55	4.03478
2483.93	3.78334
2485.32	3.43987
2486.7	2.8704
2488.09	2.59911
2489.47	3.1478
2490.86	2.64138
2492.24	2.80953
2493.62	2.09251
2495.01	2.55696
2496.39	2.32649
2497.77	2.1687
2499.15	2.16789
2500.54	1.64809
2501.92	1.30445
2503.3	1.5475
2504.68	1.0412
2506.06	0.580661
2507.45	0.599896
2508.83	0.852307
2510.21	1.24447
2511.59	1.0159
2512.97	1.03953
2514.35	1.30415
2515.73	1.89582
2517.11	2.71535
2518.48	3.00295
2519.86	3.63392
2521.24	4.81587
2522.62	5.18907
2524	5.99302
2525.38	6.85721
2526.75	6.98243
2528.13	7.76418
2529.51	8.90063
2530.89	9.7496
2532.26	10.5737
2533.64	11.7464
2535.02	11.9629
2536.39	12.2121
2537.77	12.6376
2539.14	13.1473
2540.52	12.6623
2541.89	12.6465
2543.27	12.0802
2544.64	11.9918
2546.01	12.748
2547.39	12.0672
2548.76	11.951
2550.14	11.8596
2551.51	11.7822
2552.88	11.7761
2554.25	11.5903
2555.63	11.2037
2557	10.4872
2558.37	10.0077
2559.74	9.1205
2561.11	9.31843
2562.49	9.13789
2563.86	9.7962
2565.23	8.75771
2566.6	8.68076
2567.97	7.88879
2569.34	6.8345
2570.71	6.22143
2572.08	6.44651
2573.45	6.10588
2574.82	5.53509
2576.18	5.16537
2577.55	5.30479
2578.92	5.40126
2580.29	5.23989
2581.66	4.88692
2583.02	4.86065
2584.39	4.90643
2585.76	4.11777
2587.13	4.2329
2588.49	4.03997
2589.86	3.90125
2591.22	4.01546
2592.59	3.85999
2593.96	4.04085
2595.32	4.09169
2596.69	4.60898
2598.05	5.41771
2599.42	5.36946
2600.78	5.151
2602.14	4.66264
2603.51	4.56976
2604.87	4.72462
2606.23	4.98357
2607.6	5.1725
2608.96	4.37372
2610.32	4.88088
2611.69	5.46116
2613.05	5.63682
2614.41	5.85837
2615.77	4.64016
2617.13	5.33568
2618.49	5.39205
2619.86	5.17768
2621.22	5.50845
2622.58	5.02858
2623.94	5.53477
2625.3	5.67451
2626.66	6.52121
2628.02	7.36891
2629.37	7.62362
2630.73	7.4478
2632.09	7.41061
2633.45	7.17808
2634.81	7.80679
2636.17	7.81885
2637.53	7.96002
2638.88	8.5676
2640.24	9.29638
2641.6	9.11486
2642.96	8.82119
2644.31	9.1989
2645.67	9.55951
2647.02	9.66149
2648.38	9.14199
2649.74	8.82527
2651.09	9.2533
2652.45	9.4513
2653.8	9.28947
2655.16	9.0356
2656.51	8.92394
2657.86	9.42567
2659.22	9.58186
2660.57	9.4365
2661.93	9.65733
2663.28	9.73722
2664.63	9.66706
2665.98	9.53139
2667.34	9.5904
2668.69	9.78487
2670.04	10.194
2671.39	10.5749
2672.75	10.4944
2674.09	10.7286
2675.45	11.0615
2676.8	10.2605
2678.15	10.429
2679.5	9.89111
2680.85	9.60049
2682.2	9.74042
2683.55	9.38865
2684.9	10.2438
2686.25	10.3036
2687.6	9.8347
2688.94	10.013
2690.29	10.2727
2691.64	10.5622
2692.99	10.3175
2694.34	10.5188
2695.68	10.0299
2697.03	10.0425
2698.38	10.807
2699.73	11.1891
2701.07	11.4697
2702.42	11.1114
2703.76	11.2484
2705.11	11.9059
2706.45	11.5191
2707.8	11.4193
2709.15	11.7588
2710.49	12.3177
2711.83	12.0102
2713.18	12.1236
2714.52	11.8096
2715.87	11.1125
2717.21	11.1451
2718.55	10.8745
2719.9	10.7786
2721.24	10.5161
2722.58	10.323
2723.93	10.48
2725.27	9.928
2726.61	9.32281
2727.95	8.80431
2729.29	8.99351
2730.63	8.99563
2731.98	8.71004
2733.32	8.8734
2734.66	8.84686
2736	8.63809
2737.34	8.33171
2738.68	8.46205
2740.02	7.93408
2741.36	7.51077
2742.7	6.74318
2744.03	5.93823
2745.37	6.40833
2746.71	6.49299
2748.05	6.62939
2749.39	6.39891
2750.72	5.66412
2752.06	5.30499
2753.4	4.67485
2754.74	4.51431
2756.07	4.94132
2757.41	4.67632
2758.75	4.56091
2760.08	4.24131
2761.42	4.21532
2762.76	3.61173
2764.09	3.76383
2765.42	3.29748
2766.76	2.53115
2768.09	2.4609
2769.43	2.28235
2770.76	2.39457
2772.1	1.65992
2773.43	0.994858
2774.76	1.70982
2776.1	1.67224
2777.43	1.34979
2778.76	0.601522
2780.1	1.15505
2781.43	1.17634
2782.76	0.927921
2784.09	1.00962
2785.42	0.873827
2786.75	0.788688
2788.09	0.53237
2789.42	0.257989
2790.75	-0.279717
2792.08	0.198055
2793.41	-0.0975647
2794.74	-0.114943
2796.07	-0.00436344
2797.4	-0.123008
2798.73	0.450734
2800.06	-0.134329
2801.39	-0.792712
2802.71	-0.647695
2804.04	-0.793882
2805.37	-1.04063
2806.7	-2.11363
2808.03	-2.39643
2809.35	-2.36816
2810.68	-2.16556
2812.01	-1.75339
2813.33	-2.23066
2814.66	-2.23948
2815.99	-1.9272
2817.31	-1.67074
2818.64	-0.799913
2819.96	0.0153816
2821.29	1.42179
2822.61	2.26342
2823.94	3.76385
2825.26	5.02668
2826.59	6.6732
2827.91	8.15281
2829.23	9.99202
2830.56	11.7599
2831.88	13.4568
2833.21	15.1641
2834.53	17.1026
2835.85	19.1365
2837.17	21.6783
2838.5	23.7928
2839.82	26.4406
2841.14	29.0178
2842.46	31.1507
2843.78	34.1048
2845.1	37.3867
2846.42	40.698
2847.74	43.9769
2849.06	47.3826
2850.38	50.4307
2851.71	53.227
2853.03	56.4068
2854.34	60.0291
2855.66	63.926
2856.98	66.8965
2858.3	70.1287
2859.62	72.3953
2860.94	75.2421
2862.26	78.443
2863.57	81.4664
2864.89	84.0999
2866.21	85.7727
2867.53	88.1189
2868.84	90.6983
2870.16	92.3595
2871.48	94.14
2872.79	96.0329
2874.11	98.0681
2875.42	99.5813
2876.74	100.785
2878.05	102.141
2879.37	103.849
2880.68	105.564
2882	107.368
2883.31	108.784
2884.63	110.4
2885.94	112.431
2887.26	114.015
2888.57	115.389
2889.88	116.757
2891.19	118.116
2892.51	119.707
2893.82	120.942
2895.13	123.021
2896.44	124.623
2897.76	126.055
2899.07	128.035
2900.38	130.263
2901.69	132.836
2903	134.856
2904.31	137.544
2905.62	140.337
2906.93	143.574
2908.24	146.85
2909.55	150.786
2910.86	154.206
2912.17	157.599
2913.48	161.161
2914.79	164.636
2916.1	167.071
2917.41	170.326
2918.71	173.642
2920.02	176.455
2921.33	178.286
2922.64	179.693
2923.94	181.678
2925.25	183.19
2926.56	184.185
2927.86	185.779
2929.17	186.408
2930.48	185.677
2931.78	184.688
2933.09	184.027
2934.39	183.134
2935.7	181.956
2937	180.366
2938.31	178.151
2939.61	175.503
2940.92	172.764
2942.22	169.826
2943.53	167.549
2944.83	165.485
2946.13	162.026
2947.43	159.17
2948.74	155.683
2950.04	152.374
2951.34	149.357
2952.64	145.218
2953.95	141.602
2955.25	137.842
2956.55	134.513
2957.85	130.394
2959.15	127.121
2960.45	123.772
2961.75	119.733
2963.05	116.071
2964.35	112.96
2965.65	109.973
2966.95	107.553
2968.25	104.336
2969.55	102.065
2970.85	98.7824
2972.15	96.8505
2973.45	94.4376
2974.75	92.7814
2976.05	89.5018
2977.34	87.0629
2978.64	84.6134
2979.94	82.0515
2981.24	78.2609
2982.53	75.3194
2983.83	71.8155
2985.13	68.2581
2986.42	65.6274
2987.72	62.5814
2989.01	59.0819
2990.31	55.8662
2991.61	52.3177
2992.9	49.6367
2994.19	46.1796
2995.49	42.5799
2996.78	39.5145
2998.08	37.0294
2999.37	34.5075
3000.67	32.2272
3001.96	28.9381
3003.25	25.5586
3004.55	22.988
3005.84	20.9958
3007.13	18.8685
3008.42	17.1714
3009.72	15.1095
3011.01	12.6263
3012.3	11.4074
3013.59	9.58595
3014.88	8.05208
3016.17	6.40133
3017.46	4.41217
3018.76	3.30957
3020.05	2.40626
3021.34	1.73332
3022.63	1.29088
3023.92	0.967105
3025.21	0.339919
3026.49	-0.307525
3027.78	0.247852
3029.07	-0.212637
3030.36	0.182717
3031.65	-0.00455449
3032.94	-0.189208
3034.23	0.570464
3035.51	0.781822
3036.8	2.10514
3038.09	2.45608
3039.38	3.39384
3040.66	3.25485
3041.95	3.39073
3043.23	3.7283
3044.52	3.96847
3045.81	4.01442
3047.09	5.05572
3048.38	5.67058
3049.66	6.13242
3050.95	6.70014
3052.23	6.1574
3053.52	6.24884
3054.8	6.73046
3056.09	6.72023
3057.37	6.99051
3058.65	7.17258
3059.94	6.564
3061.22	6.5223
3062.5	7.1188
3063.79	6.85516
3065.07	6.85277
3066.35	6.16659
3067.63	5.79551
3068.92	6.05175
3070.2	5.57841
3071.48	5.14667
3072.76	4.74195
3074.04	4.64951
3075.32	5.15074
3076.6	5.06653
3077.88	4.30934
3079.16	3.76888
3080.44	3.52891
3081.72	3.20874
3083	3.30305
3084.28	2.88935
3085.56	2.43845
3086.84	2.16027
3088.12	1.56984
3089.4	0.907696
3090.67	1.22965
3091.95	1.17485
3093.23	0.393096
3094.51	0.610189
3095.78	0.222051
3097.06	0.558459
3098.34	0.452521
3099.61	0.0339075
3100.89	0.450797
3102.17	0.590371
3103.44	0.95101
3104.72	0.332788
3105.99	0.540576
3107.27	1.15106
3108.54	1.69679
3109.82	2.59798
3111.09	3.41155
3112.37	3.34058
3113.64	3.82397
3114.92	5.05367
3116.19	5.50705
3117.46	6.02102
3118.74	6.65064
3120.01	6.95489
3121.28	7.70878
3122.55	8.52879
3123.83	8.90261
3125.1	10.2799
3126.37	11.1575
3127.64	11.7692
3128.91	12.9219
3130.19	12.8144
3131.46	13.5402
3132.73	14.437
3134	15.2002
3135.27	16.6164
3136.54	17.3447
3137.81	18.2346
3139.08	18.7906
3140.35	18.462
3141.62	18.7223
3142.89	18.9267
3144.16	18.8615
3145.42	18.626
3146.69	17.904
3147.96	17.0121
3149.23	15.5978
