#Acq. time (s)=	45
#Accumulations=	2
#Range (cm-¹)=	200...3150
#Windows=	2
#Auto scanning=	Off
#Autofocus=	Off
#Macrospot=	Off
#AutoExposure=	Off
#Spike filter=	Multiple accum.
#Delay time (s)=	0
#Binning=	1
#Readout mode=	Signal
#DeNoise=	Off
#ICS correction=	On
#Dark correction=	Off
#Inst. Process=	Off
#Detector Gain=	Best Dynamic Range
#Detector ADC=	20 kHz       
#Detector temperature (°C)=	-69.85
#Instrument=	LabRAM HR Evol
#Detector=	Synapse
#Objective=	x100
#Grating=	600 gr/mm
#ND Filter=	100%
#Laser (nm)=	532 
#Hole=	100.021
#Range=	Auto
#Laser Pol.=	No
#Raman. Pol.=	No
#Laser Pol. (°)=	-0.0007625
#Raman Pol. (°)=	89.9995
#Collection=	Microscope
#StageXY=	Marzhauser
#StageZ=	Marzhauser
#X (µm)=	8965.3
#Y (µm)=	-3069.7
#Z (µm)=	-54.85
#Full time(mm:ss)=	3:19
#Project=	
#Sample=	
#Site=	
#Title=	Thy_00_07_34_2x_45s_532 nm_x100_100%_600 gr_mm
#Remark=	
#Date=	28.06.2022 12:38
#Acquired=	28.06.2022 12:38:05
#Base:Fit=	10.08.2022 10:07:56
#Base:Sub=	10.08.2022 10:08:40
#Filter:Polynom=	16.08.2022 10:26:06
#AxisType[0]=Intens
#AxisUnit[0]=Cnt
#AxisType[1]=Spectr
#AxisUnit[1]=1/cm
200.407	2.22751
202.221	7.5701
204.035	8.67682
205.849	10.1772
207.665	10.338
209.478	10.5493
211.291	10.8636
213.104	10.8474
214.916	11.8105
216.73	12.9516
218.541	13.3521
220.352	14.1371
222.163	14.4382
223.973	14.7286
225.785	14.13
227.595	14.8433
229.404	14.6304
231.213	13.9774
233.022	14.0859
234.83	13.9028
236.638	13.7169
238.448	12.7367
240.255	11.9566
242.062	11.2149
243.868	11.2829
245.675	10.2611
247.48	10.1496
249.286	9.527
251.091	8.47042
252.896	7.56902
254.702	5.31696
256.506	4.71033
258.31	4.04006
260.113	3.77498
261.916	3.53423
263.719	4.05406
265.521	3.4294
267.323	4.32863
269.125	4.77776
270.926	4.89025
272.727	4.26188
274.527	5.05059
276.328	4.65897
278.127	4.55095
279.927	4.76352
281.726	4.61151
283.525	4.92977
285.323	4.54811
287.121	4.03628
288.919	4.51271
290.716	3.72938
292.513	4.63635
294.31	6.13562
296.104	6.69746
297.9	8.89401
299.696	11.2704
301.491	12.8841
303.286	14.1591
305.081	16.0132
306.875	17.2357
308.669	18.1626
310.463	19.9004
312.256	20.1944
314.047	20.9
315.839	21.912
317.631	22.7614
319.423	23.3195
321.215	23.6108
323.006	23.0566
324.794	22.4455
326.585	22.3904
328.375	21.3188
330.165	21.5291
331.954	21.1057
333.741	21.4327
335.53	20.6575
337.318	20.2815
339.106	18.3243
340.894	17.5845
342.679	16.7986
344.466	16.0555
346.253	16.8489
348.039	16.0276
349.823	15.282
351.608	15.5941
353.393	15.0008
355.176	14.854
356.961	15.5426
358.745	14.7248
360.529	14.3717
362.31	13.4164
364.093	13.3591
365.876	13.0602
367.657	13.6048
369.439	12.9527
371.221	11.9459
373	12.5478
374.781	12.2982
376.56	12.2493
378.34	12.308
380.12	11.813
381.898	12.7581
383.677	12.977
385.456	13.301
387.233	14.1924
389.011	14.4056
390.787	14.0499
392.565	13.6359
394.34	14.1953
396.117	15.426
397.894	14.4461
399.668	13.4969
401.444	13.0805
403.217	12.8286
404.993	12.1695
406.766	11.4594
408.54	10.4731
410.312	9.10461
412.086	8.04932
413.858	7.94607
415.631	7.86555
417.402	7.33245
419.174	6.61824
420.944	6.14035
422.716	5.06217
424.486	3.75526
426.257	2.84577
428.025	2.58333
429.794	2.8616
431.564	1.79431
433.332	1.72161
435.101	0.919163
436.868	0.30389
438.637	0.109685
440.403	1.32806
442.169	2.13095
443.937	2.79743
445.703	3.43234
447.468	3.09792
449.234	3.5058
450.999	3.6098
452.765	3.95588
454.528	5.37637
456.292	5.34085
458.057	5.9463
459.819	7.45788
461.582	9.32224
463.344	9.58936
465.107	10.2884
466.868	10.1013
468.629	11.214
470.392	11.2868
472.152	12.443
473.912	13.4078
475.672	13.9696
477.433	13.9845
479.192	14.2711
480.951	15.5278
482.709	15.9703
484.469	16.1706
486.226	15.9514
487.984	17.8692
489.74	19.8173
491.499	20.2951
493.255	21.0706
495.011	21.6529
496.767	21.8084
498.522	22.6852
500.277	23.0793
502.033	24.0343
503.788	24.5732
505.541	25.2933
507.295	26.0368
509.048	26.0127
510.801	25.5442
512.553	25.4167
514.308	24.5361
516.06	24.6709
517.811	24.2456
519.562	23.0396
521.313	23.1348
523.063	21.6141
524.814	22.1282
526.563	22.4613
528.313	22.7854
530.062	21.5711
531.811	21.8309
533.559	21.3078
535.308	21.3672
537.055	21.9048
538.803	21.8473
540.55	21.4516
542.297	21.1009
544.043	20.6164
545.789	20.0653
547.535	20.1109
549.281	19.7414
551.026	17.5968
552.771	16.6419
554.515	15.6665
556.259	15.3417
558.003	14.5668
559.747	14.458
561.49	13.8288
563.233	12.7547
564.975	12.0264
566.717	11.8461
568.459	11.9456
570.2	11.5439
571.942	11.4443
573.68	11.4674
575.421	11.0031
577.161	10.3765
578.901	9.41987
580.64	9.51199
582.379	9.37992
584.118	8.92974
585.855	8.68427
587.593	8.08648
589.331	7.70768
591.068	7.21333
592.805	7.80058
594.54	6.72079
596.277	4.79295
598.013	4.48049
599.749	2.77893
601.484	2.05577
603.217	1.6423
604.952	1.36846
606.687	1.21864
608.421	1.23846
610.153	0.0579241
611.886	2.24298
613.619	2.49395
615.35	2.1811
617.083	2.03994
618.815	3.16666
620.547	2.59962
622.276	3.28355
624.008	4.3277
625.738	3.6652
627.467	4.07386
629.197	3.54539
630.927	4.67779
632.655	5.22224
634.384	6.18723
636.113	6.72683
637.839	6.63032
639.568	7.56576
641.293	7.74509
643.021	7.91822
644.748	8.5574
646.473	8.88642
648.2	9.27323
649.924	9.24262
651.65	8.67439
653.376	9.30082
655.099	9.38297
656.824	9.31025
658.546	9.87582
660.271	9.6115
661.993	10.0642
663.716	11.7284
665.438	12.4141
667.161	12.4057
668.881	11.1956
670.604	10.4949
672.324	10.1439
674.045	9.631
675.765	10.2517
677.486	10.9751
679.204	11.9594
680.925	11.6805
682.643	12.8149
684.361	12.2748
686.08	11.7881
687.797	13.0717
689.516	13.9316
691.232	15.5494
692.95	15.9309
694.666	16.1319
696.382	17.1379
698.099	18.3072
699.813	17.3404
701.528	17.6689
703.244	17.6137
704.958	17.7616
706.673	19.5543
708.387	19.9715
710.099	20.2796
711.814	19.788
713.526	21.8768
715.238	22.2043
716.949	24.9307
718.663	25.4773
720.374	26.1725
722.084	26.8455
723.796	27.8938
725.506	28.7757
727.216	30.5698
728.925	32.5922
730.636	34.6601
732.345	35.8088
734.053	36.738
735.761	37.5253
737.471	38.0814
739.178	38.7542
740.885	40.2843
742.592	40.9925
744.298	43.2547
746.006	44.1624
747.712	46.6427
749.417	48.6445
751.122	48.842
752.827	49.4127
754.532	50.3856
756.236	51.5911
757.942	53.3048
759.645	54.9528
761.348	56.3688
763.051	58.4997
764.753	60.3973
766.456	60.6999
768.158	61.3131
769.859	61.0706
771.56	62.5057
773.261	63.366
774.964	62.9569
776.664	62.5254
778.364	61.8592
780.064	59.9981
781.763	59.2581
783.462	59.3421
785.16	59.1589
786.859	58.3387
788.557	57.5081
790.255	57.819
791.952	59.2208
793.649	58.0493
795.346	58.0422
797.042	58.1809
798.738	58.6752
800.434	58.1276
802.127	59.4066
803.823	58.9194
805.517	57.8935
807.212	57.693
808.906	56.9121
810.6	56.6998
812.293	57.1595
813.987	55.8126
815.68	54.5229
817.372	53.1218
819.064	53.1743
820.754	52.5469
822.446	51.8132
824.137	53.2782
825.828	54.1394
827.519	53.0388
829.209	54.3961
830.897	54.153
832.587	55.7258
834.276	55.4889
835.966	55.0899
837.654	54.03
839.341	53.2961
841.029	52.8471
842.717	52.8258
844.404	51.9724
846.091	51.5642
847.776	51.7929
849.463	51.2
851.149	49.4096
852.833	49.2206
854.519	48.042
856.204	47.0257
857.889	45.8992
859.572	43.8011
861.256	42.2431
862.94	41.3574
864.622	40.7768
866.305	40.7864
867.988	40.4302
869.669	39.3245
871.351	39.1349
873.033	39.283
874.713	39.0166
876.395	39.0755
878.074	37.9128
879.755	37.494
881.435	37.0195
883.114	35.9933
884.794	35.6728
886.471	35.34
888.15	33.92
889.829	32.8145
891.506	32.6106
893.184	33.2626
894.861	33.5553
896.538	32.9675
898.214	32.1265
899.891	32.4849
901.566	33.7454
903.242	34.278
904.916	34.0596
906.592	33.3101
908.266	34.0821
909.941	33.107
911.614	32.4442
913.288	33.3853
914.961	33.1917
916.635	33.2869
918.306	30.8983
919.979	31.0179
921.651	30.5123
923.321	31.418
924.994	31.8765
926.664	31.7766
928.336	31.876
930.005	31.443
931.674	32.1293
933.345	31.7198
935.014	30.9868
936.682	31.0223
938.352	30.3005
940.019	30.7625
941.687	30.4927
943.356	29.8037
945.022	31.3419
946.689	32.1584
948.357	32.7389
950.022	32.847
951.688	32.9941
953.355	33.043
955.02	33.0245
956.684	32.1402
958.348	30.9919
960.014	29.1036
961.678	28.6936
963.341	29.1292
965.004	30.3395
966.669	32.6357
968.331	34.6888
969.993	36.1232
971.655	37.4701
973.316	39.5704
974.979	41.1543
976.64	43.3381
978.3	44.7946
979.961	46.2788
981.62	47.9331
983.28	49.6702
984.941	50.5823
986.6	49.4703
988.259	49.2587
989.917	48.7149
991.575	49.214
993.233	48.8658
994.89	48.1597
996.547	49.3316
998.204	49.5595
999.86	49.6022
1001.52	50.0942
1003.17	51.7159
1004.83	51.7052
1006.49	51.7997
1008.14	51.2351
1009.79	50.8391
1011.45	50.802
1013.1	50.5346
1014.76	51.4164
1016.41	49.4892
1018.06	48.7673
1019.72	48.1311
1021.37	47.6436
1023.02	46.8409
1024.67	46.2117
1026.32	45.8111
1027.97	44.347
1029.62	40.8712
1031.27	38.5039
1032.92	36.3863
1034.57	33.4125
1036.22	30.6567
1037.87	28.9451
1039.52	26.7148
1041.17	25.4781
1042.82	25.7062
1044.47	26.7118
1046.11	26.5463
1047.76	27.0548
1049.41	26.6486
1051.06	25.9408
1052.7	25.8133
1054.35	26.1717
1055.99	25.8348
1057.64	24.0683
1059.28	23.9579
1060.93	23.9224
1062.57	22.187
1064.22	21.896
1065.86	20.7338
1067.5	19.0784
1069.15	18.7333
1070.79	18.5555
1072.43	18.7921
1074.08	19.5745
1075.72	19.575
1077.36	19.6433
1079	21.0628
1080.64	20.2954
1082.28	19.8741
1083.92	20.0448
1085.56	20.1494
1087.2	20.5851
1088.84	21.1742
1090.48	21.2347
1092.12	21.7047
1093.76	22.5221
1095.39	23.8962
1097.03	24.0672
1098.67	24.3867
1100.31	26.6407
1101.94	28.0897
1103.58	28.8921
1105.22	29.113
1106.85	29.1053
1108.49	28.4255
1110.12	27.0459
1111.76	26.6138
1113.39	26.8853
1115.03	26.6802
1116.66	25.7082
1118.29	25.447
1119.93	25.1831
1121.56	24.3385
1123.19	24.4423
1124.82	24.6046
1126.46	22.7619
1128.09	21.6843
1129.72	21.4808
1131.35	20.5763
1132.98	20.5609
1134.61	19.8283
1136.24	18.6833
1137.87	16.6102
1139.5	16.7793
1141.13	17.5531
1142.76	16.9573
1144.39	16.0072
1146.01	15.2469
1147.64	14.7969
1149.27	14.6771
1150.9	13.9476
1152.53	13.4577
1154.15	13.0784
1155.78	11.5924
1157.4	9.93111
1159.03	9.34795
1160.65	8.36112
1162.28	7.22213
1163.9	7.39392
1165.53	7.15166
1167.15	7.38796
1168.78	7.10611
1170.4	6.85035
1172.02	7.57632
1173.65	9.35989
1175.27	10.8969
1176.89	11.6938
1178.51	12.1649
1180.14	13.6937
1181.76	14.3917
1183.38	14.8557
1185	15.0124
1186.62	14.5069
1188.24	14.8923
1189.86	15.3093
1191.48	15.7629
1193.1	16.1748
1194.71	16.8512
1196.33	18.1896
1197.95	19.3623
1199.57	21.1017
1201.19	22.3926
1202.8	24.8309
1204.42	27.0199
1206.04	28.5803
1207.65	29.7314
1209.27	31.7526
1210.88	33.8525
1212.5	34.9198
1214.12	36.6936
1215.73	39.1643
1217.35	41.3541
1218.96	44.67
1220.57	47.6123
1222.19	50.2878
1223.8	52.8565
1225.41	55.2792
1227.03	56.9175
1228.64	59.4638
1230.25	61.091
1231.86	62.4737
1233.47	64.227
1235.08	65.5615
1236.69	66.9896
1238.31	67.8469
1239.92	69.178
1241.52	68.8661
1243.13	69.7638
1244.74	69.2038
1246.35	68.8799
1247.96	69.6805
1249.57	70.8798
1251.18	71.3885
1252.78	72.1333
1254.39	71.105
1256	69.9597
1257.6	68.9491
1259.21	68.6955
1260.82	68.8472
1262.42	68.4921
1264.03	68.3653
1265.63	67.2367
1267.24	66.0571
1268.84	65.8917
1270.45	66.098
1272.05	65.6735
1273.65	66.2642
1275.26	67.2274
1276.86	67.9068
1278.46	69.0051
1280.06	69.8225
1281.67	70.7705
1283.27	72.1197
1284.87	73.9846
1286.47	76.4097
1288.07	78.262
1289.67	80.3768
1291.27	82.4231
1292.87	84.2136
1294.47	87.3965
1296.07	90.1858
1297.67	92.3442
1299.27	95.3512
1300.87	97.3413
1302.47	100.176
1304.06	102.174
1305.66	104.201
1307.26	106.445
1308.85	109.337
1310.45	112.149
1312.05	113.337
1313.64	115.657
1315.24	116.442
1316.83	116.737
1318.43	116.981
1320.02	117.853
1321.62	117.324
1323.21	119.304
1324.8	119.528
1326.4	119.632
1327.99	119.886
1329.59	119.562
1331.18	117.261
1332.77	116.228
1334.36	115.72
1335.95	114.972
1337.54	114.42
1339.14	113.544
1340.73	112.116
1342.32	110.779
1343.91	109.426
1345.5	107.411
1347.09	105.907
1348.67	105
1350.26	104.062
1351.85	102.518
1353.44	101.558
1355.03	99.4269
1356.62	97.1234
1358.2	95.8191
1359.79	94.0786
1361.38	92.1567
1362.96	90.8323
1364.55	89.8048
1366.14	88.53
1367.72	86.161
1369.31	84.2076
1370.89	82.0757
1372.48	80.0846
1374.06	78.854
1375.64	77.6952
1377.23	76.6647
1378.81	76.4538
1380.39	75.1777
1381.98	73.8171
1383.56	72.3584
1385.14	71.9084
1386.72	70.5104
1388.3	69.9955
1389.89	68.7577
1391.47	67.8444
1393.05	66.9596
1394.63	64.4552
1396.21	64.6819
1397.79	64.3341
1399.37	65.5334
1400.95	65.4449
1402.52	66.2848
1404.1	66.0524
1405.68	66.0476
1407.26	67.2931
1408.84	68.077
1410.42	69.0573
1411.99	71.2961
1413.57	74.2498
1415.15	76.3464
1416.72	78.8079
1418.3	81.0975
1419.87	84.1466
1421.45	88.0011
1423.02	90.9669
1424.6	94.1138
1426.17	98.056
1427.75	101.464
1429.32	104.447
1430.89	108.138
1432.47	111.281
1434.04	114.885
1435.61	118.105
1437.18	121.083
1438.76	123.466
1440.33	125.105
1441.9	128.065
1443.47	129.942
1445.04	131.49
1446.61	132.138
1448.18	132.342
1449.75	132.458
1451.32	132.617
1452.89	132.668
1454.46	131.493
1456.03	129.268
1457.6	127.759
1459.16	124.386
1460.73	122.306
1462.3	119.856
1463.87	118.076
1465.43	114.699
1467	110.889
1468.56	106.493
1470.13	101.617
1471.7	96.3962
1473.26	92.3079
1474.83	88.5752
1476.39	84.1149
1477.96	80.4127
1479.52	74.9948
1481.08	70.9792
1482.65	67.3287
1484.21	62.6927
1485.77	58.4343
1487.34	54.389
1488.9	50.8223
1490.46	47.843
1492.02	45.0577
1493.58	42.2128
1495.15	38.8147
1496.71	36.2739
1498.27	34.6838
1499.83	33.2204
1501.39	31.8849
1502.95	31.0009
1504.51	31.133
1506.07	31.3565
1507.63	32.0464
1509.18	32.307
1510.74	31.327
1512.3	31.29
1513.86	30.9219
1515.41	30.8127
1516.97	31.6574
1518.53	32.4746
1520.08	33.5713
1521.64	34.8602
1523.2	35.5569
1524.75	36.8468
1526.31	38.1693
1527.86	39.634
1529.42	41.819
1530.97	43.7458
1532.52	44.3881
1534.08	45.8364
1535.63	44.7978
1537.19	45.6735
1538.74	49.7549
1540.29	52.7118
1541.84	55.6357
1543.4	57.8434
1544.95	60.5564
1546.5	65.0954
1548.05	68.4909
1549.6	73.3108
1551.15	76.5527
1552.7	80.7836
1554.25	85.1041
1555.8	88.7298
1557.35	92.0585
1558.9	95.8429
1560.45	98.6262
1562	100.569
1563.54	102.892
1565.09	106.169
1566.64	109.002
1568.19	112.504
1569.73	114.85
1571.28	116.61
1572.83	118.47
1574.37	120.091
1575.92	122.801
1577.47	124.575
1579.01	126.772
1580.56	129.105
1582.1	131.179
1583.64	132.164
1585.19	133.107
1586.73	132.88
1588.28	132.608
1589.82	132.81
1591.36	131.692
1592.9	130.933
1594.45	130.457
1595.99	129.024
1597.53	127.543
1599.07	125.59
1600.61	122.299
1602.15	119.897
1603.69	117.382
1605.23	115.183
1606.77	112.927
1608.31	110.043
1609.85	107.246
1611.39	105.12
1612.93	102.992
1614.47	105.261
1616.01	106.464
1617.55	106.066
1619.08	105.103
1620.62	104.914
1622.16	104.861
1623.7	103.985
1625.23	102.989
1626.77	102.205
1628.3	101.172
1629.84	101.239
1631.37	100.115
1632.91	99.9455
1634.44	100.075
1635.98	100.528
1637.51	100.253
1639.05	100.885
1640.58	101.014
1642.11	101.712
1643.65	102.641
1645.18	103.622
1646.71	103.549
1648.24	103.999
1649.78	105.348
1651.31	105.579
1652.84	107.105
1654.37	107.384
1655.9	107.96
1657.43	108.853
1658.96	108.076
1660.49	107.251
1662.02	106.725
1663.55	104.802
1665.08	101.994
1666.61	99.8745
1668.14	98.9798
1669.66	97.9286
1671.19	95.35
1672.72	92.4196
1674.25	90.5319
1675.77	87.6061
1677.3	85.6187
1678.83	83.4983
1680.35	81.5351
1681.88	78.7831
1683.4	76.0231
1684.93	73.4752
1686.45	70.7294
1687.98	67.7505
1689.5	63.59
1691.03	60.6775
1692.55	57.2514
1694.07	54.1041
1695.6	50.2053
1697.12	47.3882
1698.64	43.9965
1700.17	40.3967
1701.69	38.1087
1703.21	35.5066
1704.73	32.9384
1706.25	31.4084
1707.77	29.8299
1709.29	28.1171
1710.81	26.673
1712.33	25.4336
1713.85	23.9051
1715.37	22.8101
1716.89	21.075
1718.41	20.0753
1719.93	19.3049
1721.45	17.5796
1722.97	16.9391
1724.49	16.6668
1726	15.5253
1727.52	14.8028
1729.04	13.8384
1730.55	12.9927
1732.07	12.1057
1733.59	11.5897
1735.1	10.4768
1736.62	9.97443
1738.13	9.79758
1739.65	8.55208
1741.16	8.01165
1742.68	8.49298
1744.19	8.56488
1745.7	7.17539
1747.22	5.88115
1748.73	6.16424
1750.24	6.42444
1751.76	6.20019
1753.27	6.35564
1754.78	5.64136
1756.29	5.45154
1757.8	4.85342
1759.31	4.39305
1760.83	3.51389
1762.34	2.77077
1763.85	2.65937
1765.36	1.8336
1766.87	2.06997
1768.38	1.94244
1769.89	2.36709
1771.39	2.58321
1772.9	3.0818
1774.41	2.9997
1775.92	3.44203
1777.43	3.87604
1778.94	3.93734
1780.44	3.83631
1781.95	4.62597
1783.46	4.15924
1784.96	3.94782
1786.47	4.23241
1787.97	4.60931
1789.48	4.56128
1790.99	4.72636
1792.49	4.15719
1794	3.83173
1795.5	3.61464
1797	3.86348
1798.51	4.35794
1800.01	3.79476
1801.51	2.42989
1803.02	2.40475
1804.52	2.17408
1806.02	2.47587
1807.53	2.1808
1809.03	2.74841
1810.53	2.78463
1812.03	2.6527
1813.53	2.9644
1815.03	2.59406
1816.53	3.13486
1818.03	2.53978
1819.53	2.35103
1821.03	2.5089
1822.53	2.72889
1824.03	3.29143
1825.53	3.42986
1827.03	3.44742
1828.53	3.17175
1830.02	2.73974
1831.52	3.00744
1833.02	2.96677
1834.52	2.73268
1836.01	2.83499
1837.51	3.01137
1839.01	3.20031
1840.5	3.09034
1842	3.60043
1843.49	4.44396
1844.99	4.75289
1846.48	4.91891
1847.98	4.95456
1849.47	5.29165
1850.97	5.19243
1852.46	5.04294
1853.95	5.34608
1855.45	5.38701
1856.94	6.01813
1858.43	5.87434
1859.93	6.39512
1861.42	6.78615
1862.91	6.7388
1864.4	6.69068
1865.89	7.38037
1867.38	7.20753
1868.87	7.22643
1870.36	6.37226
1871.85	6.66757
1873.34	6.81691
1874.83	6.89941
1876.32	7.07126
1877.81	7.26213
1879.3	7.01528
1880.79	6.78703
1882.28	6.94107
1882.52	7.2325
1884.02	7.36955
1885.51	7.76302
1887.01	8.31826
1888.5	7.76605
1889.99	8.01155
1891.49	7.85979
1892.98	7.99976
1894.47	7.93226
1895.97	7.97993
1897.46	8.10437
1898.95	8.1214
1900.44	8.50885
1901.93	8.85501
1903.42	9.25158
1904.91	10.0306
1906.4	9.33802
1907.89	8.57094
1909.38	8.43635
1910.87	8.38172
1912.36	8.15411
1913.85	9.09062
1915.34	9.64906
1916.83	9.13961
1918.32	9.52079
1919.8	9.57216
1921.29	9.48679
1922.78	9.46261
1924.27	9.99552
1925.75	9.89133
1927.24	9.67759
1928.73	9.34337
1930.21	9.09075
1931.7	8.55558
1933.18	9.02429
1934.67	8.60117
1936.15	8.16024
1937.64	8.44761
1939.12	8.74208
1940.61	7.51421
1942.09	7.48227
1943.57	6.74561
1945.06	7.27035
1946.54	6.99299
1948.02	6.50455
1949.51	6.24317
1950.99	5.72479
1952.47	5.8495
1953.95	6.54082
1955.43	6.78939
1956.91	7.01997
1958.4	7.23677
1959.88	7.1224
1961.36	7.62149
1962.84	7.58161
1964.32	7.18919
1965.8	6.53051
1967.27	6.16051
1968.75	5.46427
1970.23	5.45378
1971.71	5.07121
1973.19	4.69519
1974.67	5.35051
1976.14	4.58148
1977.62	4.17911
1979.1	4.12325
1980.58	3.59019
1982.05	3.58919
1983.53	4.3847
1985	4.66608
1986.48	5.56397
1987.95	6.31111
1989.43	6.05407
1990.9	6.34703
1992.38	7.08248
1993.85	6.88723
1995.33	6.87866
1996.8	7.15726
1998.27	7.93945
1999.75	7.89204
2001.22	7.84487
2002.69	8.50403
2004.16	9.24986
2005.64	9.36882
2007.11	9.39432
2008.58	9.38022
2010.05	9.34489
2011.52	9.57868
2012.99	10.2234
2014.46	10.2866
2015.93	10.9765
2017.4	10.3456
2018.87	10.548
2020.34	11.2032
2021.81	11.2801
2023.28	11.707
2024.75	12.4139
2026.22	12.8043
2027.69	13.1112
2029.15	13.275
2030.62	13.1349
2032.09	13.1297
2033.56	12.8744
2035.02	12.8473
2036.49	12.3257
2037.96	11.6846
2039.42	11.9952
2040.89	11.5856
2042.35	11.1736
2043.82	10.8455
2045.28	10.2161
2046.75	9.92175
2048.21	9.94503
2049.67	8.84752
2051.14	8.86991
2052.6	8.78551
2054.07	8.43857
2055.53	7.78804
2056.99	8.14904
2058.45	7.84909
2059.92	7.99114
2061.38	7.48741
2062.84	7.5107
2064.3	7.5496
2065.76	7.28788
2067.22	7.32066
2068.68	7.37116
2070.14	7.7551
2071.6	8.7531
2073.06	8.7308
2074.52	8.35057
2075.98	8.52649
2077.44	8.05481
2078.9	7.07021
2080.36	6.93013
2081.82	6.53978
2083.27	6.06547
2084.73	6.16634
2086.19	6.08582
2087.65	5.94005
2089.1	5.75779
2090.56	6.19055
2092.02	6.53771
2093.47	7.13192
2094.93	7.11279
2096.38	7.45224
2097.84	7.70976
2099.29	7.84678
2100.75	7.83201
2102.2	8.01866
2103.66	7.91908
2105.11	8.30331
2106.56	8.70749
2108.02	9.38797
2109.47	9.86159
2110.92	9.58818
2112.38	9.49098
2113.83	9.19996
2115.28	9.03573
2116.73	8.49675
2118.18	8.66232
2119.63	9.15578
2121.09	8.94942
2122.54	8.39038
2123.99	8.32308
2125.44	8.3655
2126.89	8.91351
2128.34	9.09698
2129.79	9.26282
2131.23	9.15168
2132.68	9.38862
2134.13	9.43027
2135.58	9.79883
2137.03	10.0032
2138.48	10.1303
2139.92	10.4037
2141.37	10.7825
2142.82	10.682
2144.27	10.945
2145.71	10.2429
2147.16	9.8812
2148.6	10.1113
2150.05	10.1962
2151.49	10.1251
2152.94	10.3872
2154.38	11.1647
2155.83	12.4932
2157.27	12.896
2158.72	13.0253
2160.16	13.522
2161.6	14.0387
2163.05	13.8621
2164.49	13.7334
2165.93	14.0862
2167.38	14.1821
2168.82	14.2515
2170.26	14.5617
2171.7	14.049
2173.14	13.681
2174.58	13.8499
2176.03	14.0092
2177.47	14.8287
2178.91	15.1101
2180.35	15.1197
2181.79	14.7139
2183.23	14.2807
2184.67	14.2939
2186.1	13.2993
2187.54	12.3145
2188.98	12.2841
2190.42	12.161
2191.86	11.823
2193.3	10.6584
2194.73	10.5627
2196.17	10.6667
2197.61	10.565
2199.05	10.481
2200.48	9.84352
2201.92	8.82572
2203.35	8.44325
2204.79	8.54346
2206.22	7.66637
2207.66	7.45083
2209.1	7.06833
2210.53	6.66241
2211.97	6.42919
2213.4	6.72067
2214.83	6.28613
2216.27	6.28053
2217.7	6.19005
2219.13	6.31718
2220.57	7.01398
2222	6.57294
2223.43	6.74582
2224.86	7.52793
2226.29	8.23903
2227.72	7.9111
2229.16	7.5609
2230.59	7.98618
2232.02	7.99479
2233.45	8.95708
2234.88	8.69746
2236.31	9.21757
2237.74	8.90546
2239.17	8.64059
2240.6	8.31571
2242.03	8.33225
2243.45	7.97284
2244.88	8.47838
2246.31	8.66888
2247.74	8.77669
2249.17	9.26104
2250.59	8.76717
2252.02	9.23867
2253.45	9.15678
2254.87	9.59564
2256.3	9.43288
2257.73	9.17879
2259.15	10.2449
2260.58	11.1092
2262	10.8712
2263.43	11.125
2264.85	11.3114
2266.28	11.2872
2267.7	11.1723
2269.13	10.6271
2270.55	10.7484
2271.97	9.85015
2273.4	9.50906
2274.82	9.21371
2276.24	8.73491
2277.67	7.68943
2279.09	7.44855
2280.51	7.02595
2281.93	7.37249
2283.35	7.07872
2284.77	6.53481
2286.2	5.76338
2287.62	5.53439
2289.04	5.10476
2290.46	4.7505
2291.88	5.11051
2293.3	4.27979
2294.72	4.57046
2296.13	5.07207
2297.55	5.62025
2298.97	5.78733
2300.39	6.34835
2301.81	6.49556
2303.23	6.41316
2304.64	7.32451
2306.06	7.32975
2307.48	7.63809
2308.89	7.88463
2310.31	8.67704
2311.73	8.7648
2313.14	8.76303
2314.56	8.85111
2315.98	9.71826
2317.39	10.4623
2318.81	11.5055
2320.22	12.2874
2321.64	12.5415
2323.05	13.0513
2324.46	12.6623
2325.88	12.7493
2327.29	12.0864
2328.7	12.655
2330.12	12.6587
2331.53	11.9373
2332.94	11.4781
2334.35	11.1711
2335.77	10.8925
2337.18	10.0376
2338.59	9.63533
2340	8.76607
2341.41	7.9322
2342.82	6.38426
2344.23	6.12988
2345.64	5.01618
2347.05	4.35112
2348.46	3.81097
2349.87	3.20238
2351.28	3.19747
2352.69	3.28149
2354.1	2.28365
2355.51	1.84253
2356.91	1.96989
2358.32	1.68229
2359.73	0.923294
2361.14	1.46947
2362.54	2.11828
2363.95	1.94167
2365.36	2.76115
2366.76	3.2941
2368.17	3.62462
2369.58	3.48202
2370.98	3.23977
2372.39	3.53814
2373.79	3.78187
2375.2	3.96117
2376.6	4.06341
2378	3.65646
2379.41	3.5435
2380.81	3.56422
2382.22	3.26062
2383.62	3.43269
2385.02	3.90461
2386.43	4.23365
2387.83	4.03666
2389.23	3.60861
2390.63	3.12181
2392.03	2.95934
2393.44	2.13494
2394.84	1.52588
2396.24	1.33945
2397.64	0.973541
2399.04	1.70253
2400.44	0.767338
2401.84	0.495008
2403.24	0.66722
2404.64	1.2964
2406.04	1.37079
2407.44	0.927028
2408.84	0.670584
2410.23	1.27881
2411.63	1.38424
2413.03	2.38807
2414.43	3.24143
2415.83	3.39562
2417.22	4.43611
2418.62	5.69045
2420.02	6.90526
2421.41	7.64194
2422.81	7.78317
2424.21	7.88498
2425.6	8.65557
2427	9.17097
2428.39	9.08401
2429.79	9.36504
2431.18	9.95208
2432.58	10.1961
2433.97	10.6948
2435.36	10.5148
2436.76	10.1085
2438.15	10.0661
2439.54	9.63961
2440.94	9.86754
2442.33	9.54903
2443.72	9.14704
2445.12	8.95155
2446.51	9.14276
2447.9	8.64923
2449.29	8.10922
2450.68	7.80543
2452.07	6.94219
2453.46	6.40689
2454.85	6.36211
2456.24	6.05974
2457.64	5.41021
2459.02	4.56423
2460.41	4.73099
2461.8	4.07589
2463.19	3.16125
2464.58	3.19846
2465.97	3.33178
2467.36	3.11022
2468.75	2.98039
2470.13	2.72662
2471.52	3.04649
2472.91	3.13226
2474.3	3.10834
2475.68	1.8533
2477.07	1.99201
2478.45	2.03728
2479.84	1.75968
2481.23	1.56629
2482.61	1.65681
2484	1.67544
2485.38	1.77499
2486.77	2.03893
2488.15	2.35161
2489.54	1.65997
2490.92	1.25182
2492.3	1.51111
2493.69	1.62537
2495.07	1.64767
2496.45	1.54688
2497.84	1.40365
2499.22	2.11155
2500.6	1.87921
2501.98	2.48251
2503.36	2.30422
2504.75	1.7325
2506.13	1.88053
2507.51	1.80148
2508.89	1.87895
2510.27	1.86507
2511.65	1.90399
2513.03	1.97705
2514.41	1.93746
2515.79	1.55848
2517.17	1.49346
2518.55	1.14707
2519.93	1.29215
2521.3	1.88667
2522.68	2.05182
2524.06	2.38216
2525.44	2.12693
2526.82	1.77251
2528.19	1.68529
2529.57	1.58503
2530.95	1.03526
2532.32	1.59709
2533.7	2.27687
2535.08	1.87585
2536.45	1.74065
2537.83	1.76577
2539.2	1.95985
2540.58	1.33425
2541.95	1.04219
2543.33	0.819833
2544.7	0.302405
2546.08	1.04931
2547.45	0.706367
2548.82	0.526478
2550.2	1.86291
2551.57	2.28952
2552.94	2.80363
2554.32	3.06838
2555.69	3.13687
2557.06	3.5371
2558.43	3.08962
2559.8	3.12031
2561.18	3.51732
2562.55	3.35118
2563.92	3.73167
2565.29	4.06741
2566.66	3.9479
2568.03	4.15878
2569.4	3.58878
2570.77	4.32115
2572.14	4.27579
2573.51	4.37051
2574.88	4.13037
2576.25	4.64172
2577.61	5.04812
2578.98	4.24878
2580.35	4.14913
2581.72	3.30145
2583.09	2.98738
2584.45	2.94509
2585.82	3.00025
2587.19	2.75476
2588.55	2.70797
2589.92	2.46063
2591.29	1.49385
2592.65	0.961209
2594.02	0.30604
2595.38	-0.191816
2596.75	-0.260305
2598.11	-0.133032
2599.48	0.634746
2600.84	1.25937
2602.21	1.14588
2603.57	1.01717
2604.93	1.71479
2606.3	2.28392
2607.66	2.42664
2609.02	2.5572
2610.39	2.88368
2611.75	3.2656
2613.11	3.66586
2614.47	3.8248
2615.83	3.95835
2617.19	4.41103
2618.56	4.65444
2619.92	4.72994
2621.28	4.74455
2622.64	4.66686
2624	4.07139
2625.36	4.51405
2626.72	4.61651
2628.08	5.22832
2629.44	5.66839
2630.8	6.10933
2632.15	6.18685
2633.51	6.02502
2634.87	6.14386
2636.23	6.33632
2637.59	5.85957
2638.94	6.3196
2640.3	5.76026
2641.66	6.15641
2643.02	6.15002
2644.37	6.06716
2645.73	5.53505
2647.09	4.66228
2648.44	4.73314
2649.8	4.44934
2651.15	4.67731
2652.51	4.88294
2653.86	4.7722
2655.22	4.53414
2656.57	3.9961
2657.93	3.72694
2659.28	3.61574
2660.63	3.57057
2661.99	3.50414
2663.34	3.92182
2664.69	4.26405
2666.05	4.78081
2667.4	5.55814
2668.75	6.34541
2670.1	6.77435
2671.45	7.28149
2672.81	7.30949
2674.16	7.42688
2675.51	6.91221
2676.86	6.99378
2678.21	6.90816
2679.56	7.04943
2680.91	6.78632
2682.26	6.89611
2683.61	7.39289
2684.96	7.12222
2686.31	7.29286
2687.66	7.87461
2689	7.43294
2690.35	7.65057
2691.7	8.23806
2693.05	9.69628
2694.4	10.0915
2695.74	10.901
2697.09	11.0575
2698.44	12.0767
2699.79	11.8615
2701.13	12.3207
2702.48	12.9225
2703.83	13.7744
2705.17	14.2733
2706.52	14.9055
2707.86	15.417
2709.21	15.6372
2710.55	14.9106
2711.9	15.2039
2713.24	15.7019
2714.58	16.0861
2715.93	16.5003
2717.27	16.9852
2718.62	17.288
2719.96	16.7813
2721.3	16.7728
2722.65	16.5252
2723.99	16.6461
2725.33	16.9381
2726.67	16.9864
2728.01	16.7808
2729.35	16.768
2730.7	17.0052
2732.04	17.0803
2733.38	17.2342
2734.72	17.5464
2736.06	17.3086
2737.4	16.6524
2738.74	16.475
2740.08	15.6127
2741.42	15.7391
2742.76	15.2154
2744.1	15.5348
2745.43	15.0705
2746.77	14.9315
2748.11	14.467
2749.45	14.2104
2750.79	13.7606
2752.12	13.7213
2753.46	13.8947
2754.8	13.3651
2756.14	13.1173
2757.47	13.7209
2758.81	13.9502
2760.14	13.7012
2761.48	13.3014
2762.81	13.2551
2764.15	13.2501
2765.49	13.4099
2766.82	13.1162
2768.16	12.524
2769.49	12.6976
2770.82	12.8281
2772.16	11.9254
2773.49	11.2348
2774.82	10.7938
2776.16	9.97674
2777.49	9.68705
2778.82	9.59548
2780.16	9.16539
2781.49	8.93187
2782.82	7.43206
2784.15	6.83225
2785.48	6.06302
2786.82	5.21882
2788.15	5.23384
2789.48	5.42545
2790.81	4.98025
2792.14	4.55199
2793.47	3.88959
2794.8	3.67609
2796.13	3.65373
2797.46	3.95611
2798.79	4.14311
2800.12	3.89142
2801.44	4.0532
2802.77	4.09553
2804.1	3.70843
2805.43	3.82111
2806.76	3.42517
2808.08	3.58997
2809.41	2.89901
2810.74	2.87931
2812.07	2.37758
2813.39	2.8627
2814.72	2.36335
2816.05	2.83317
2817.37	3.02086
2818.7	3.51962
2820.02	4.29431
2821.35	5.159
2822.67	6.42493
2824	7.68043
2825.32	9.02515
2826.65	10.3519
2827.97	12.5567
2829.3	14.8594
2830.62	17.4765
2831.94	19.5088
2833.26	22.2316
2834.59	24.9257
2835.91	28.1802
2837.23	31.2422
2838.56	34.0835
2839.88	37.465
2841.2	41.0414
2842.52	45.4412
2843.84	50.455
2845.16	55.2728
2846.48	61.0612
2847.8	66.6651
2849.12	72.3133
2850.45	79.5746
2851.77	86.4845
2853.08	93.672
2854.4	101.023
2855.72	108.062
2857.04	114.272
2858.36	121.733
2859.68	128.851
2861	135.991
2862.32	142.072
2863.63	148.347
2864.95	154.422
2866.27	160.632
2867.59	166.089
2868.9	171.058
2870.22	176.174
2871.54	181.038
2872.85	185.051
2874.17	188.759
2875.48	191.778
2876.8	195.226
2878.11	198.111
2879.43	200.896
2880.74	203.131
2882.06	205.991
2883.37	207.903
2884.69	210.24
2886	211.804
2887.31	213.846
2888.63	215.619
2889.94	217.534
2891.25	219.944
2892.57	222.507
2893.88	225.124
2895.19	228.188
2896.5	230.906
2897.82	233.597
2899.13	237.169
2900.44	240.671
2901.75	244.165
2903.06	249.385
2904.37	254.872
2905.68	260.642
2906.99	266.477
2908.3	273.089
2909.61	279.049
2910.92	286.176
2912.23	293.407
2913.54	300.548
2914.85	307.782
2916.16	315.498
2917.46	322.054
2918.77	328.511
2920.08	333.992
2921.39	339.612
2922.7	345.15
2924	350.286
2925.31	353.251
2926.62	355.883
2927.92	358.486
2929.23	360.69
2930.54	362.351
2931.84	362.169
2933.15	360.98
2934.45	360.121
2935.76	358.462
2937.06	355.424
2938.37	351.763
2939.67	347.974
2940.98	343.27
2942.28	338.755
2943.58	333.594
2944.89	328.11
2946.19	322.864
2947.49	316.609
2948.8	310.27
2950.1	303.92
2951.4	297.74
2952.7	292.01
2954.01	286.191
2955.31	280.196
2956.61	273.732
2957.91	267.638
2959.21	261.546
2960.51	255.586
2961.81	249.69
2963.11	243.455
2964.41	237.628
2965.71	232.294
2967.01	227.214
2968.31	222.626
2969.61	217.402
2970.91	212.158
2972.21	206.719
2973.51	201.854
2974.81	196.85
2976.1	192.448
2977.4	186.762
2978.7	182.028
2980	176.803
2981.29	172.153
2982.59	166.716
2983.89	161.175
2985.18	155.705
2986.48	150.304
2987.78	145.242
2989.07	138.499
2990.37	132.029
2991.66	126.695
2992.96	121.012
2994.25	114.566
2995.55	108.899
2996.84	102.697
2998.14	96.9383
2999.43	91.6487
3000.73	86.107
3002.02	81.066
3003.31	76.1841
3004.61	71.4907
3005.9	66.6101
3007.19	62.5526
3008.48	58.9019
3009.77	55.4957
3011.07	52.5077
3012.36	49.0029
3013.65	46.2988
3014.94	43.6725
3016.23	40.8753
3017.52	38.463
3018.81	36.8197
3020.1	34.423
3021.4	32.0961
3022.68	30.8118
3023.97	28.8064
3025.26	27.2146
3026.55	25.8691
3027.84	23.9523
3029.13	23.8282
3030.42	23.1344
3031.71	22.7456
3033	22.1114
3034.28	22.1441
3035.57	21.7695
3036.86	21.813
3038.15	22.18
3039.43	22.2742
3040.72	22.8735
3042.01	23.8986
3043.29	25.0682
3044.58	26.1799
3045.87	27.4449
3047.15	28.3797
3048.44	28.9197
3049.72	30.0089
3051.01	30.5671
3052.29	31.8546
3053.58	31.667
3054.86	32.2067
3056.15	31.8128
3057.43	31.6295
3058.71	31.5105
3060	31.6553
3061.28	31.0272
3062.56	30.6623
3063.84	30.6007
3065.13	30.39
3066.41	29.8794
3067.69	29.4649
3068.97	28.8868
3070.26	28.3272
3071.54	27.4549
3072.82	26.5562
3074.1	24.9713
3075.38	23.3223
3076.66	22.2726
3077.94	20.7186
3079.22	19.0549
3080.5	17.4046
3081.78	16.0507
3083.06	14.2814
3084.34	12.1941
3085.62	10.1433
3086.9	8.82261
3088.18	7.3288
3089.45	6.21005
3090.73	5.13318
3092.01	3.91808
3093.29	3.63082
3094.56	2.30419
3095.84	2.19277
3097.12	1.20598
3098.4	1.05018
3099.67	0.668479
3100.95	1.23239
3102.22	1.1293
3103.5	1.26012
3104.78	1.8259
3106.05	1.85693
3107.33	2.0786
3108.6	2.43792
3109.88	2.2712
3111.15	2.06394
3112.43	2.24613
3113.7	2.82791
3114.97	3.13811
3116.25	3.32435
3117.52	2.98608
3118.79	2.94021
3120.07	2.88766
3121.34	3.7556
3122.61	4.14069
3123.88	4.46612
3125.16	4.69415
3126.43	5.60295
3127.7	6.05371
3128.97	6.49149
3130.24	6.60895
3131.51	7.00504
3132.79	6.88089
3134.06	6.70272
3135.33	6.68069
3136.6	6.86757
3137.87	6.93685
3139.14	7.35182
3140.41	7.68572
3141.67	7.14682
3142.94	6.85784
3144.21	6.60365
3145.48	6.48306
3146.75	6.49898
3148.02	6.35118
3149.29	6.03886
