#Acq. time (s)=	45
#Accumulations=	2
#Range (cm-¹)=	200...3150
#Windows=	2
#Auto scanning=	Off
#Autofocus=	Off
#Macrospot=	Off
#AutoExposure=	Off
#Spike filter=	Multiple accum.
#Delay time (s)=	0
#Binning=	1
#Readout mode=	Signal
#DeNoise=	Off
#ICS correction=	On
#Dark correction=	Off
#Inst. Process=	Off
#Detector Gain=	Best Dynamic Range
#Detector ADC=	20 kHz       
#Detector temperature (°C)=	-69.85
#Instrument=	LabRAM HR Evol
#Detector=	Synapse
#Objective=	x100
#Grating=	600 gr/mm
#ND Filter=	100%
#Laser (nm)=	532 
#Hole=	100.021
#Range=	Auto
#Laser Pol.=	No
#Raman. Pol.=	No
#Laser Pol. (°)=	-0.0007625
#Raman Pol. (°)=	89.9995
#Collection=	Microscope
#StageXY=	Marzhauser
#StageZ=	Marzhauser
#X (µm)=	-5896.9
#Y (µm)=	2848.3
#Z (µm)=	-223.7
#Full time(mm:ss)=	3:18
#Project=	
#Sample=	
#Site=	
#Title=	Thy_20_09_13_2x_45s_532 nm_x100_100%_600 gr_mm
#Remark=	
#Date=	29.06.2022 11:37
#Acquired=	29.06.2022 11:37:12
#Base:Fit=	10.08.2022 09:52:02
#Base:Fit=	10.08.2022 09:52:12
#Base:Sub=	10.08.2022 09:54:21
#Filter:Polynom=	16.08.2022 10:24:04
#AxisType[0]=Intens
#AxisUnit[0]=Cnt
#AxisType[1]=Spectr
#AxisUnit[1]=1/cm
200.523	19.4719
202.339	18.1345
204.154	16.4496
205.967	16.4659
207.781	16.0797
209.596	15.348
211.409	14.894
213.222	14.0517
215.034	13.7417
216.848	12.5234
218.659	11.5131
220.47	10.8455
222.281	11.0234
224.091	10.439
225.903	10.0676
227.713	9.22272
229.522	8.30989
231.331	6.29591
233.14	5.038
234.948	5.06648
236.756	4.04632
238.566	4.40316
240.373	4.59232
242.18	4.23244
243.986	4.05082
245.792	4.77756
247.598	4.0165
249.403	3.00752
251.208	2.45476
253.013	3.25435
254.818	3.54968
256.624	3.41425
258.427	3.33096
260.231	4.1963
262.034	5.23785
263.836	5.0881
265.638	5.8848
267.44	6.18382
269.242	6.87416
271.043	6.29135
272.844	6.3131
274.645	6.17626
276.445	5.75651
278.245	6.27467
280.044	6.66593
281.843	6.07565
283.642	5.7163
285.44	6.20869
287.238	5.65432
289.036	5.99548
290.833	7.49111
292.63	7.69387
294.425	8.10522
296.221	7.40419
298.017	8.14896
299.813	7.50742
301.608	8.12175
303.403	7.47692
305.198	6.93238
306.992	6.1797
308.786	6.38578
310.579	6.68243
312.371	6.42009
314.163	5.74092
315.956	5.36239
317.748	5.37137
319.54	5.00422
321.331	5.43967
323.122	6.64482
324.911	7.06985
326.701	6.71419
328.491	7.40005
330.281	7.17637
332.071	6.63485
333.857	6.73859
335.646	6.7636
337.434	5.84809
339.222	6.13844
341.008	6.75511
342.795	6.33321
344.582	6.16875
346.369	6.43276
348.153	7.51032
349.939	7.42144
351.724	6.67409
353.51	6.17777
355.292	6.85564
357.077	6.598
358.861	6.58259
360.643	6.39859
362.426	7.12386
364.21	6.60835
365.99	6.56805
367.773	7.10594
369.555	7.44843
371.335	7.49792
373.116	6.92948
374.897	5.96044
376.676	5.47813
378.456	7.27103
380.236	7.46513
382.014	6.96692
383.793	6.88843
385.57	6.36803
387.349	6.17034
389.127	5.84034
390.903	6.34339
392.681	6.21335
394.456	6.04912
396.233	6.88861
398.007	7.55016
399.784	7.97043
401.56	6.90429
403.333	7.38555
405.108	7.87037
406.881	8.43695
408.656	8.45022
410.428	9.42784
412.202	9.62744
413.973	9.20945
415.746	9.8051
417.517	11.2506
419.29	11.3423
421.06	11.9785
422.831	12.4977
424.601	12.702
426.37	13.4633
428.141	13.8341
429.909	13.5316
431.679	13.3739
433.447	13.1904
435.216	13.6489
436.983	12.6669
438.75	11.2253
440.519	11.2051
442.285	11.4634
444.052	11.9506
445.818	11.5336
447.583	10.0657
449.349	10.3493
451.114	10.7853
452.878	10.1497
454.643	10.3892
456.407	10.0248
458.169	9.02181
459.934	8.03859
461.696	6.8295
463.458	6.89674
465.222	6.98466
466.983	6.79579
468.744	6.50176
470.507	7.0072
472.267	7.55572
474.027	8.0675
475.787	9.12699
477.548	9.9638
479.307	10.5159
481.065	10.5731
482.823	11.077
484.583	12.1155
486.341	12.9124
488.098	13.0019
489.855	14.1054
491.612	15.9351
493.37	16.1651
495.126	16.6597
496.881	17.7489
498.636	19.0265
500.391	20.0552
502.148	20.7697
503.902	20.9483
505.656	21.3216
507.409	20.1094
509.162	20.7477
510.915	19.6941
512.668	19.8402
514.42	20.8683
516.174	20.7046
517.925	20.9909
519.676	21.2875
521.427	20.079
523.178	19.4932
524.928	19.1917
526.678	19.1375
528.427	19.1175
530.176	18.911
531.925	18.5694
533.673	17.5964
535.422	17.7832
537.169	19.2764
538.917	18.6425
540.664	17.1392
542.411	16.5762
544.157	15.402
545.903	14.918
547.649	14.5943
549.395	14.1072
551.14	13.9504
552.884	13.5304
554.629	14.1676
556.373	14.3745
558.117	14.8958
559.86	14.3655
561.603	13.7815
563.346	13.5382
565.089	12.4658
566.831	11.5203
568.573	10.658
570.314	10.7882
572.053	10.7319
573.794	10.1818
575.534	9.05361
577.274	8.50074
579.014	7.025
580.754	6.59169
582.493	6.79157
584.23	6.27899
585.968	6.1978
587.706	5.47711
589.444	3.83496
591.181	2.77605
592.919	1.90934
594.653	2.42679
596.39	2.40658
598.126	1.9343
599.862	2.57296
601.595	2.34528
603.33	1.95996
605.065	2.20866
606.8	2.44612
608.532	1.49291
610.266	1.98248
611.999	3.10363
613.732	2.21368
615.463	2.47696
617.196	3.65617
618.928	4.9571
620.66	5.81606
622.389	6.72884
624.12	6.92084
625.851	5.96416
627.58	6.22078
629.31	7.66257
631.04	9.04349
632.767	11.186
634.497	12.6942
636.223	13.3902
637.952	14.195
639.68	15.2592
641.406	15.9485
643.134	16.4786
644.861	17.2278
646.586	17.3269
648.312	18.1368
650.037	19.0212
651.762	20.0547
653.486	21.1639
655.211	23.125
656.936	24.125
658.659	25.1106
660.383	25.5816
662.105	25.4889
663.829	26.8498
665.55	26.965
667.273	27.646
668.994	27.2093
670.716	27.8499
672.436	27.7888
674.158	27.4733
675.877	27.0987
677.598	27.6642
679.317	27.0617
681.035	27.7709
682.755	27.6319
684.473	27.3351
686.192	26.9131
687.909	26.2344
689.628	26.986
691.344	27.007
693.06	27.1917
694.778	26.5087
696.493	26.8718
698.211	27.6232
699.925	27.343
701.64	29.0047
703.356	30.3481
705.07	30.675
706.783	30.4948
708.498	30.0209
710.211	30.7069
711.924	31.9244
713.638	34.2321
715.35	35.9167
717.061	37.363
718.774	37.3049
720.485	37.8688
722.196	37.2401
723.906	37.3715
725.618	38.8625
727.328	39.2765
729.037	40.714
730.746	41.8127
732.456	43.5113
734.165	44.6606
735.873	45.3448
737.58	46.8923
739.289	47.4373
740.997	47.6432
742.703	48.1021
744.41	49.1804
746.116	49.0679
747.823	49.2966
749.529	50.7442
751.234	50.3767
752.938	51.7563
754.643	52.361
756.347	53.3365
758.051	51.9776
759.756	52.0426
761.459	52.2842
763.162	51.9156
764.865	51.2329
766.567	51.0448
768.269	51.8978
769.97	51.0147
771.671	50.966
773.372	51.726
775.073	53.2128
776.773	53.9063
778.473	53.7576
780.174	53.6834
781.874	54.6942
783.573	55.4086
785.271	55.2124
786.97	55.7424
788.668	56.7029
790.365	57.0894
792.063	57.2099
793.76	58.4564
795.456	61.1406
797.153	62.1365
798.847	63.3376
800.543	64.3069
802.238	64.563
803.933	64.6412
805.628	65.7241
807.322	66.4674
809.017	67.5755
810.71	69.4153
812.404	69.2284
814.097	70.8709
815.79	71.4333
817.483	72.4045
819.173	72.7668
820.865	72.483
822.556	73.2058
824.248	72.148
825.939	72.4398
827.629	73.5821
829.318	73.4737
831.008	72.2399
832.697	71.4943
834.387	71.3109
836.076	70.7547
837.765	70.0238
839.451	68.3373
841.139	66.7705
842.827	65.0468
844.514	64.408
846.2	63.7779
847.886	61.462
849.573	60.593
851.259	59.3885
852.943	58.9149
854.629	57.1314
856.314	56.3615
857.997	55.9337
859.682	54.287
861.366	53.9018
863.05	52.1612
864.732	51.1371
866.415	51.0403
868.098	50.8226
869.779	50.5151
871.461	51.0613
873.141	51.6004
874.823	50.8872
876.505	50.2558
878.184	50.3524
879.865	49.334
881.545	47.9803
883.223	47.9909
884.903	46.2729
886.581	45.3805
888.26	45.1324
889.937	44.898
891.616	45.0918
893.294	44.9526
894.97	45.0361
896.648	44.6635
898.323	45.1217
900	44.9413
901.675	43.7258
903.351	42.934
905.026	42.3494
906.701	41.9929
908.375	41.403
910.05	41.9008
911.723	41.0165
913.398	39.9645
915.07	38.3215
916.742	37.3644
918.415	37.4703
920.087	36.8866
921.76	35.7017
923.43	35.0009
925.103	34.988
926.773	33.9042
928.443	33.2925
930.114	32.0625
931.783	31.3525
933.454	30.6884
935.123	29.8412
936.791	29.7838
938.461	28.8478
940.128	27.8328
941.796	26.88
943.464	25.7838
945.131	25.9542
946.797	24.6843
948.465	24.9475
950.131	26.0825
951.797	25.9973
953.462	25.1548
955.128	24.6383
956.793	23.7347
958.457	21.9781
960.121	21.2296
961.786	19.9801
963.45	20.4137
965.113	21.4954
966.775	22.722
968.44	23.1824
970.102	24.3733
971.763	25.6474
973.425	27.1966
975.086	28.4883
976.748	29.3546
978.409	29.8677
980.069	30.667
981.729	30.2415
983.388	30.1441
985.048	29.7887
986.708	30.7295
988.367	30.4605
990.025	30.2696
991.683	30.8228
993.341	30.7639
994.998	30.6823
996.655	30.9167
998.312	30.8797
999.969	31.2638
1001.62	31.3019
1003.28	30.8311
1004.94	29.7329
1006.59	29.3031
1008.25	29.3218
1009.9	28.2493
1011.56	28.73
1013.21	27.3154
1014.86	26.6171
1016.52	24.6136
1018.17	24.3593
1019.82	23.1199
1021.48	21.242
1023.13	20.9485
1024.78	20.767
1026.43	19.6746
1028.08	18.3013
1029.73	17.1452
1031.38	16.7515
1033.03	15.5666
1034.68	14.1762
1036.33	12.5448
1037.98	11.0391
1039.63	10.1425
1041.28	9.55604
1042.93	9.28405
1044.57	10.0268
1046.22	11.6388
1047.87	11.8394
1049.52	10.8718
1051.16	9.87905
1052.81	10.0031
1054.45	10.4583
1056.1	9.63363
1057.75	8.73058
1059.39	7.9629
1061.04	6.68304
1062.68	5.49743
1064.32	3.71174
1065.97	3.79582
1067.61	4.08447
1069.25	3.76082
1070.9	3.77236
1072.54	4.58639
1074.18	4.37975
1075.82	3.56464
1077.47	4.6621
1079.11	4.42527
1080.75	4.11866
1082.39	4.12994
1084.03	3.78421
1085.67	4.57527
1087.31	5.26458
1088.95	6.24588
1090.59	6.64811
1092.22	7.16079
1093.86	8.47758
1095.5	7.88225
1097.14	9.14648
1098.78	9.68097
1100.41	11.1967
1102.05	10.4139
1103.69	10.7322
1105.32	11.0049
1106.96	10.5737
1108.59	10.3864
1110.23	10.0537
1111.86	10.2149
1113.5	10.9291
1115.13	11.7944
1116.77	12.0683
1118.4	12.7976
1120.03	13.1725
1121.67	13.5908
1123.3	13.2153
1124.93	12.441
1126.56	12.1648
1128.19	12.0567
1129.83	11.4241
1131.46	10.5782
1133.09	10.6068
1134.72	9.93529
1136.35	9.04653
1137.98	8.47551
1139.61	9.30495
1141.24	9.02594
1142.86	9.28145
1144.49	7.84181
1146.12	7.76563
1147.75	7.84744
1149.38	7.81773
1151	6.90433
1152.63	6.49007
1154.26	5.57703
1155.88	4.45123
1157.51	4.34307
1159.14	5.57016
1160.76	4.15891
1162.39	4.6244
1164.01	4.56074
1165.63	4.47607
1167.26	4.51293
1168.88	4.32847
1170.51	4.58909
1172.13	5.12559
1173.75	5.97064
1175.38	5.8219
1177	5.83721
1178.62	6.73485
1180.24	6.10507
1181.86	6.15037
1183.48	6.02512
1185.1	6.23759
1186.72	7.10129
1188.34	7.80327
1189.96	8.66796
1191.58	9.42855
1193.2	10.3689
1194.82	11.6121
1196.44	12.5509
1198.06	12.9783
1199.68	14.3421
1201.29	14.7375
1202.91	15.6927
1204.53	17.4599
1206.14	18.3306
1207.76	20.4565
1209.38	23.3153
1210.99	24.5383
1212.61	26.9631
1214.22	29.3926
1215.84	32.2516
1217.45	35.2242
1219.07	37.5995
1220.68	40.2861
1222.29	41.4379
1223.91	43.9559
1225.52	44.0634
1227.13	47.4889
1228.74	49.2396
1230.36	51.4818
1231.97	53.0567
1233.58	54.4407
1235.19	56.4278
1236.8	58.1967
1238.41	59.4227
1240.02	60.901
1241.63	61.3215
1243.24	63.3506
1244.85	64.1186
1246.46	64.6274
1248.07	64.8985
1249.67	66.5204
1251.28	67.1686
1252.89	67.2685
1254.5	68.509
1256.1	69.3202
1257.71	70.0757
1259.32	69.5002
1260.92	68.4959
1262.53	68.7906
1264.13	67.8631
1265.74	67.0005
1267.34	67.8253
1268.95	67.9019
1270.55	67.8231
1272.15	67.8388
1273.76	67.0722
1275.36	68.0904
1276.97	68.7296
1278.57	69.6472
1280.17	70.2608
1281.77	71.264
1283.37	72.2915
1284.97	73.6793
1286.58	74.0991
1288.18	75.997
1289.78	77.0913
1291.38	77.456
1292.98	78.329
1294.58	79.2713
1296.18	80.2277
1297.78	80.7029
1299.37	81.4423
1300.97	82.4734
1302.57	83.3127
1304.17	85.0971
1305.77	86.0633
1307.36	87.9924
1308.96	89.0094
1310.55	90.6679
1312.15	91.6236
1313.75	93.239
1315.34	93.7066
1316.94	94.4125
1318.53	94.97
1320.13	95.3636
1321.72	95.05
1323.32	95.5538
1324.91	95.4064
1326.5	95.3535
1328.1	95.1905
1329.69	95.867
1331.28	94.6696
1332.87	94.0061
1334.47	93.0937
1336.06	90.8329
1337.65	89.2013
1339.24	87.132
1340.83	86.5109
1342.42	85.1875
1344.01	82.9058
1345.6	80.8306
1347.19	79.3466
1348.78	78.9611
1350.37	76.588
1351.96	76.0571
1353.54	74.5808
1355.13	74.0467
1356.72	72.0341
1358.31	71.8942
1359.89	71.8006
1361.48	71.7537
1363.07	69.6727
1364.65	68.0585
1366.24	67.0581
1367.82	66.2945
1369.41	65.3759
1370.99	63.8129
1372.58	63.2815
1374.16	63.9914
1375.75	63.9498
1377.33	62.8156
1378.91	62.2847
1380.5	62.3841
1382.08	62.8491
1383.66	62.9532
1385.25	62.3314
1386.83	62.3693
1388.41	62.6529
1389.99	62.9524
1391.57	61.9192
1393.15	61.6412
1394.73	60.1397
1396.31	60.1702
1397.89	59.0339
1399.47	57.8085
1401.05	57.3815
1402.63	57.2266
1404.21	57.2435
1405.78	57.4055
1407.36	56.8338
1408.94	57.2472
1410.52	57.3162
1412.1	57.7475
1413.67	58.0025
1415.25	59.6186
1416.82	61.0155
1418.4	63.0799
1419.98	65.0761
1421.55	65.1812
1423.13	67.1896
1424.7	69.7858
1426.28	73.4776
1427.85	76.9999
1429.42	79.15
1431	82.3293
1432.57	84.5439
1434.14	86.7771
1435.71	89.6765
1437.29	92.288
1438.86	94.3892
1440.43	95.5055
1442	95.9516
1443.57	98.7931
1445.14	100.524
1446.71	101.925
1448.28	103.106
1449.85	103.352
1451.42	104.291
1452.99	104.415
1454.56	102.674
1456.13	101.924
1457.7	100.289
1459.26	98.3438
1460.83	96.4026
1462.4	94.1542
1463.97	92.2129
1465.54	90.1392
1467.1	87.2347
1468.67	83.7217
1470.23	79.6465
1471.8	76.8004
1473.36	73.189
1474.93	69.1589
1476.49	65.7609
1478.06	61.7751
1479.62	58.6304
1481.19	55.4192
1482.75	52.3755
1484.31	48.7892
1485.88	45.9895
1487.44	43.4053
1489	40.9864
1490.56	38.8038
1492.13	37.3999
1493.69	36.4579
1495.25	34.4317
1496.81	33.3839
1498.37	31.329
1499.93	30.3008
1501.49	31.3162
1503.05	30.3758
1504.61	29.8777
1506.17	29.2276
1507.73	29.0247
1509.28	28.7197
1510.84	28.9629
1512.4	28.9896
1513.96	29.7735
1515.52	30.1708
1517.07	31.5029
1518.63	32.6171
1520.19	34.5855
1521.74	36.9021
1523.3	38.599
1524.85	40.9177
1526.41	42.6314
1527.96	43.39
1529.52	44.7298
1531.07	46.1945
1532.63	47.4184
1534.18	48.5684
1535.73	49.7716
1537.29	51.8891
1538.84	54.2962
1540.39	55.8909
1541.94	57.8095
1543.5	59.2363
1545.05	60.5687
1546.6	62.3122
1548.15	64.365
1549.7	66.0178
1551.25	67.8155
1552.8	69.9799
1554.35	73.0802
1555.9	75.4567
1557.45	78.2703
1559	80.7542
1560.55	82.4686
1562.1	84.6762
1563.65	86.5212
1565.19	88.0925
1566.74	90.9063
1568.29	93.6916
1569.83	94.8635
1571.38	96.6403
1572.93	97.7247
1574.47	99.8252
1576.02	102.467
1577.56	104.783
1579.11	106.422
1580.66	107.197
1582.2	109.017
1583.74	110.206
1585.29	112.35
1586.83	113.29
1588.38	114.532
1589.92	114.542
1591.46	114.789
1593.01	115.287
1594.55	115.334
1596.09	115.321
1597.63	115.89
1599.17	115.127
1600.71	114.485
1602.25	113.419
1603.79	111.6
1605.34	110.496
1606.88	109.095
1608.41	107.679
1609.95	105.385
1611.49	103.391
1613.03	102.068
1614.57	99.6698
1616.11	98.4382
1617.65	96.0407
1619.18	94.5168
1620.72	93.0417
1622.26	92.5632
1623.79	92.2693
1625.33	91.3982
1626.87	91.1971
1628.4	92.0888
1629.94	92.143
1631.48	91.6991
1633.01	91.6018
1634.55	90.4417
1636.08	89.4705
1637.61	89.4219
1639.15	89.4161
1640.68	90.0413
1642.21	90.7917
1643.75	91.3284
1645.28	91.6722
1646.81	91.4876
1648.34	93.1746
1649.88	93.286
1651.41	94.7783
1652.94	95.275
1654.47	94.9285
1656	94.6715
1657.53	94.8831
1659.06	94.2475
1660.59	93.1348
1662.12	92.1552
1663.65	90.8263
1665.18	89.1958
1666.71	86.5477
1668.24	84.6982
1669.76	83.9261
1671.29	82.306
1672.82	80.8987
1674.35	78.9443
1675.87	76.0729
1677.4	74.0937
1678.93	71.7691
1680.45	69.0931
1681.98	66.2737
1683.5	62.7874
1685.03	59.5454
1686.55	56.2437
1688.08	53.4957
1689.6	50.6144
1691.13	47.4453
1692.65	44.3595
1694.17	40.7065
1695.7	39.0103
1697.22	36.3757
1698.74	34.7956
1700.27	31.8974
1701.79	30.1544
1703.31	28.3795
1704.83	26.6117
1706.35	24.0036
1707.87	22.2776
1709.39	20.9186
1710.91	19.3438
1712.43	18.6814
1713.95	17.8272
1715.47	16.6493
1716.99	16.0694
1718.51	15.1157
1720.03	14.972
1721.55	14.1385
1723.07	13.0247
1724.58	13.3906
1726.1	11.9673
1727.62	11.9146
1729.13	10.962
1730.65	10.6991
1732.17	10.1508
1733.68	9.48008
1735.2	8.25978
1736.72	7.65399
1738.23	7.61206
1739.74	7.39617
1741.26	6.98272
1742.77	6.62134
1744.29	6.60584
1745.8	6.97818
1747.32	6.56358
1748.83	5.86498
1750.34	5.31123
1751.85	5.10737
1753.37	5.00968
1754.88	4.31863
1756.39	3.42603
1757.9	2.45173
1759.41	2.63123
1760.92	1.76852
1762.44	1.59519
1763.95	1.38814
1765.46	0.748483
1766.96	0.291558
1768.47	0.708967
1769.98	0.838345
1771.49	1.49916
1773	1.3112
1774.51	1.93855
1776.02	1.74916
1777.53	2.45584
1779.03	1.98255
1780.54	1.78434
1782.05	1.65841
1783.55	2.09539
1785.06	2.45373
1786.57	2.57208
1788.07	2.43031
1789.58	2.30265
1791.08	2.74514
1792.59	2.73202
1794.09	3.04383
1795.6	3.12053
1797.1	2.90739
1798.61	3.32352
1800.11	4.17116
1801.61	3.4689
1803.12	3.68996
1804.62	3.63881
1806.12	4.14377
1807.62	3.93668
1809.12	4.14506
1810.63	4.37093
1812.13	4.38167
1813.63	4.7792
1815.13	4.82769
1816.63	4.83923
1818.13	4.55421
1819.63	4.65411
1821.13	5.06381
1822.63	5.28878
1824.13	4.46405
1825.63	4.86368
1827.13	5.01161
1828.62	5.10781
1830.12	5.14591
1831.62	4.96313
1833.12	5.19942
1834.61	5.72844
1836.11	5.63493
1837.61	6.56578
1839.1	6.14899
1840.6	6.06885
1842.09	6.85631
1843.59	7.35608
1845.09	7.05891
1846.58	6.85132
1848.08	6.2164
1849.57	5.58565
1851.06	5.15936
1852.56	4.4841
1854.05	3.94463
1855.54	3.70614
1857.04	3.90378
1858.53	3.87055
1860.02	3.23957
1861.51	2.11044
1863.01	1.6504
1864.5	1.53287
1865.99	1.79735
1867.48	2.04855
1868.97	2.64957
1870.46	2.44782
1871.95	2.22622
1873.44	2.19791
1874.93	2.33389
1876.42	2.00446
1877.91	1.98344
1879.4	2.51574
1880.89	2.40062
1882.37	1.572
1882.46	1.75088
1883.95	2.13944
1885.45	1.83666
1886.94	2.08196
1888.43	2.02727
1889.93	2.05219
1891.42	2.27099
1892.91	2.31784
1894.41	2.84777
1895.9	2.87021
1897.39	2.70055
1898.88	3.04896
1900.37	3.22202
1901.86	4.03599
1903.36	4.20592
1904.85	4.20448
1906.34	4.85928
1907.83	4.89583
1909.32	4.9473
1910.81	4.48917
1912.29	4.42909
1913.78	5.06734
1915.27	5.36389
1916.76	4.8653
1918.25	4.1849
1919.74	4.60508
1921.23	4.61618
1922.71	4.90495
1924.2	5.32692
1925.69	5.57034
1927.17	5.84454
1928.66	6.32774
1930.15	6.60921
1931.63	5.83902
1933.12	5.79962
1934.6	5.66129
1936.09	6.29106
1937.57	7.0382
1939.06	7.76592
1940.54	8.61527
1942.02	8.97652
1943.51	8.42729
1944.99	8.89551
1946.47	9.06683
1947.96	9.27602
1949.44	9.38779
1950.92	9.71953
1952.4	10.362
1953.88	9.38546
1955.37	9.17816
1956.85	9.91479
1958.33	10.1157
1959.81	9.56072
1961.29	9.61331
1962.77	9.48743
1964.25	8.96604
1965.73	8.82475
1967.21	8.94734
1968.69	9.48996
1970.16	9.52227
1971.64	8.93091
1973.12	8.96088
1974.6	9.28087
1976.08	9.3431
1977.55	8.67424
1979.03	7.98587
1980.51	7.65262
1981.98	7.24575
1983.46	7.29358
1984.94	6.89136
1986.41	7.10394
1987.89	7.38192
1989.36	6.84921
1990.84	6.49307
1992.31	6.3467
1993.79	6.43226
1995.26	6.0572
1996.73	5.30763
1998.21	4.53027
1999.68	4.47886
2001.15	4.2571
2002.63	3.96818
2004.1	3.13959
2005.57	3.01144
2007.04	3.91297
2008.51	3.95064
2009.99	3.19927
2011.46	3.23451
2012.93	3.21841
2014.4	3.74932
2015.87	3.58164
2017.34	3.57254
2018.81	4.00573
2020.28	3.84667
2021.75	4.02341
2023.21	3.84115
2024.68	4.46791
2026.15	4.18817
2027.62	3.74716
2029.09	4.2653
2030.56	4.42398
2032.02	4.52869
2033.49	4.36851
2034.96	4.16455
2036.42	3.48173
2037.89	4.15778
2039.36	4.91557
2040.82	5.39791
2042.29	5.5216
2043.75	5.21426
2045.22	5.28683
2046.68	5.61158
2048.14	5.7734
2049.61	5.98272
2051.07	6.59513
2052.54	6.79999
2054	7.75241
2055.46	7.84128
2056.93	7.72598
2058.39	7.62268
2059.85	7.9818
2061.31	8.5099
2062.77	7.8562
2064.23	8.11994
2065.7	8.70974
2067.16	9.36768
2068.62	9.55288
2070.08	9.42099
2071.54	10.141
2073	10.9814
2074.46	10.8559
2075.92	10.7418
2077.38	11.1583
2078.83	11.9471
2080.29	11.2346
2081.75	10.5074
2083.21	9.80802
2084.67	10.6364
2086.12	10.7915
2087.58	11.4127
2089.04	11.8467
2090.49	11.6709
2091.95	12.0582
2093.41	11.879
2094.86	11.9745
2096.32	12.1617
2097.77	12.856
2099.23	12.2104
2100.68	11.6783
2102.14	10.9273
2103.59	10.9886
2105.05	10.9667
2106.5	10.7713
2107.95	10.8269
2109.41	11.2498
2110.86	12.1889
2112.31	11.8546
2113.76	12.263
2115.21	12.8445
2116.67	13.2797
2118.12	13.9064
2119.57	14.4478
2121.02	15.4551
2122.47	16.2466
2123.92	17.538
2125.37	18.3271
2126.82	19.0088
2128.27	19.5837
2129.72	20.6331
2131.17	22.5762
2132.62	24.1129
2134.07	25.4934
2135.51	26.9728
2136.96	28.4072
2138.41	30.0999
2139.86	31.38
2141.31	32.1944
2142.75	33.5254
2144.2	34.9103
2145.65	36.3209
2147.09	37.8585
2148.54	38.375
2149.98	39.4206
2151.43	40.3856
2152.87	40.4143
2154.32	41.2822
2155.76	41.8301
2157.21	42.9463
2158.65	43.9341
2160.1	44.9564
2161.54	45.763
2162.98	46.0288
2164.43	46.5492
2165.87	46.2755
2167.31	46.8182
2168.75	47.0497
2170.2	47.0282
2171.64	46.0502
2173.08	46.4238
2174.52	47.0501
2175.96	47.6415
2177.4	47.9042
2178.84	47.7821
2180.28	47.589
2181.72	46.8171
2183.16	45.9922
2184.6	45.4533
2186.04	44.6619
2187.48	44.1233
2188.92	43.7224
2190.36	42.5855
2191.79	42.2376
2193.23	42.17
2194.67	41.9303
2196.11	41.4441
2197.54	40.0442
2198.98	39.1675
2200.42	38.5363
2201.85	37.7854
2203.29	37.4453
2204.72	36.2263
2206.16	35.3988
2207.59	35.0892
2209.03	33.764
2210.46	33.0124
2211.9	31.7698
2213.33	30.7989
2214.77	30.0488
2216.2	28.9503
2217.63	27.3948
2219.07	25.9407
2220.5	23.8073
2221.93	22.6831
2223.36	21.6625
2224.8	20.1764
2226.23	18.9871
2227.66	18.0046
2229.09	16.7979
2230.52	15.3997
2231.95	15.0851
2233.39	14.6307
2234.81	14.0569
2236.25	13.3868
2237.67	12.6676
2239.1	12.9161
2240.53	12.1098
2241.96	11.7792
2243.39	11.3327
2244.82	11.231
2246.25	11.347
2247.68	10.4163
2249.1	10.5128
2250.53	9.18022
2251.96	8.80728
2253.38	7.71695
2254.81	7.30841
2256.24	7.21821
2257.66	7.25333
2259.09	7.40478
2260.51	7.2635
2261.94	6.7916
2263.36	7.65237
2264.79	7.60714
2266.21	6.79075
2267.64	6.42547
2269.06	5.50413
2270.49	5.9593
2271.91	5.69087
2273.33	5.12816
2274.76	4.86372
2276.18	4.24273
2277.6	4.31373
2279.02	4.5475
2280.44	4.04334
2281.87	4.15183
2283.29	3.95593
2284.71	4.50712
2286.13	4.56253
2287.55	4.33132
2288.97	3.71188
2290.39	3.97409
2291.81	3.87208
2293.23	4.08391
2294.65	4.67129
2296.07	4.88896
2297.49	5.41033
2298.91	6.18102
2300.33	6.94719
2301.74	7.85516
2303.16	9.18245
2304.58	9.5364
2306	9.89263
2307.41	10.0769
2308.83	10.5185
2310.25	10.8964
2311.66	10.5126
2313.08	11.1485
2314.5	11.3915
2315.91	11.7693
2317.33	12.3286
2318.74	12.1446
2320.16	12.1737
2321.57	11.1264
2322.98	10.9434
2324.4	10.9199
2325.81	10.8623
2327.23	10.6957
2328.64	10.0229
2330.05	9.34135
2331.46	9.10097
2332.88	8.46066
2334.29	7.74163
2335.7	6.65869
2337.11	6.06361
2338.52	5.00432
2339.94	3.59561
2341.35	3.41094
2342.76	2.21446
2344.17	1.66833
2345.58	1.57274
2346.99	1.38624
2348.4	1.56779
2349.81	1.45967
2351.22	1.23987
2352.62	0.839551
2354.03	0.855711
2355.44	0.657056
2356.85	-0.125648
2358.26	-0.581294
2359.67	-1.0609
2361.07	-0.493861
2362.48	-0.439465
2363.89	-0.100867
2365.29	0.47897
2366.7	0.796847
2368.11	1.41509
2369.51	1.75693
2370.92	2.2706
2372.32	1.86273
2373.73	1.98184
2375.13	2.0099
2376.54	2.00857
2377.94	2.29975
2379.35	2.49647
2380.75	2.56745
2382.15	2.6021
2383.56	3.62136
2384.96	2.90834
2386.36	3.06758
2387.76	3.05974
2389.17	3.10712
2390.57	2.6386
2391.97	2.15508
2393.37	2.34294
2394.77	2.1261
2396.17	1.49833
2397.58	1.12724
2398.98	0.851962
2400.38	0.970686
2401.78	0.444533
2403.18	0.598633
2404.58	0.346344
2405.97	0.362428
2407.37	0.613786
2408.77	0.131766
2410.17	0.754589
2411.57	1.36316
2412.97	1.38528
2414.37	1.68083
2415.76	1.94415
2417.16	2.19225
2418.56	2.62775
2419.95	2.7982
2421.35	3.23941
2422.75	3.63744
2424.14	3.61505
2425.54	3.8063
2426.93	4.50575
2428.33	5.07134
2429.72	5.11112
2431.12	5.21902
2432.51	5.43891
2433.91	6.07864
2435.3	6.96064
2436.7	6.76543
2438.09	6.93272
2439.48	6.33091
2440.88	6.07002
2442.27	5.25785
2443.66	5.76156
2445.05	6.11932
2446.44	5.95445
2447.84	5.89464
2449.23	6.17842
2450.62	5.79041
2452.01	5.50899
2453.4	5.87969
2454.79	5.31359
2456.18	5.11744
2457.57	4.45001
2458.96	4.13394
2460.35	4.38864
2461.74	3.90759
2463.13	3.61338
2464.52	3.11339
2465.91	3.30799
2467.29	3.27272
2468.68	3.7946
2470.07	3.54465
2471.46	3.69178
2472.85	4.0298
2474.23	2.99717
2475.62	3.4944
2477.01	4.24822
2478.39	4.11883
2479.78	4.43355
2481.16	4.03041
2482.55	3.96348
2483.93	4.51795
2485.32	4.77081
2486.7	4.9324
2488.09	5.5522
2489.47	5.92731
2490.86	6.3472
2492.24	5.71793
2493.62	5.23133
2495.01	5.17124
2496.39	5.22823
2497.77	4.72339
2499.15	3.93227
2500.54	4.18728
2501.92	4.49728
2503.3	3.99041
2504.68	3.34957
2506.06	2.85072
2507.45	2.53351
2508.83	2.47881
2510.21	2.74526
2511.59	2.49478
2512.97	2.47575
2514.35	2.02951
2515.73	1.50682
2517.11	1.67099
2518.48	1.69231
2519.86	1.55781
2521.24	2.06025
2522.62	2.67507
2524	2.03824
2525.38	1.82604
2526.75	2.43258
2528.13	2.77854
2529.51	3.45903
2530.89	2.8224
2532.26	3.06973
2533.64	3.37342
2535.02	3.18098
2536.39	3.28315
2537.77	2.91334
2539.14	3.10559
2540.52	3.54912
2541.89	3.82925
2543.27	4.05507
2544.64	5.11651
2546.01	5.41745
2547.39	5.39426
2548.76	5.32343
2550.14	5.17055
2551.51	5.61757
2552.88	5.98123
2554.25	6.38357
2555.63	7.02354
2557	7.82341
2558.37	8.21561
2559.74	7.7915
2561.11	7.63154
2562.49	7.75269
2563.86	8.08745
2565.23	8.78078
2566.6	8.53403
2567.97	8.56056
2569.34	8.42924
2570.71	7.89305
2572.08	7.66546
2573.45	6.80189
2574.82	7.05063
2576.18	7.11636
2577.55	7.32995
2578.92	6.98889
2580.29	6.23701
2581.66	5.98417
2583.02	5.76297
2584.39	5.64889
2585.76	5.99387
2587.13	5.31385
2588.49	5.55868
2589.86	5.22505
2591.22	4.86923
2592.59	4.26446
2593.96	3.69918
2595.32	3.32391
2596.69	2.58986
2598.05	2.8538
2599.42	2.0254
2600.78	1.81382
2602.14	1.19991
2603.51	1.21566
2604.87	1.56708
2606.23	1.52976
2607.6	1.94472
2608.96	1.89986
2610.32	2.34899
2611.69	1.99319
2613.05	2.24974
2614.41	2.69533
2615.77	2.71953
2617.13	2.41978
2618.49	3.02361
2619.86	3.88799
2621.22	4.93365
2622.58	4.81329
2623.94	5.14736
2625.3	5.57147
2626.66	5.4977
2628.02	5.34061
2629.37	5.76321
2630.73	5.87643
2632.09	6.47646
2633.45	7.20837
2634.81	6.36813
2636.17	5.78966
2637.53	5.42024
2638.88	5.95587
2640.24	5.65398
2641.6	4.85666
2642.96	5.81512
2644.31	5.70472
2645.67	5.21664
2647.02	5.05245
2648.38	4.33738
2649.74	4.71541
2651.09	4.43736
2652.45	4.99418
2653.8	4.68394
2655.16	4.15606
2656.51	4.53276
2657.86	4.39329
2659.22	4.29871
2660.57	4.3122
2661.93	4.56732
2663.28	5.44117
2664.63	5.49764
2665.98	5.80443
2667.34	5.2872
2668.69	5.66637
2670.04	6.22947
2671.39	7.05493
2672.75	7.09332
2674.09	7.1494
2675.45	7.15604
2676.8	7.3974
2678.15	8.14535
2679.5	8.2279
2680.85	8.60198
2682.2	8.55038
2683.55	8.04812
2684.9	8.37468
2686.25	8.71947
2687.6	8.90819
2688.94	8.61994
2690.29	8.1872
2691.64	9.21231
2692.99	9.47492
2694.34	9.37429
2695.68	10.0443
2697.03	10.4874
2698.38	10.353
2699.73	10.9774
2701.07	10.7215
2702.42	9.88684
2703.76	11.1636
2705.11	11.8368
2706.45	12.1243
2707.8	11.8372
2709.15	11.6635
2710.49	11.7733
2711.83	11.4876
2713.18	11.7077
2714.52	11.9058
2715.87	12.0895
2717.21	12.7823
2718.55	12.5909
2719.9	12.7676
2721.24	12.5535
2722.58	12.8279
2723.93	12.6315
2725.27	12.534
2726.61	12.509
2727.95	12.4246
2729.29	12.4575
2730.63	11.7464
2731.98	11.4491
2733.32	10.6882
2734.66	10.4918
2736	10.7317
2737.34	10.6678
2738.68	10.533
2740.02	9.83704
2741.36	9.55371
2742.7	9.21481
2744.03	9.44889
2745.37	9.80275
2746.71	9.11681
2748.05	8.49273
2749.39	8.41003
2750.72	8.5011
2752.06	8.9431
2753.4	8.58905
2754.74	9.16355
2756.07	8.57652
2757.41	9.27158
2758.75	10.137
2760.08	10.1035
2761.42	9.84737
2762.76	10.1929
2764.09	10.1112
2765.42	9.54723
2766.76	10.412
2768.09	10.0384
2769.43	10.0987
2770.76	10.1036
2772.1	9.12299
2773.43	8.78098
2774.76	7.78261
2776.1	6.74474
2777.43	6.58615
2778.76	6.76486
2780.1	7.09692
2781.43	6.85396
2782.76	6.75404
2784.09	6.36332
2785.42	5.76851
2786.75	4.64708
2788.09	4.12821
2789.42	3.03557
2790.75	2.06696
2792.08	1.81297
2793.41	1.86069
2794.74	1.11305
2796.07	1.3266
2797.4	1.34764
2798.73	1.25216
2800.06	0.854374
2801.39	1.06196
2802.71	1.14638
2804.04	1.09226
2805.37	1.19529
2806.7	1.09998
2808.03	0.711123
2809.35	0.831621
2810.68	0.885572
2812.01	0.92253
2813.33	1.15231
2814.66	0.94941
2815.99	1.69322
2817.31	2.1647
2818.64	2.95044
2819.96	3.15986
2821.29	4.37737
2822.61	4.94136
2823.94	6.60703
2825.26	8.19632
2826.59	9.15043
2827.91	10.1948
2829.23	12.0609
2830.56	13.567
2831.88	15.1266
2833.21	16.9874
2834.53	18.0177
2835.85	20.3338
2837.17	22.6915
2838.5	25.4997
2839.82	28.4324
2841.14	30.5849
2842.46	34.0114
2843.78	38.03
2845.1	42.6263
2846.42	47.1703
2847.74	51.5447
2849.06	55.5434
2850.38	59.7027
2851.71	63.895
2853.03	68.2529
2854.34	73.26
2855.66	78.3725
2856.98	82.5592
2858.3	87.3169
2859.62	92.1743
2860.94	96.1713
2862.26	100.708
2863.57	104.924
2864.89	108.724
2866.21	112.272
2867.53	115.413
2868.84	118.683
2870.16	121.362
2871.48	124.285
2872.79	126.791
2874.11	128.674
2875.42	131.087
2876.74	133.158
2878.05	135.695
2879.37	138.045
2880.68	139.521
2882	141.865
2883.31	143.795
2884.63	145.44
2885.94	147.117
2887.26	149.585
2888.57	151.469
2889.88	153.948
2891.19	156.369
2892.51	157.855
2893.82	160.683
2895.13	163.47
2896.44	165.744
2897.76	168.951
2899.07	172.442
2900.38	177.103
2901.69	181.812
2903	187.062
2904.31	192.277
2905.62	197.727
2906.93	203.524
2908.24	210.205
2909.55	216.225
2910.86	222.746
2912.17	228.558
2913.48	235.437
2914.79	240.845
2916.1	246.865
2917.41	252.812
2918.71	257.725
2920.02	261.764
2921.33	266.151
2922.64	268.989
2923.94	272.373
2925.25	274.634
2926.56	276.569
2927.86	278.29
2929.17	279.162
2930.48	279.634
2931.78	279.032
2933.09	278.49
2934.39	277.51
2935.7	276.234
2937	275.11
2938.31	272.733
2939.61	269.328
2940.92	266.043
2942.22	262.519
2943.53	258.207
2944.83	253.724
2946.13	248.88
2947.43	243.952
2948.74	238.675
2950.04	233.529
2951.34	228.842
2952.64	223.808
2953.95	218.457
2955.25	213.078
2956.55	207.735
2957.85	202.757
2959.15	198.324
2960.45	193.348
2961.75	188.994
2963.05	185.16
2964.35	180.915
2965.65	177.396
2966.95	173.085
2968.25	169.199
2969.55	164.678
2970.85	161.252
2972.15	157.151
2973.45	152.641
2974.75	148.362
2976.05	144.42
2977.34	140.591
2978.64	136.701
2979.94	130.922
2981.24	125.842
2982.53	120.813
2983.83	114.974
2985.13	109.822
2986.42	105.065
2987.72	99.0676
2989.01	94.0565
2990.31	88.8979
2991.61	84.1488
2992.9	79.2626
2994.19	74.3129
2995.49	70.1643
2996.78	65.5126
2998.08	61.3999
2999.37	57.3069
3000.67	53.7494
3001.96	49.5244
3003.25	44.5689
3004.55	40.1316
3005.84	36.5571
3007.13	33.1368
3008.42	29.7888
3009.72	27.0667
3011.01	24.4389
3012.3	21.7089
3013.59	19.804
3014.88	18.5455
3016.17	16.4831
3017.46	15.1802
3018.76	13.9658
3020.05	13.2722
3021.34	12.7732
3022.63	12.3323
3023.92	12.1763
3025.21	12.2134
3026.49	11.9315
3027.78	11.9401
3029.07	11.7253
3030.36	11.8984
3031.65	11.8163
3032.94	11.7514
3034.23	12.4481
3035.51	12.9652
3036.8	13.5008
3038.09	14.0798
3039.38	15.1858
3040.66	15.4004
3041.95	16.5454
3043.23	16.6545
3044.52	17.0799
3045.81	17.8726
3047.09	18.3426
3048.38	19.0972
3049.66	19.6092
3050.95	19.5698
3052.23	19.9172
3053.52	20.1678
3054.8	20.1601
3056.09	20.0765
3057.37	20.0367
3058.65	19.7459
3059.94	19.5938
3061.22	18.839
3062.5	18.1395
3063.79	17.6885
3065.07	17.2418
3066.35	15.8052
3067.63	14.8924
3068.92	14.4267
3070.2	13.4937
3071.48	12.8224
3072.76	11.6394
3074.04	11.1698
3075.32	9.92226
3076.6	8.93596
3077.88	8.15564
3079.16	7.39454
3080.44	6.02621
3081.72	5.58145
3083	4.60606
3084.28	3.74014
3085.56	2.92038
3086.84	2.21757
3088.12	1.72907
3089.4	0.655672
3090.67	0.125539
3091.95	-0.478631
3093.23	-1.26974
3094.51	-1.59168
3095.78	-1.72456
3097.06	-1.75191
3098.34	-0.947104
3099.61	-0.761143
3100.89	-0.110386
3102.17	-0.343606
3103.44	0.172379
3104.72	-0.344977
3105.99	0.477775
3107.27	0.456139
3108.54	1.26539
3109.82	1.71751
3111.09	1.93429
3112.37	2.23998
3113.64	2.26395
3114.92	2.73836
3116.19	3.37054
3117.46	3.49703
3118.74	4.07276
3120.01	4.48194
3121.28	5.23309
3122.55	5.92534
3123.83	6.61835
3125.1	7.37643
3126.37	8.48213
3127.64	9.59619
3128.91	10.4917
3130.19	10.8609
3131.46	12.0284
3132.73	12.781
3134	13.71
3135.27	15.2139
3136.54	16.1651
3137.81	17.8662
3139.08	18.7992
3140.35	20.6164
3141.62	22.1027
3142.89	23.6081
3144.16	25.1551
3145.42	26.6844
3146.69	28.1993
3147.96	30.0357
3149.23	32.2512
