#Acq. time (s)=	45
#Accumulations=	2
#Range (cm-¹)=	200...3150
#Windows=	2
#Auto scanning=	Off
#Autofocus=	Off
#Macrospot=	Off
#AutoExposure=	Off
#Spike filter=	Multiple accum.
#Delay time (s)=	0
#Binning=	1
#Readout mode=	Signal
#DeNoise=	Off
#ICS correction=	On
#Dark correction=	Off
#Inst. Process=	Off
#Detector Gain=	Best Dynamic Range
#Detector ADC=	20 kHz       
#Detector temperature (°C)=	-69.85
#Instrument=	LabRAM HR Evol
#Detector=	Synapse
#Objective=	x100
#Grating=	600 gr/mm
#ND Filter=	100%
#Laser (nm)=	532 
#Hole=	100.021
#Range=	Auto
#Laser Pol.=	No
#Raman. Pol.=	No
#Laser Pol. (°)=	-0.0007625
#Raman Pol. (°)=	89.9995
#Collection=	Microscope
#StageXY=	Marzhauser
#StageZ=	Marzhauser
#X (µm)=	-5141.6
#Y (µm)=	1503.1
#Z (µm)=	63.2
#Full time(mm:ss)=	3:18
#Project=	
#Sample=	
#Site=	
#Title=	Thy_50_12_28_2x_45s_532 nm_x100_100%_600 gr_mm
#Remark=	
#Date=	07.07.2022 11:18
#Acquired=	07.07.2022 11:18:00
#Base:Fit=	10.08.2022 10:04:29
#Base:Sub=	10.08.2022 10:04:45
#Filter:Polynom=	16.08.2022 10:20:25
#AxisType[0]=Intens
#AxisUnit[0]=Cnt
#AxisType[1]=Spectr
#AxisUnit[1]=1/cm
200.43	17.9676
202.246	20.2051
204.061	22.7003
205.875	23.3493
207.688	23.7243
209.501	23.1099
211.316	22.0901
213.129	20.9703
214.941	19.8758
216.753	18.362
218.566	17.1591
220.377	17.5654
222.188	15.8133
223.999	15.3027
225.809	15.2064
227.618	14.959
229.43	13.8593
231.239	13.0716
233.047	11.1457
234.855	11.1089
236.663	10.5855
238.471	11.148
240.278	10.9066
242.087	11.3777
243.894	11.1604
245.7	11.3158
247.506	10.8624
249.311	10.3432
251.116	8.53903
252.921	8.55775
254.725	7.63389
256.529	6.97361
258.333	5.91622
260.136	5.95361
261.939	5.52089
263.744	6.85971
265.546	7.33087
267.348	8.42957
269.15	8.21223
270.951	8.06304
272.752	9.94523
274.552	10.7821
276.353	11.0319
278.152	11.3598
279.952	11.9224
281.751	11.6233
283.55	11.9225
285.348	13.2936
287.146	12.8294
288.942	12.7673
290.739	12.9738
292.536	12.3875
294.333	10.9811
296.129	11.2144
297.925	11.1017
299.721	11.483
301.516	11.5592
303.311	12.1109
305.106	11.8458
306.9	12.3101
308.694	12.3232
310.486	12.2627
312.279	11.5728
314.072	12.1337
315.864	11.4118
317.656	9.49923
319.448	9.18333
321.24	9.33467
323.029	8.82816
324.819	10.0633
326.61	9.98121
328.4	10.4582
330.19	10.1669
331.977	10.6899
333.766	10.1635
335.555	10.1946
337.343	9.15235
339.131	8.2673
340.917	7.02564
342.704	7.76276
344.491	7.46055
346.277	7.95979
348.062	8.06871
349.848	8.17698
351.633	8.69407
353.416	9.14907
355.201	8.92558
356.986	8.36563
358.77	8.09209
360.552	8.61621
362.335	8.60744
364.118	8.53084
365.899	7.39592
367.682	7.60635
369.464	7.21956
371.243	7.271
373.025	7.00725
374.806	6.51725
376.585	5.95877
378.365	5.9849
380.143	5.87233
381.923	3.89564
383.702	3.60122
385.479	4.30638
387.258	4.25217
389.034	3.90711
390.812	3.92347
392.59	3.68251
394.365	2.06104
396.142	2.68668
397.916	1.67925
399.693	1.67686
401.467	1.78478
403.242	1.04114
405.015	0.383446
406.79	0.00537904
408.565	1.39306
410.337	1.00651
412.111	1.16438
413.882	2.17443
415.656	3.00179
417.426	4.05023
419.197	4.86287
420.969	5.09579
422.739	4.73099
424.51	5.12076
426.279	4.72732
428.05	5.94717
429.819	6.72961
431.589	6.29681
433.356	6.71411
435.124	6.23712
436.893	5.88987
438.66	6.1707
440.428	6.76847
442.194	5.95108
443.96	6.10224
445.727	5.65492
447.492	6.20086
449.259	6.3331
451.023	6.1688
452.787	6.50833
454.553	6.56722
456.316	7.38068
458.079	7.62171
459.844	8.0269
461.606	7.52801
463.368	7.52429
465.132	8.08611
466.893	9.13445
468.654	10.128
470.415	10.7548
472.177	12.503
473.937	13.468
475.696	14.7915
477.456	15.3712
479.217	15.5222
480.975	16.6234
482.733	17.2377
484.491	19.1145
486.251	18.6468
488.008	19.4212
489.765	20.1146
491.522	20.6841
493.278	21.7534
495.036	23.0466
496.791	24.463
498.546	25.1384
500.301	25.8563
502.056	26.7623
503.81	28.0574
505.566	27.7672
507.319	28.0493
509.073	27.6089
510.825	27.7073
512.578	28.0336
514.33	28.202
516.082	28.4208
517.833	28.4246
519.587	27.9031
521.337	29.3083
523.088	29.1049
524.838	28.5689
526.588	28.4731
528.337	28.2312
530.087	26.8097
531.835	26.5599
533.584	26.6715
535.332	25.3324
537.08	24.115
538.827	23.3221
540.574	23.2714
542.321	22.9812
544.068	22.4643
545.814	21.1152
547.56	20.6342
549.305	20.8781
551.05	20.9946
552.795	20.7606
554.54	20.1171
556.284	19.5888
558.027	19.6327
559.771	18.5183
561.514	18.2634
563.257	17.3137
564.999	15.3752
566.742	14.1134
568.481	13.2245
570.223	11.6973
571.964	10.8705
573.705	10.5772
575.445	10.7373
577.185	10.4077
578.925	10.0727
580.665	10.1714
582.402	9.92453
584.141	8.35865
585.879	8.08303
587.617	7.22681
589.355	7.2819
591.092	6.55424
592.828	6.20118
594.564	6.15065
596.301	6.16339
598.037	7.16153
599.773	7.76637
601.506	8.13756
603.242	8.09117
604.976	8.67552
606.711	8.74732
608.443	9.09294
610.177	7.76789
611.91	7.35613
613.644	7.48658
615.374	7.2187
617.107	7.51825
618.839	8.5966
620.569	8.77946
622.3	8.63654
624.032	9.15978
625.761	9.87814
627.491	10.613
629.221	11.466
630.949	12.2684
632.679	12.3042
634.408	12.638
636.135	12.9316
637.863	13.526
639.592	14.2725
641.318	14.6169
643.045	15.5641
644.77	15.8275
646.497	15.5239
648.224	16.8791
649.948	17.1456
651.674	17.6711
653.398	18.8958
655.123	19.9046
656.846	20.9369
658.57	22.9542
660.293	23.4639
662.017	23.2835
663.738	23.2583
665.462	23.2768
667.185	24.4072
668.905	24.6906
670.628	24.6323
672.348	26.6304
674.067	27.3451
675.789	28.6347
677.508	30.3042
679.228	31.5782
680.947	32.9389
682.667	35.2315
684.385	36.0032
686.104	36.5759
687.821	37.3053
689.538	38.0976
691.256	39.4959
692.972	39.409
694.69	39.8922
696.406	40.4393
698.121	41.7
699.837	41.9108
701.552	42.9271
703.268	44.1447
704.982	44.2143
706.695	44.9145
708.41	44.9648
710.123	45.1153
711.836	46.4866
713.55	46.6119
715.262	47.0988
716.973	46.6139
718.685	46.5583
720.398	47.6856
722.108	49.2837
723.818	50.6619
725.53	51.2771
727.24	50.9097
728.949	51.2102
730.658	51.3726
732.369	52.3407
734.077	52.699
735.785	52.7965
737.493	52.1117
739.2	51.4855
740.909	51.139
742.616	51.7914
744.322	52.6905
746.028	52.2853
747.734	53.2346
749.441	53.8061
751.146	55.9995
752.851	58.2692
754.555	59.6041
756.26	60.913
757.963	63.2804
759.667	64.4896
761.372	65.4251
763.075	67.0071
764.777	68.0698
766.479	69.8521
768.181	70.9404
769.883	70.909
771.584	71.3492
773.285	71.8095
774.986	72.3456
776.686	73.2519
778.386	72.9779
780.085	75.3658
781.785	75.8194
783.484	76.9376
785.182	77.5607
786.881	78.9099
788.579	79.9897
790.276	81.1394
791.974	81.8483
793.671	82.0267
795.367	82.5174
797.064	83.3616
798.76	83.5194
800.456	83.9013
802.151	84.5592
803.846	85.0832
805.541	85.0616
807.236	84.7948
808.93	83.9628
810.624	83.176
812.317	81.5471
814.01	81.3732
815.703	80.8555
817.394	80.9835
819.086	81.0464
820.778	80.25
822.47	79.4421
824.161	79.4175
825.852	79.9447
827.543	80.1563
829.231	79.1034
830.921	77.971
832.611	78.4058
834.3	78.0771
835.989	77.6953
837.676	76.9716
839.364	75.8632
841.053	74.3488
842.74	73.6895
844.426	72.1411
846.113	70.7226
847.8	68.9091
849.486	67.1869
851.171	65.8492
852.857	64.3333
854.542	62.2562
856.227	61.2334
857.911	61.043
859.595	60.7329
861.279	59.6243
862.961	59.6206
864.645	60.5455
866.329	59.9484
868.01	59.5404
869.692	58.1724
871.375	58.0476
873.055	57.4358
874.737	56.3713
876.418	55.1194
878.097	53.8186
879.778	53.4549
881.457	53.1768
883.137	52.9457
884.817	51.5672
886.495	50.8891
888.174	49.4911
889.851	48.9767
891.53	48.6286
893.206	48.0171
894.884	47.1141
896.562	46.2359
898.237	47.1442
899.914	47.7764
901.589	47.938
903.265	47.4316
904.94	45.4283
906.615	45.5803
908.289	45.6726
909.964	45.7724
911.637	45.4694
913.31	44.8922
914.984	44.628
916.656	43.8921
918.33	43.6454
920.001	42.6182
921.674	43.1408
923.345	41.9624
925.015	41.2884
926.687	41.2904
928.357	41.4785
930.028	40.4865
931.698	39.4333
933.366	39.3686
935.037	39.3892
936.705	39.2858
938.373	39.5198
940.043	39.8879
941.71	39.3726
943.379	38.3283
945.046	37.5429
946.712	37.3971
948.378	37.232
950.046	36.7655
951.711	37.3171
953.376	36.9363
955.043	37.2622
956.708	36.6049
958.372	36.2689
960.036	34.8924
961.701	34.5072
963.364	35.1257
965.027	34.492
966.69	34.7136
968.354	34.058
970.016	33.9175
971.678	33.5493
973.339	33.2229
975	33.748
976.661	34.0945
978.324	32.9626
979.984	34.1427
981.644	34.8859
983.303	35.1764
984.962	34.5123
986.621	34.4377
988.282	34.8243
989.94	36.1802
991.598	36.8106
993.256	37.1349
994.913	36.9548
996.57	36.8825
998.227	37.0174
999.884	37.9923
1001.54	39.2688
1003.2	38.2451
1004.85	37.9137
1006.51	37.5692
1008.16	38.2631
1009.82	38.207
1011.47	37.7251
1013.12	37.3885
1014.78	37.3687
1016.43	37.5275
1018.08	37.6143
1019.74	36.7692
1021.39	36.7381
1023.04	36.4233
1024.69	35.0546
1026.34	34.7804
1028	35.1003
1029.65	35.1551
1031.3	35.8399
1032.95	36.3994
1034.6	36.0299
1036.25	34.6907
1037.9	34.4192
1039.55	33.9133
1041.19	33.67
1042.84	32.6836
1044.49	33.4853
1046.14	32.9039
1047.79	33.2348
1049.43	33.4713
1051.08	32.9303
1052.73	31.6869
1054.37	30.9643
1056.02	31.099
1057.66	31.2716
1059.31	29.7681
1060.95	29.5471
1062.6	31.5433
1064.24	30.7238
1065.88	31.0778
1067.53	29.9369
1069.17	29.9796
1070.81	30.0249
1072.46	30.0077
1074.1	29.8596
1075.74	29.5743
1077.38	28.734
1079.02	28.1528
1080.66	27.3452
1082.3	26.1405
1083.94	25.2088
1085.58	23.6867
1087.22	23.244
1088.86	23.386
1090.5	23.1225
1092.14	22.4776
1093.78	22.931
1095.42	23.0673
1097.05	22.1083
1098.69	21.3662
1100.33	20.5175
1101.97	19.8858
1103.6	20.5277
1105.24	19.5772
1106.87	17.8503
1108.51	17.6807
1110.15	17.8644
1111.78	17.7064
1113.41	17.4957
1115.05	17.673
1116.68	17.3041
1118.31	16.7869
1119.95	15.8535
1121.58	15.4733
1123.21	14.4235
1124.85	14.0896
1126.48	13.9685
1128.11	13.124
1129.74	12.9492
1131.37	11.9414
1133	11.0878
1134.63	11.7864
1136.26	11.6833
1137.89	11.6112
1139.52	11.0776
1141.15	10.8915
1142.78	11.5009
1144.41	10.9704
1146.04	8.97353
1147.66	9.11875
1149.29	9.17251
1150.92	9.16622
1152.55	8.08719
1154.17	7.55748
1155.8	6.79261
1157.43	5.5816
1159.05	5.16894
1160.68	4.63846
1162.3	3.89556
1163.93	3.48256
1165.55	3.5487
1167.17	2.52405
1168.8	2.49976
1170.42	2.8592
1172.05	3.49361
1173.67	3.0684
1175.29	3.93
1176.91	3.56259
1178.54	4.39905
1180.16	3.72109
1181.78	3.40054
1183.4	3.42194
1185.02	3.3392
1186.64	3.15268
1188.26	2.53627
1189.88	2.49381
1191.5	3.49649
1193.12	3.09143
1194.74	3.39528
1196.36	3.60553
1197.97	3.89608
1199.59	3.69816
1201.21	3.96214
1202.83	4.59698
1204.44	5.45835
1206.06	6.73422
1207.68	7.99581
1209.29	9.29964
1210.91	10.8909
1212.52	12.1203
1214.14	14.3149
1215.75	15.9116
1217.37	15.5667
1218.98	16.6367
1220.6	18.3952
1222.21	20.4
1223.82	22.1288
1225.44	24.0205
1227.05	26.6325
1228.66	28.7438
1230.27	30.4735
1231.88	31.8013
1233.49	33.8059
1235.1	35.4182
1236.72	37.7877
1238.33	39.567
1239.94	41.5818
1241.55	43.036
1243.16	44.964
1244.76	46.3282
1246.37	47.8893
1247.98	49.4426
1249.59	51.1458
1251.2	53.0441
1252.8	53.9324
1254.41	55.2362
1256.02	57.4851
1257.63	57.9837
1259.23	58.8956
1260.84	59.0346
1262.44	59.7984
1264.05	61.6882
1265.66	63.164
1267.26	64.5349
1268.87	66.0045
1270.47	68.0105
1272.07	69.6412
1273.68	70.7199
1275.28	72.5445
1276.88	74.0023
1278.48	75.3112
1280.09	75.9201
1281.69	76.9706
1283.29	77.5552
1284.89	78.7531
1286.49	79.8149
1288.09	80.6368
1289.69	80.0325
1291.3	80.1672
1292.9	79.7325
1294.49	80.6871
1296.09	80.2303
1297.69	80.4243
1299.29	80.8484
1300.89	81.0397
1302.49	81.4006
1304.09	81.7836
1305.68	82.3446
1307.28	82.2916
1308.88	82.329
1310.47	82.6354
1312.07	82.6408
1313.66	81.6241
1315.26	80.4655
1316.86	79.9536
1318.45	77.9646
1320.05	76.7521
1321.64	75.4986
1323.23	74.7164
1324.83	73.2666
1326.42	72.1983
1328.01	70.9556
1329.61	70.1756
1331.2	68.908
1332.79	67.4137
1334.38	67.352
1335.98	66.5954
1337.57	65.5713
1339.16	65.5942
1340.75	65.8608
1342.34	64.7379
1343.93	64.8984
1345.52	64.3419
1347.11	64.283
1348.7	63.8541
1350.29	63.3952
1351.87	62.9983
1353.46	63.3325
1355.05	63.2491
1356.64	62.3831
1358.23	60.6834
1359.81	59.2207
1361.4	58.8626
1362.99	57.5524
1364.57	56.9999
1366.16	56.1747
1367.74	54.8181
1369.33	53.5948
1370.91	52.9032
1372.5	52.1348
1374.08	51.633
1375.67	50.2818
1377.25	49.4867
1378.83	49.182
1380.42	48.3479
1382	48.6108
1383.58	48.1812
1385.16	47.2325
1386.75	47.0406
1388.33	46.2141
1389.91	44.4556
1391.49	43.1183
1393.07	41.7567
1394.65	40.5861
1396.23	39.4872
1397.81	38.5977
1399.39	38.8291
1400.97	38.3239
1402.55	38.2445
1404.13	38.15
1405.7	37.8563
1407.28	37.3781
1408.86	37.7178
1410.44	37.595
1412.01	37.8037
1413.59	38.6893
1415.17	39.3875
1416.74	40.7886
1418.32	42.6332
1419.89	43.7158
1421.47	45.4768
1423.05	48.4781
1424.62	51.2335
1426.19	53.6182
1427.77	55.4983
1429.34	58.6006
1430.92	61.1858
1432.49	63.4895
1434.06	66.4718
1435.63	67.539
1437.2	70.1328
1438.78	71.9433
1440.35	74.459
1441.92	75.4416
1443.49	76.8304
1445.06	78.34
1446.63	79.0047
1448.2	79.8009
1449.77	80.4306
1451.34	81.7768
1452.91	82.0814
1454.48	81.836
1456.05	81.3773
1457.62	81.4939
1459.18	80.2587
1460.75	79.2658
1462.32	77.3617
1463.89	75.1889
1465.45	73.0791
1467.02	70.0282
1468.59	67.0247
1470.15	64.1748
1471.72	61.2349
1473.28	58.68
1474.85	56.6404
1476.41	54.0498
1477.98	50.8037
1479.54	47.8721
1481.11	44.7703
1482.67	41.8738
1484.23	38.6457
1485.8	36.1492
1487.36	33.6973
1488.92	30.5506
1490.48	27.8883
1492.05	26.2603
1493.61	24.895
1495.17	24.0631
1496.73	22.627
1498.29	22.4637
1499.85	22.2674
1501.41	21.6999
1502.97	20.6094
1504.53	20.4491
1506.09	20.4454
1507.65	20.7053
1509.2	21.027
1510.76	21.4843
1512.32	22.7316
1513.88	23.1404
1515.44	23.5207
1516.99	23.3878
1518.55	24.5562
1520.1	24.6874
1521.66	26.0968
1523.22	27.4006
1524.77	28.4787
1526.33	29.3411
1527.88	31.0089
1529.44	32.2017
1530.99	32.9453
1532.55	33.5018
1534.1	35.127
1535.65	36.9578
1537.21	37.8736
1538.76	39.1525
1540.31	40.6165
1541.86	41.8268
1543.42	44.2179
1544.97	46.1264
1546.52	47.7846
1548.07	50.2955
1549.62	52.4172
1551.17	54.2598
1552.72	55.5002
1554.27	56.7364
1555.82	58.6361
1557.37	60.7142
1558.92	62.0415
1560.47	63.9332
1562.02	65.7625
1563.57	67.9933
1565.11	69.2335
1566.66	71.1481
1568.21	73.586
1569.75	76.1333
1571.3	78.3299
1572.85	80.221
1574.39	81.6145
1575.94	83.7507
1577.49	83.9699
1579.03	84.9667
1580.58	86.2919
1582.12	87.8575
1583.67	88.3402
1585.21	88.8712
1586.75	90.2919
1588.3	91.3931
1589.84	91.8209
1591.38	90.8834
1592.93	89.9333
1594.47	90.026
1596.01	90.0631
1597.55	88.5877
1599.09	89.1428
1600.63	88.5336
1602.18	87.9443
1603.72	87.3279
1605.26	86.9301
1606.8	85.6402
1608.34	84.9197
1609.87	83.8668
1611.41	83.1882
1612.95	83.0326
1614.49	82.8624
1616.03	82.5462
1617.57	82.562
1619.11	81.7623
1620.64	82.5141
1622.18	82.5426
1623.72	82.7563
1625.25	83.0945
1626.79	83.3393
1628.32	83.7736
1629.86	85.9167
1631.4	88.1777
1632.93	89.5043
1634.47	91.1592
1636	92.5531
1637.53	94.4361
1639.07	95.9802
1640.6	98.5643
1642.14	99.5388
1643.67	100.601
1645.2	101.893
1646.73	103.169
1648.27	102.843
1649.8	103.56
1651.33	104.048
1652.86	104.171
1654.39	104.607
1655.92	105.271
1657.45	106.119
1658.98	105.376
1660.51	105.613
1662.04	104.945
1663.57	104.182
1665.1	102.172
1666.63	100.633
1668.16	98.7514
1669.69	97.169
1671.21	95.1422
1672.74	92.1913
1674.27	89.1081
1675.79	86.9814
1677.32	83.4306
1678.85	80.1035
1680.37	76.0747
1681.9	72.1518
1683.42	68.452
1684.95	65.095
1686.47	62.2399
1688	59.1431
1689.52	57.2158
1691.05	53.582
1692.57	50.4249
1694.1	47.7766
1695.62	44.7626
1697.14	41.9434
1698.66	39.8586
1700.19	37.6864
1701.71	35.6187
1703.23	33.6804
1704.75	32.363
1706.27	31.3212
1707.79	29.2259
1709.32	26.9708
1710.83	26.0016
1712.35	24.5084
1713.88	23.5126
1715.39	22.783
1716.91	22.565
1718.43	20.5246
1719.95	19.5217
1721.47	19.0233
1722.99	18.1247
1724.5	17.1194
1726.02	17.4987
1727.54	16.5618
1729.06	15.9695
1730.57	15.7785
1732.09	15.382
1733.61	14.5677
1735.12	14.1025
1736.64	14.4182
1738.15	13.5756
1739.67	13.1757
1741.18	12.6104
1742.7	12.9721
1744.21	12.3247
1745.72	12.0511
1747.24	11.6065
1748.75	10.8944
1750.26	11.059
1751.78	10.7506
1753.29	10.1079
1754.8	9.752
1756.31	8.81428
1757.82	8.97943
1759.34	8.83588
1760.85	9.29696
1762.36	9.55542
1763.87	9.06652
1765.38	9.33305
1766.89	8.16702
1768.4	8.74527
1769.91	8.28388
1771.41	7.5409
1772.92	7.35618
1774.43	7.97398
1775.94	7.54201
1777.45	6.8015
1778.96	6.27922
1780.46	6.199
1781.97	5.86526
1783.48	5.39929
1784.98	5.24648
1786.49	5.54404
1788	5.02906
1789.5	4.85936
1791.01	4.97978
1792.51	4.54847
1794.01	4.10105
1795.52	3.71691
1797.02	3.7693
1798.53	3.45626
1800.03	3.32575
1801.54	3.19337
1803.04	2.80726
1804.54	3.25076
1806.04	3.07912
1807.54	3.20195
1809.05	3.45407
1810.55	4.59502
1812.05	4.63617
1813.55	4.27547
1815.05	4.33269
1816.55	4.37311
1818.05	4.73854
1819.55	4.90053
1821.05	5.15519
1822.55	5.0501
1824.05	5.05743
1825.55	5.45797
1827.05	5.52808
1828.55	5.43489
1830.04	5.85102
1831.54	5.65442
1833.04	5.90369
1834.54	6.23603
1836.03	6.29232
1837.53	6.14589
1839.03	6.15173
1840.52	6.37112
1842.02	6.24083
1843.51	6.35233
1845.01	5.41934
1846.5	5.30739
1848	4.81943
1849.49	4.3897
1850.99	4.00319
1852.48	3.59687
1853.97	3.31059
1855.47	3.13763
1856.96	3.04834
1858.45	2.87222
1859.94	2.85785
1861.44	2.54489
1862.93	2.22128
1864.42	2.86042
1865.91	2.12709
1867.4	2.0255
1868.89	1.20452
1870.38	1.39057
1871.87	1.26667
1873.36	1.36936
1874.85	1.60212
1876.34	1.63377
1877.83	1.09291
1879.32	1.18952
1880.81	0.614164
1882.3	1.09262
1882.56	1.52105
1884.06	1.44546
1885.55	1.97394
1887.04	2.1681
1888.54	2.66693
1890.03	2.68756
1891.52	2.82806
1893.02	3.15139
1894.51	2.90122
1896	2.76869
1897.49	3.19715
1898.99	3.70138
1900.48	3.69996
1901.97	4.28575
1903.46	4.8012
1904.95	4.88418
1906.44	5.20376
1907.93	6.0829
1909.42	6.50283
1910.91	7.18778
1912.4	7.37304
1913.89	7.15564
1915.38	6.60247
1916.86	6.16644
1918.35	5.77788
1919.84	5.99943
1921.33	6.06999
1922.82	6.36911
1924.3	6.18126
1925.79	6.2142
1927.28	6.09755
1928.76	6.09756
1930.25	5.97893
1931.74	5.21812
1933.22	4.70613
1934.71	4.6501
1936.19	4.08861
1937.67	3.59664
1939.16	2.44347
1940.64	2.76168
1942.13	2.95498
1943.61	3.46247
1945.09	2.21176
1946.58	2.21121
1948.06	2.05328
1949.54	1.52915
1951.03	1.48857
1952.51	1.96124
1953.99	2.18887
1955.47	2.64104
1956.95	2.57939
1958.43	2.69242
1959.91	2.89357
1961.39	2.34997
1962.87	2.07438
1964.35	2.00488
1965.83	1.50737
1967.31	1.46653
1968.79	1.25231
1970.27	2.4215
1971.75	2.20266
1973.22	2.86218
1974.7	2.9939
1976.18	3.2516
1977.66	3.39245
1979.13	4.2129
1980.61	5.38601
1982.09	5.89994
1983.56	5.77977
1985.04	5.28087
1986.52	5.34911
1987.99	5.40789
1989.47	5.93802
1990.94	6.07773
1992.41	6.39342
1993.89	7.07113
1995.36	6.52912
1996.84	6.63243
1998.31	6.3387
1999.78	6.41173
2001.26	6.47493
2002.73	6.83623
2004.2	6.58221
2005.67	6.88772
2007.15	7.23073
2008.62	7.1772
2010.09	6.74356
2011.56	6.71103
2013.03	6.67354
2014.5	6.75207
2015.97	7.20569
2017.44	6.50649
2018.91	6.13763
2020.38	6.79023
2021.85	6.42736
2023.32	6.43814
2024.79	6.95365
2026.25	6.78909
2027.72	6.96538
2029.19	7.43577
2030.66	7.22213
2032.13	7.86628
2033.59	8.11801
2035.06	7.97854
2036.53	7.71818
2037.99	8.11604
2039.46	7.94185
2040.92	8.70153
2042.39	9.24384
2043.85	9.93749
2045.32	10.2126
2046.78	11.2663
2048.25	11.732
2049.71	12.4322
2051.18	13.5057
2052.64	14.3061
2054.1	14.2634
2055.56	13.5241
2057.03	13.5641
2058.49	13.7347
2059.95	15.0882
2061.42	15.4181
2062.88	16.2363
2064.34	16.7859
2065.8	17.8308
2067.26	18.8044
2068.72	19.2801
2070.18	20.7192
2071.64	21.5083
2073.1	22.6354
2074.56	23.7631
2076.02	24.9552
2077.48	25.814
2078.94	26.5219
2080.39	27.1113
2081.85	27.6762
2083.31	28.1488
2084.77	28.8195
2086.22	30.1309
2087.68	31.3406
2089.14	32.4291
2090.6	33.0243
2092.05	34.21
2093.51	35.459
2094.96	36.5433
2096.42	38.3727
2097.87	39.7532
2099.33	40.6624
2100.78	42.2636
2102.24	43.7468
2103.69	44.7453
2105.15	46.6921
2106.6	48.5172
2108.05	49.536
2109.51	51.0735
2110.96	53.3228
2112.41	54.5935
2113.86	56.8113
2115.32	58.8578
2116.77	60.9552
2118.22	62.9453
2119.67	64.1451
2121.12	66.703
2122.57	69.2672
2124.02	71.8941
2125.47	75.5524
2126.92	78.3896
2128.37	81.046
2129.82	84.4031
2131.27	87.5528
2132.72	91.2394
2134.17	94.4626
2135.62	97.5194
2137.06	100.62
2138.51	103.492
2139.96	106.466
2141.41	108.617
2142.85	111.613
2144.3	113.824
2145.75	116.123
2147.19	118.555
2148.64	120.601
2150.09	122.778
2151.53	124.409
2152.97	126.083
2154.42	127.01
2155.86	129.207
2157.31	130.673
2158.75	131.976
2160.2	133.053
2161.64	134.161
2163.08	134.191
2164.53	134.497
2165.97	135.125
2167.41	135.351
2168.86	135.169
2170.3	133.987
2171.74	133.353
2173.18	132.152
2174.62	131.9
2176.06	131.31
2177.5	130.825
2178.94	129.844
2180.38	127.903
2181.82	126.563
2183.26	125.392
2184.7	123.034
2186.14	122.04
2187.58	120.692
2189.02	119.007
2190.46	117.271
2191.89	115.84
2193.33	114.332
2194.77	112.571
2196.21	110.947
2197.64	109.842
2199.08	107.564
2200.52	104.737
2201.95	102.976
2203.39	100.952
2204.83	98.9015
2206.26	97.1687
2207.7	94.5846
2209.13	92.3112
2210.57	89.7889
2212	87.3023
2213.43	84.609
2214.87	83.1177
2216.3	80.8948
2217.73	78.9138
2219.17	76.9973
2220.6	75.7735
2222.03	73.3159
2223.47	70.8255
2224.9	68.4816
2226.33	66.5486
2227.76	65.0901
2229.19	62.2418
2230.62	60.3462
2232.05	59.0789
2233.49	56.3122
2234.91	54.2507
2236.34	52.4564
2237.77	50.5794
2239.2	48.4018
2240.63	46.1528
2242.06	44.6947
2243.49	43.9494
2244.92	42.9966
2246.35	42.0518
2247.78	40.901
2249.2	39.3597
2250.63	38.1875
2252.06	37.7121
2253.48	36.5235
2254.91	35.1841
2256.34	33.7895
2257.76	33.08
2259.19	32.1816
2260.61	31.5151
2262.04	30.472
2263.46	29.6459
2264.89	28.534
2266.31	28.3221
2267.74	27.9626
2269.16	27.0439
2270.59	25.9838
2272.01	24.4292
2273.43	24.2934
2274.85	23.3958
2276.28	22.5788
2277.7	21.7903
2279.12	20.4556
2280.54	20.0369
2281.97	19.1729
2283.39	18.4123
2284.81	18.5376
2286.23	17.6183
2287.65	16.4105
2289.07	15.5504
2290.49	15.2647
2291.91	13.7537
2293.33	12.1044
2294.75	12.3582
2296.17	12.1882
2297.59	12.4142
2299.01	12.1622
2300.42	11.5101
2301.84	11.3317
2303.26	10.9231
2304.68	10.0447
2306.1	10.5282
2307.51	9.90728
2308.93	9.98828
2310.35	10.2858
2311.76	10.4868
2313.18	10.6178
2314.59	10.0939
2316.01	10.229
2317.43	9.84128
2318.84	10.0047
2320.26	9.57833
2321.67	9.8765
2323.08	9.73628
2324.5	8.63358
2325.91	8.50429
2327.33	8.32066
2328.74	8.28787
2330.15	8.2598
2331.56	7.98909
2332.98	8.24378
2334.39	7.69401
2335.8	6.55731
2337.21	5.84622
2338.62	5.28005
2340.04	4.66449
2341.45	4.03341
2342.86	3.59223
2344.27	3.38223
2345.68	2.82362
2347.09	2.2562
2348.5	1.66341
2349.91	1.40694
2351.31	0.926443
2352.72	-0.244633
2354.13	-0.213577
2355.54	-0.913909
2356.95	-2.27742
2358.36	-1.55188
2359.76	-1.661
2361.17	-1.19919
2362.58	-1.08828
2363.98	-0.290034
2365.39	0.0583695
2366.8	0.315753
2368.21	0.220381
2369.61	-0.529193
2371.02	-0.898878
2372.42	-0.952133
2373.83	-1.41547
2375.23	-0.86323
2376.64	-0.485129
2378.04	-0.466295
2379.44	-0.151136
2380.85	0.256419
2382.25	0.344323
2383.66	0.31631
2385.06	0.661528
2386.46	0.93661
2387.86	1.22737
2389.26	1.08954
2390.67	1.20047
2392.07	1.78592
2393.47	2.53909
2394.87	2.9775
2396.27	3.57451
2397.67	3.68165
2399.07	4.23181
2400.47	4.71387
2401.87	5.22977
2403.27	5.27395
2404.67	4.22853
2406.07	4.65193
2407.47	5.44719
2408.87	6.00487
2410.27	5.69526
2411.67	5.7457
2413.07	5.85753
2414.46	5.58268
2415.86	5.22947
2417.26	4.6471
2418.66	4.5796
2420.05	4.60135
2421.45	4.49115
2422.84	4.20948
2424.24	4.43552
2425.64	4.47897
2427.03	5.23154
2428.43	6.00673
2429.82	5.85245
2431.22	6.44117
2432.61	6.47508
2434.01	6.30345
2435.4	6.34128
2436.79	6.26816
2438.19	5.74485
2439.58	5.43311
2440.97	6.00571
2442.37	5.68804
2443.76	6.27264
2445.15	7.03492
2446.54	6.60645
2447.93	6.64206
2449.33	6.30847
2450.72	6.44538
2452.11	6.53711
2453.5	6.93746
2454.89	6.41692
2456.28	5.98122
2457.67	5.97017
2459.06	6.05296
2460.45	5.89648
2461.84	6.11553
2463.23	5.96958
2464.62	5.78742
2466	5.83485
2467.39	5.60847
2468.78	5.40572
2470.17	4.98843
2471.55	4.52481
2472.94	4.08488
2474.33	4.65485
2475.72	5.14073
2477.1	4.9465
2478.49	3.85454
2479.87	3.05266
2481.26	2.69069
2482.65	2.11359
2484.03	1.74589
2485.42	1.89997
2486.8	1.6751
2488.19	1.91115
2489.57	1.9424
2490.95	2.07407
2492.34	2.08696
2493.72	2.65609
2495.1	3.00613
2496.49	2.72865
2497.87	3.10615
2499.25	3.2944
2500.63	3.14545
2502.02	3.1323
2503.4	3.27173
2504.78	3.11576
2506.16	2.8523
2507.54	2.98465
2508.92	2.94769
2510.3	3.07882
2511.68	2.71804
2513.06	2.91129
2514.44	2.67962
2515.82	2.48554
2517.2	2.89735
2518.58	2.27706
2519.96	2.41773
2521.34	2.06222
2522.72	1.66889
2524.1	1.09382
2525.47	1.3864
2526.85	1.75399
2528.23	2.0683
2529.6	1.81641
2530.98	2.24304
2532.36	2.28944
2533.74	3.11926
2535.11	3.28971
2536.49	2.84488
2537.86	2.76892
2539.24	3.42166
2540.61	4.34589
2541.99	4.57505
2543.36	5.24331
2544.74	4.92909
2546.11	4.32278
2547.49	4.01016
2548.86	4.29167
2550.23	4.37184
2551.61	4.86388
2552.98	4.9602
2554.35	5.68066
2555.72	5.68755
2557.09	5.74329
2558.47	5.67706
2559.84	6.30649
2561.21	5.9846
2562.58	5.75324
2563.95	5.39359
2565.32	5.2701
2566.69	5.90497
2568.06	5.14416
2569.43	4.98764
2570.8	5.15373
2572.17	4.78911
2573.54	4.17929
2574.91	3.6168
2576.28	3.07061
2577.65	2.60365
2579.02	1.89614
2580.39	1.42993
2581.75	1.39567
2583.12	1.3848
2584.49	1.07083
2585.85	0.602626
2587.22	0.253343
2588.59	0.511336
2589.95	0.480728
2591.32	0.287115
2592.68	0.240618
2594.05	0.176445
2595.42	0.379779
2596.78	-0.0609905
2598.15	-0.386482
2599.51	-0.28827
2600.88	-0.170249
2602.24	0.395893
2603.6	0.130932
2604.97	0.31975
2606.33	1.07112
2607.69	1.597
2609.06	1.70488
2610.42	1.79664
2611.78	2.10116
2613.14	2.12303
2614.51	2.88279
2615.87	3.35952
2617.23	3.92426
2618.59	4.29012
2619.95	5.01328
2621.31	4.95485
2622.67	5.58052
2624.03	5.75721
2625.39	6.236
2626.75	6.53222
2628.11	7.27192
2629.47	6.87989
2630.83	7.22572
2632.19	7.42987
2633.55	7.5604
2634.91	7.90445
2636.26	7.43253
2637.62	7.74942
2638.98	7.43322
2640.34	6.53859
2641.69	6.30061
2643.05	6.26581
2644.41	6.24451
2645.76	6.53227
2647.12	6.40694
2648.48	7.10131
2649.83	7.3147
2651.19	7.29803
2652.54	7.16963
2653.9	7.10729
2655.25	7.15977
2656.6	7.02797
2657.96	6.63041
2659.31	6.46776
2660.67	6.18315
2662.02	6.36202
2663.37	6.60661
2664.73	6.13931
2666.08	6.865
2667.43	7.50207
2668.78	7.39726
2670.14	7.50953
2671.49	7.56487
2672.84	7.50316
2674.19	7.25325
2675.54	7.62905
2676.89	7.71816
2678.24	7.6542
2679.59	8.11333
2680.94	8.24292
2682.29	8.36678
2683.64	8.48298
2684.99	8.54794
2686.34	8.45233
2687.69	9.02759
2689.04	8.88943
2690.39	9.31019
2691.74	9.41401
2693.08	9.67403
2694.43	9.73256
2695.78	9.99969
2697.13	9.90093
2698.47	9.78133
2699.82	10.1878
2701.17	10.1637
2702.51	10.5216
2703.86	9.87457
2705.21	10.0145
2706.55	10.2875
2707.9	10.6604
2709.24	11.3178
2710.58	11.4636
2711.93	11.6657
2713.27	11.6653
2714.62	11.8211
2715.96	12.5397
2717.3	12.5431
2718.65	12.8696
2719.99	12.8512
2721.33	12.9405
2722.68	13.3383
2724.02	13.5285
2725.36	13.7637
2726.71	14.3559
2728.05	14.4225
2729.39	14.9592
2730.73	15.0565
2732.07	14.5722
2733.41	14.4358
2734.75	14.0007
2736.09	13.7212
2737.43	13.777
2738.77	13.165
2740.11	12.5525
2741.45	12.3043
2742.79	12.0601
2744.13	11.1109
2745.47	10.7011
2746.81	10.8916
2748.14	10.1881
2749.48	10.1379
2750.82	9.95698
2752.16	9.6162
2753.49	9.22986
2754.83	9.12843
2756.17	7.94997
2757.5	7.43337
2758.84	7.38521
2760.18	7.29334
2761.51	6.74792
2762.85	6.47939
2764.18	6.66928
2765.52	6.62825
2766.85	6.44918
2768.19	6.19028
2769.52	6.0133
2770.86	5.82061
2772.19	5.62046
2773.52	5.62314
2774.86	5.21788
2776.19	4.47362
2777.52	4.0749
2778.86	4.18454
2780.19	4.26489
2781.52	4.06593
2782.85	4.21635
2784.19	4.23688
2785.52	4.18098
2786.85	3.87995
2788.18	4.06524
2789.51	4.42342
2790.84	3.98526
2792.17	3.75487
2793.5	3.61903
2794.83	3.4658
2796.16	3.40617
2797.49	2.53293
2798.82	1.78286
2800.15	1.49067
2801.48	1.63932
2802.81	1.7018
2804.13	1.43471
2805.46	1.0301
2806.79	0.550038
2808.12	-0.203749
2809.45	-0.402539
2810.77	-0.556038
2812.1	-0.218138
2813.43	0.206749
2814.75	0.0959122
2816.08	1.03653
2817.41	1.80895
2818.73	3.22737
2820.06	4.81904
2821.38	7.23375
2822.71	9.13519
2824.03	12.9951
2825.36	16.678
2826.68	20.0051
2828	23.6839
2829.33	27.4336
2830.65	30.6942
2831.98	33.7432
2833.3	37.9355
2834.62	41.7354
2835.94	45.2688
2837.27	48.9154
2838.59	52.7509
2839.91	57.2797
2841.23	60.9426
2842.55	65.7939
2843.87	70.6059
2845.2	74.6088
2846.52	79.4028
2847.84	84.3375
2849.16	89.474
2850.48	94.7375
2851.8	99.4426
2853.12	105.33
2854.44	111.211
2855.76	116.092
2857.08	120.978
2858.39	126.089
2859.71	131.484
2861.03	136.022
2862.35	139.868
2863.67	142.876
2864.98	147.199
2866.3	151.194
2867.62	154.379
2868.94	157.656
2870.25	160.746
2871.57	162.977
2872.88	164.841
2874.2	167.285
2875.52	169.915
2876.83	172.051
2878.15	174.209
2879.46	176.058
2880.78	178.44
2882.09	181.082
2883.41	183.269
2884.72	185.884
2886.03	188.684
2887.35	191.879
2888.66	194.533
2889.97	197.683
2891.29	199.813
2892.6	201.651
2893.91	204.259
2895.22	206.587
2896.54	209.422
2897.85	212.758
2899.16	216.354
2900.47	218.832
2901.78	222.71
2903.09	226.647
2904.4	231.191
2905.71	235.982
2907.02	241.277
2908.33	246.826
2909.64	252.603
2910.95	258.834
2912.26	265.996
2913.57	272.705
2914.88	278.398
2916.19	284.816
2917.5	290.438
2918.81	296.433
2920.11	301.413
2921.42	305.763
2922.73	309.746
2924.04	313.48
2925.34	317.031
2926.65	318.982
2927.96	320.866
2929.26	322.645
2930.57	324.095
2931.87	324.347
2933.18	323.889
2934.49	323.142
2935.79	321.593
2937.1	319.398
2938.4	316.901
2939.7	313.669
2941.01	310.372
2942.31	306.363
2943.62	301.309
2944.92	296.143
2946.22	290.926
2947.53	285.286
2948.83	279.784
2950.13	274.004
2951.43	268.269
2952.74	261.915
2954.04	254.307
2955.34	247.532
2956.64	240.865
2957.94	234.238
2959.24	228.531
2960.54	221.908
2961.84	215.472
2963.15	208.971
2964.45	202.426
2965.75	196.013
2967.05	190.696
2968.34	185.24
2969.64	180.364
2970.94	175.234
2972.24	169.789
2973.54	164.617
2974.84	159.702
2976.14	153.919
2977.43	147.868
2978.73	141.81
2980.03	136.049
2981.33	130.929
2982.62	125.423
2983.92	119.633
2985.22	113.818
2986.51	107.789
2987.81	102.317
2989.11	97.1593
2990.4	91.7537
2991.7	86.3152
2992.99	81.4448
2994.29	76.4885
2995.58	71.4187
2996.88	66.7224
2998.17	62.3339
2999.46	58.0855
3000.76	54.4142
3002.05	50.8929
3003.34	46.6762
3004.64	43.1099
3005.93	40.016
3007.22	36.2499
3008.52	33.2558
3009.81	30.5334
3011.1	28.5238
3012.39	25.5989
3013.68	23.5043
3014.97	21.8251
3016.27	20.1601
3017.56	18.1817
3018.85	16.8333
3020.14	16.2489
3021.43	14.782
3022.72	13.7347
3024.01	12.9834
3025.3	11.8478
3026.59	11.3638
3027.88	10.7727
3029.16	10.7238
3030.45	10.8446
3031.74	10.985
3033.03	10.7606
3034.32	10.789
3035.6	10.4013
3036.89	10.6137
3038.18	10.4975
3039.47	9.97207
3040.75	10.4734
3042.04	11.1791
3043.33	11.6924
3044.61	11.9672
3045.9	12.0892
3047.18	12.3118
3048.47	12.5927
3049.75	12.8427
3051.04	12.9887
3052.32	13.0454
3053.61	13.3129
3054.89	13.272
3056.18	13.3108
3057.46	12.8674
3058.74	12.4951
3060.03	12.2581
3061.31	12.1528
3062.59	11.93
3063.88	11.8471
3065.16	11.6102
3066.44	11.193
3067.72	10.2768
3069	9.90856
3070.29	9.33278
3071.57	8.54953
3072.85	8.41312
3074.13	7.24413
3075.41	6.41484
3076.69	5.60908
3077.97	5.86105
3079.25	5.20068
3080.53	3.98265
3081.81	2.98256
3083.09	2.28355
3084.37	1.52134
3085.65	0.61377
3086.93	0.800516
3088.21	0.650091
3089.49	0.553646
3090.76	0.251509
3092.04	0.0181339
3093.32	-0.40789
3094.6	-0.988033
3095.87	-0.980546
3097.15	-0.600036
3098.43	-0.512974
3099.7	-0.25933
3100.98	-0.630634
3102.26	-0.777452
3103.53	-0.183025
3104.81	0.391537
3106.08	0.331079
3107.36	-0.0704293
3108.63	0.194393
3109.91	0.769757
3111.18	1.00739
3112.46	0.897254
3113.73	0.650439
3115	0.709378
3116.28	0.997259
3117.55	1.15962
3118.83	0.989827
3120.1	1.18921
3121.37	1.27492
3122.64	1.63869
3123.92	2.08891
3125.19	2.39848
3126.46	2.3994
3127.73	2.84307
3129	2.61847
3130.27	2.75353
3131.55	2.90721
3132.82	3.44069
3134.09	4.12303
3135.36	4.61485
3136.63	5.37304
3137.9	5.43127
3139.17	6.22203
3140.44	6.98885
3141.71	7.14578
3142.98	7.51234
3144.24	8.13159
3145.51	8.74584
3146.78	9.18087
3148.05	9.54021
3149.32	9.81205
