#Acq. time (s)=	45
#Accumulations=	2
#Range (cm-¹)=	200...3150
#Windows=	2
#Auto scanning=	Off
#Autofocus=	Off
#Macrospot=	Off
#AutoExposure=	Off
#Spike filter=	Multiple accum.
#Delay time (s)=	0
#Binning=	1
#Readout mode=	Signal
#DeNoise=	Off
#ICS correction=	On
#Dark correction=	Off
#Inst. Process=	Off
#Detector Gain=	Best Dynamic Range
#Detector ADC=	20 kHz       
#Detector temperature (°C)=	-69.85
#Instrument=	LabRAM HR Evol
#Detector=	Synapse
#Objective=	x100
#Grating=	600 gr/mm
#ND Filter=	100%
#Laser (nm)=	532 
#Hole=	100.021
#Range=	Auto
#Laser Pol.=	No
#Raman. Pol.=	No
#Laser Pol. (°)=	-0.0007625
#Raman Pol. (°)=	89.9995
#Collection=	Microscope
#StageXY=	Marzhauser
#StageZ=	Marzhauser
#X (µm)=	-2358.5
#Y (µm)=	242.2
#Z (µm)=	521.7
#Full time(mm:ss)=	3:18
#Project=	
#Sample=	
#Site=	
#Title=	Thy_10_08_45_2x_45s_532 nm_x100_100%_600 gr_mm
#Remark=	
#Date=	06.07.2022 15:01
#Acquired=	06.07.2022 15:01:59
#Base:Fit=	10.08.2022 09:46:25
#Base:Sub=	10.08.2022 09:46:49
#Filter:Polynom=	16.08.2022 10:24:56
#AxisType[0]=Intens
#AxisUnit[0]=Cnt
#AxisType[1]=Spectr
#AxisUnit[1]=1/cm
200.398	32.1954
202.213	29.1293
204.027	28.3068
205.843	25.4045
207.657	22.9343
209.47	20.8069
211.283	19.1291
213.097	17.6133
214.909	15.7376
216.721	14.151
218.533	12.8303
220.344	12.525
222.157	12.0481
223.967	11.2102
225.777	10.7546
227.587	9.31324
229.396	9.18754
231.205	8.34463
233.016	7.20333
234.824	6.49009
236.632	6.00112
238.439	5.9325
240.247	4.9345
242.053	4.3337
243.86	3.90948
245.666	3.41652
247.474	3.44079
249.279	2.93814
251.085	2.53312
252.889	2.64546
254.694	1.97267
256.498	1.73682
258.301	1.49266
260.105	1.81465
261.908	2.03927
263.71	2.34573
265.513	2.49529
267.315	2.07329
269.116	2.23037
270.918	2.16498
272.718	2.13481
274.519	2.09481
276.319	0.843979
278.119	0.623204
279.918	1.00441
281.718	1.69856
283.516	2.02444
285.315	2.27123
287.113	2.93063
288.911	2.94011
290.708	3.7422
292.505	4.77179
294.302	4.81311
296.098	6.41799
297.894	7.92732
299.69	8.13266
301.485	9.38847
303.278	9.37465
305.073	10.059
306.867	10.8433
308.661	11.9137
310.454	12.9825
312.247	13.5498
314.04	13.4285
315.833	13.5116
317.623	13.4826
319.415	13.6837
321.206	13.3506
322.997	13.328
324.788	13.5705
326.579	14.2514
328.367	14.219
330.156	13.7407
331.946	14.2272
333.735	14.0341
335.523	14.0648
337.31	14.3537
339.098	14.1787
340.885	14.2137
342.673	13.3478
344.458	12.8284
346.244	11.841
348.03	10.9556
349.816	10.1033
351.6	8.04225
353.385	6.37852
355.17	5.44141
356.953	5.22738
358.737	4.47495
360.521	4.22912
362.304	4.79031
364.085	4.52701
365.868	4.6176
367.65	5.42802
369.431	5.7916
371.212	5.92234
372.994	5.67085
374.773	6.9738
376.554	7.22736
378.332	6.86509
380.112	6.33172
381.892	6.52617
383.669	7.00608
385.448	7.47808
387.225	7.97678
389.003	7.98533
390.781	8.11858
392.557	8.64614
394.334	9.3526
396.109	9.79884
397.885	10.9052
399.66	10.9274
401.436	10.3424
403.211	9.62951
404.984	10.2471
406.759	11.1827
408.532	11.1504
410.306	11.5139
412.078	11.6306
413.851	12.2804
415.623	12.6973
417.395	13.0013
419.166	13.6254
420.938	13.7485
422.708	14.2176
424.477	13.5967
426.248	12.6497
428.017	12.2375
429.788	11.0868
431.556	9.65001
433.326	9.3376
435.093	9.6156
436.86	9.87434
438.629	9.48852
440.395	8.62579
442.163	8.67543
443.929	8.61111
445.694	9.07115
447.461	8.6201
449.226	9.17618
450.99	9.99797
452.756	9.2226
454.52	8.98589
456.285	7.9907
458.048	7.35417
459.811	6.91953
461.573	7.21586
463.337	7.62901
465.099	7.66586
466.86	8.26924
468.623	8.60898
470.384	9.74921
472.144	11.0236
473.906	11.0082
475.666	12.7228
477.425	13.7014
479.184	13.6597
480.944	15.6962
482.703	15.4204
484.461	15.5362
486.218	15.5965
487.975	15.212
489.734	16.0657
491.491	17.4064
493.247	18.0911
495.003	18.5689
496.759	18.6491
498.516	18.9838
500.271	19.5555
502.025	20.1545
503.779	20.4462
505.533	20.9152
507.287	21.0728
509.042	20.2517
510.795	19.9888
512.547	18.6686
514.299	19.6122
516.051	19.8238
517.803	19.4574
519.554	19.106
521.305	19.1447
523.055	18.8304
524.805	18.4039
526.555	17.099
528.307	16.2245
530.056	16.379
531.805	15.8406
533.553	15.8547
535.301	15.4308
537.049	14.7747
538.797	14.0538
540.544	12.1404
542.291	12.0791
544.037	11.5109
545.783	11.5887
547.529	12.1077
549.275	13.0717
551.02	13.4054
552.765	13.3913
554.509	12.4216
556.253	11.9188
557.997	11.7753
559.738	11.4322
561.482	11.5671
563.224	12.0217
564.967	10.7872
566.709	10.5815
568.451	10.2523
570.192	7.59009
571.933	7.4561
573.674	7.48325
575.415	6.97495
577.153	7.22221
578.893	6.08858
580.632	5.71688
582.371	6.77953
584.11	6.82994
585.849	6.56717
587.587	6.55515
589.323	5.28463
591.06	4.52582
592.797	3.82874
594.534	3.41958
596.271	2.353
598.005	2.57575
599.741	2.91837
601.476	4.11101
603.211	3.65227
604.944	3.694
606.679	3.92221
608.413	4.20429
610.147	4.27128
611.878	4.97387
613.611	4.6966
615.344	5.55619
617.077	5.92136
618.807	5.46981
620.539	5.67784
622.27	6.27028
623.999	5.84572
625.73	6.08538
627.461	6.58647
629.189	7.78246
630.919	7.15911
632.648	8.55345
634.376	9.1456
636.105	9.62694
637.833	10.0327
639.559	10.4365
641.287	10.7673
643.013	12.6971
644.74	14.0549
646.467	14.8699
648.192	15.2837
649.918	15.5299
651.642	15.7238
653.368	16.4364
655.091	16.5776
656.816	16.7725
658.538	17.9594
660.263	18.1963
661.987	18.6332
663.708	18.9954
665.432	19.2831
667.153	20.3754
668.875	21.6757
670.596	21.2422
672.318	21.3912
674.037	20.4333
675.759	20.4137
677.478	21.3044
679.196	22.0226
680.917	22.6948
682.635	23.9989
684.355	25.1252
686.072	26.7864
687.791	27.3811
689.508	26.4526
691.224	27.1331
692.942	27.9777
694.658	27.9949
696.376	27.9131
698.091	27.8501
699.805	28.2648
701.522	28.2329
703.236	27.6425
704.95	28.7577
706.665	29.2271
708.379	30.0771
710.093	30.3742
711.806	32.1889
713.518	34.0706
715.23	34.0992
716.943	34.3786
718.655	37.3004
720.366	38.3035
722.078	39.8199
723.788	41.5825
725.498	42.7845
727.208	44.4289
728.919	46.4609
730.628	47.2075
732.337	47.6389
734.045	48.9788
735.755	51.0689
737.463	52.8538
739.17	53.8159
740.877	54.2024
742.584	54.6225
744.292	55.0821
745.998	56.3723
747.704	57.7767
749.409	58.3098
751.114	59.8371
752.819	60.6706
754.526	62.8581
756.23	63.967
757.934	64.3983
759.637	65.8827
761.34	67.9326
763.043	69.3701
764.746	70.6655
766.448	72.601
768.152	74.5629
769.853	75.2795
771.554	76.9619
773.255	77.1965
774.956	77.2088
776.656	79.1092
778.356	79.1594
780.056	79.543
781.755	80.1868
783.454	81.8991
785.153	82.6315
786.851	82.7018
788.549	83.6153
790.247	85.2167
791.944	85.808
793.641	87.8011
795.338	88.2457
797.034	89.6763
798.73	90.0172
800.426	89.3909
802.121	89.7355
803.817	91.1446
805.511	90.6838
807.206	90.79
808.9	91.1186
810.592	90.9707
812.286	90.5364
813.979	90.5132
815.672	90.5644
817.364	90.496
819.057	89.7875
820.748	89.6513
822.44	88.185
824.129	86.698
825.82	85.1474
827.511	84.4384
829.201	83.7203
830.891	82.8328
832.581	82.5411
834.269	81.0388
835.958	80.5226
837.646	79.2861
839.335	79.406
841.023	77.5393
842.709	76.3757
844.396	76.3694
846.084	76.1188
847.77	74.5145
849.455	73.2375
851.141	72.7067
852.827	71.1077
854.513	69.492
856.196	68.2569
857.881	66.448
859.566	65.2105
861.248	64.652
862.932	63.6633
864.616	63.9851
866.297	62.9862
867.98	61.8018
869.663	60.1488
871.343	60.131
873.026	60.7651
874.707	61.1095
876.387	61.1133
878.068	60.3757
879.747	58.9785
881.428	58.4853
883.108	57.1959
884.786	56.3858
886.465	55.6793
888.143	55.759
889.822	55.0459
891.498	55.1901
893.177	54.9177
894.855	54.7821
896.53	54.6024
898.208	55.3369
899.883	54.5427
901.56	53.7828
903.234	53.109
904.91	53.029
906.584	51.7483
908.26	52.0877
909.933	51.0118
911.608	51.2094
913.28	50.4823
914.955	49.7709
916.627	50.2628
918.298	49.4965
919.972	49.5589
921.643	49.253
923.315	49.4614
924.986	49.3219
926.656	51.0873
928.328	51.178
929.997	51.4663
931.668	50.1025
933.337	51.0465
935.006	51.7044
936.676	51.5922
938.344	51.2575
940.012	50.4562
941.681	50.898
943.348	51.3004
945.014	51.1975
946.683	51.823
948.349	51.5865
950.015	51.0091
951.682	51.0937
953.347	52.3857
955.012	52.2195
956.676	50.8731
958.343	48.9231
960.006	47.6284
961.67	47.2206
963.333	47.714
964.998	48.4594
966.661	49.8962
968.323	50.5665
969.985	50.6128
971.649	51.6077
973.31	51.5027
974.971	51.6131
976.632	50.7611
978.293	50.6612
979.953	49.7098
981.615	48.3192
983.274	46.4318
984.933	45.4555
986.592	44.2695
988.251	43.0647
989.909	42.0945
991.567	41.0107
993.225	39.9272
994.884	39.1348
996.541	37.8366
998.198	38.1281
999.855	38.0977
1001.51	37.7249
1003.17	37.6625
1004.82	37.3809
1006.48	37.0291
1008.13	37.9018
1009.79	37.9212
1011.44	37.1582
1013.1	36.4765
1014.75	36.3769
1016.4	36.757
1018.06	36.1456
1019.71	34.9755
1021.36	33.3961
1023.01	32.95
1024.66	33.4749
1026.32	33.4998
1027.97	32.6932
1029.62	32.2196
1031.27	31.7595
1032.92	31.091
1034.57	29.4838
1036.22	28.2212
1037.87	27.1562
1039.52	26.3962
1041.16	26.9752
1042.81	27.6885
1044.46	28.8894
1046.11	28.8408
1047.76	28.2354
1049.4	27.6233
1051.05	26.5546
1052.7	26.0278
1054.34	25.8101
1055.99	24.522
1057.63	24.2412
1059.28	23.903
1060.92	23.3344
1062.57	22.9424
1064.21	22.6267
1065.85	22.4019
1067.5	22.1776
1069.14	22.1826
1070.78	21.3564
1072.43	21.643
1074.07	21.0689
1075.71	21.4444
1077.35	21.5148
1078.99	21.5027
1080.63	22.1196
1082.27	21.7946
1083.91	21.8531
1085.55	21.3915
1087.19	21.2215
1088.83	22.0577
1090.47	22.6348
1092.11	22.4546
1093.75	22.9665
1095.39	22.6419
1097.03	23.1953
1098.66	23.0209
1100.3	23.1168
1101.94	23.18
1103.57	22.8861
1105.21	23.9251
1106.84	24.1113
1108.48	23.9786
1110.11	22.1919
1111.75	21.7784
1113.38	20.7342
1115.02	19.4986
1116.65	17.6151
1118.29	17.0454
1119.92	17.25
1121.55	16.4889
1123.19	16.1869
1124.82	16.1658
1126.45	16.1677
1128.08	15.5044
1129.71	15.2704
1131.34	15.4579
1132.97	14.9644
1134.6	14.7519
1136.23	14.3893
1137.86	14.3041
1139.49	14.4889
1141.12	14.1112
1142.75	12.8961
1144.38	13.0176
1146.01	12.3239
1147.64	11.7798
1149.26	11.3727
1150.89	10.9639
1152.52	10.4767
1154.15	9.49387
1155.77	8.20482
1157.4	8.06184
1159.02	8.14249
1160.65	6.44668
1162.27	5.7258
1163.9	5.58586
1165.52	5.49535
1167.15	5.52739
1168.77	6.01025
1170.39	7.01735
1172.02	6.53109
1173.64	7.49898
1175.26	8.2847
1176.89	8.39075
1178.51	10.2412
1180.13	10.9068
1181.75	11.941
1183.37	12.7419
1184.99	12.9029
1186.61	13.3579
1188.23	14.438
1189.85	14.7489
1191.47	15.1335
1193.09	17.3131
1194.71	17.8298
1196.33	19.6342
1197.94	20.4296
1199.56	22.5451
1201.18	24.4615
1202.8	26.4058
1204.41	28.2582
1206.03	29.9121
1207.65	30.2401
1209.26	31.8991
1210.88	33.5921
1212.49	35.5109
1214.11	37.0286
1215.72	38.7731
1217.34	40.5053
1218.95	42.648
1220.57	43.1642
1222.18	44.4652
1223.79	46.0166
1225.41	47.6537
1227.02	48.6429
1228.63	48.9273
1230.24	49.2081
1231.85	49.2246
1233.47	49.8967
1235.08	49.4893
1236.69	50.1188
1238.3	50.9161
1239.91	51.2888
1241.52	50.9691
1243.13	51.7936
1244.74	52.519
1246.34	52.4976
1247.95	52.7526
1249.56	53.7299
1251.17	54.2712
1252.78	54.1808
1254.38	54.728
1255.99	53.7276
1257.6	54.0281
1259.2	54.8562
1260.81	54.3809
1262.42	55.1131
1264.02	55.593
1265.63	55.1728
1267.23	55.8751
1268.84	57.2198
1270.44	56.7863
1272.04	57.0339
1273.65	57.6496
1275.25	58.0038
1276.85	59.6133
1278.46	60.0445
1280.06	60.259
1281.66	61.2093
1283.26	63.0218
1284.86	63.6453
1286.46	64.2507
1288.07	65.1642
1289.67	66.5157
1291.27	67.2433
1292.87	67.8567
1294.47	68.0701
1296.06	68.0763
1297.66	68.8141
1299.26	69.2009
1300.86	69.3161
1302.46	69.0515
1304.06	69.6073
1305.65	70.2878
1307.25	70.9868
1308.85	71.7414
1310.44	72.8332
1312.04	73.4496
1313.64	74.2866
1315.23	73.9163
1316.83	73.9689
1318.42	74.1468
1320.02	73.7816
1321.61	73.6412
1323.2	73.1003
1324.8	72.1861
1326.39	71.423
1327.99	71.41
1329.58	71.197
1331.17	69.685
1332.76	69.3741
1334.36	68.9256
1335.95	68.5432
1337.54	68.8736
1339.13	67.9435
1340.72	68.132
1342.31	67.5999
1343.9	66.5766
1345.49	64.9738
1347.08	64.3891
1348.67	63.5339
1350.26	61.8297
1351.85	60.478
1353.43	60.0514
1355.02	59.4197
1356.61	58.2935
1358.2	55.969
1359.78	53.3665
1361.37	52.3061
1362.96	51.5141
1364.54	49.3549
1366.13	47.127
1367.71	45.5149
1369.3	43.5926
1370.88	42.8808
1372.47	41.3041
1374.05	39.8264
1375.64	38.3508
1377.22	37.4406
1378.8	36.1379
1380.39	35.1479
1381.97	34.6537
1383.55	36.023
1385.13	35.8726
1386.72	35.3322
1388.3	33.8512
1389.88	33.3094
1391.46	32.5058
1393.04	31.3087
1394.62	30.3912
1396.2	30.2118
1397.78	29.6766
1399.36	29.4349
1400.94	29.52
1402.52	30.114
1404.1	30.1986
1405.68	30.9335
1407.25	32.0679
1408.83	33.2861
1410.41	35.3006
1411.98	37.5637
1413.56	39.6589
1415.14	41.6795
1416.71	43.392
1418.29	46.1425
1419.87	48.9042
1421.44	50.1587
1423.02	52.8272
1424.59	55.5327
1426.16	58.8192
1427.74	61.658
1429.31	64.2539
1430.89	66.9123
1432.46	69.8794
1434.03	71.942
1435.6	74.473
1437.18	76.0926
1438.75	77.33
1440.32	79.4568
1441.89	81.1979
1443.46	81.5252
1445.03	82.5283
1446.6	84.0834
1448.17	84.3329
1449.74	84.9492
1451.31	84.6842
1452.88	83.829
1454.45	82.867
1456.02	81.605
1457.59	80.1113
1459.16	78.327
1460.72	76.7945
1462.29	73.5086
1463.86	70.4362
1465.43	66.7463
1466.99	63.6176
1468.56	60.7407
1470.13	57.1756
1471.69	53.3444
1473.26	50.5786
1474.82	46.9604
1476.38	43.9465
1477.95	41.1313
1479.51	37.7752
1481.08	35.0974
1482.64	30.9885
1484.2	28.6601
1485.77	26.4201
1487.33	24.3193
1488.89	22.398
1490.46	19.4953
1492.02	17.7315
1493.58	15.5883
1495.14	13.9617
1496.7	12.6247
1498.26	10.8087
1499.82	10.4368
1501.38	10.5323
1502.94	9.33121
1504.5	8.25907
1506.06	8.17425
1507.62	7.53331
1509.18	7.48055
1510.73	7.39662
1512.29	7.15934
1513.85	7.83032
1515.41	8.29345
1516.96	9.42363
1518.52	10.2629
1520.08	10.7584
1521.63	11.7951
1523.19	13.3497
1524.75	13.6051
1526.3	13.9039
1527.85	14.6799
1529.41	15.0487
1530.96	14.9204
1532.52	15.1787
1534.07	15.6193
1535.62	15.6845
1537.18	15.9489
1538.73	16.8373
1540.28	17.4769
1541.84	18.9783
1543.39	19.6319
1544.94	21.3183
1546.49	21.9353
1548.04	23.7145
1549.59	25.7961
1551.14	27.3596
1552.69	29.0092
1554.25	31.1004
1555.79	31.858
1557.34	33.2324
1558.89	35.1845
1560.44	36.1168
1561.99	37.2945
1563.54	37.9674
1565.08	39.7971
1566.63	41.8602
1568.18	42.8479
1569.73	44.3941
1571.27	45.5243
1572.82	47.0128
1574.37	47.5312
1575.91	48.6485
1577.46	49.9468
1579	50.3844
1580.55	51.5863
1582.09	52.8829
1583.64	54.8112
1585.18	55.842
1586.73	57.0592
1588.27	57.6169
1589.81	59.3282
1591.35	60.6564
1592.9	61.6727
1594.44	62.1129
1595.98	61.7938
1597.52	62.1889
1599.06	62.0867
1600.61	61.6073
1602.15	60.9799
1603.69	60.8295
1605.23	59.9609
1606.77	59.1193
1608.31	58.1177
1609.85	57.1008
1611.39	56.6916
1612.93	56.1373
1614.46	55.79
1616	55.7283
1617.54	54.9286
1619.08	54.8027
1620.61	54.4025
1622.15	55.1428
1623.69	55.5444
1625.23	57.1898
1626.76	57.8892
1628.3	58.2032
1629.83	58.5112
1631.37	59.4776
1632.9	59.8626
1634.44	60.9647
1635.97	61.9478
1637.51	63.5086
1639.04	64.6486
1640.57	65.7351
1642.11	67.6515
1643.64	68.0033
1645.17	68.0628
1646.71	68.7773
1648.24	69.9214
1649.77	70.3306
1651.3	70.5332
1652.83	71.308
1654.36	72.186
1655.89	72.8168
1657.42	73.1947
1658.96	72.5789
1660.48	72.9716
1662.01	72.656
1663.54	71.8904
1665.07	71.0762
1666.6	70.9721
1668.13	69.3584
1669.66	68.6147
1671.19	67.1217
1672.71	65.0917
1674.24	62.9213
1675.77	60.9562
1677.29	59.002
1678.82	56.7101
1680.35	53.6916
1681.87	50.6574
1683.4	48.0843
1684.92	45.0598
1686.45	42.6478
1687.97	41.1053
1689.5	38.7788
1691.02	35.7485
1692.54	33.8143
1694.07	31.6325
1695.59	29.9925
1697.11	28.1157
1698.64	26.8069
1700.16	24.9049
1701.68	23.0106
1703.2	20.8151
1704.72	19.1024
1706.25	17.6792
1707.77	17.0935
1709.29	15.9067
1710.81	15.0478
1712.33	14.4612
1713.85	13.7445
1715.37	12.1682
1716.89	11.1847
1718.41	11.4061
1719.92	10.9646
1721.44	11.3432
1722.96	10.9334
1724.48	11.087
1725.99	10.4706
1727.51	10.337
1729.03	10.1601
1730.55	9.87231
1732.06	9.97759
1733.58	9.72728
1735.09	9.77378
1736.61	9.92531
1738.13	9.91906
1739.64	9.59973
1741.15	9.58241
1742.67	9.56658
1744.18	8.99425
1745.7	8.89986
1747.21	7.84267
1748.72	7.84194
1750.24	7.18726
1751.75	6.82836
1753.26	6.33252
1754.77	5.89246
1756.29	5.39755
1757.8	4.81502
1759.31	4.38445
1760.82	3.56402
1762.33	3.41643
1763.84	3.20395
1765.35	2.46908
1766.86	1.53724
1768.37	1.26777
1769.88	0.580988
1771.39	-0.0603263
1772.9	-0.527001
1774.4	-1.04467
1775.91	-1.91439
1777.42	-2.35081
1778.93	-2.11007
1780.44	-2.25144
1781.94	-1.81985
1783.45	-1.58522
1784.96	-1.36337
1786.46	-1.58261
1787.97	-0.982202
1789.47	-0.506039
1790.98	-0.333025
1792.48	-0.0547739
1793.99	0.619172
1795.49	0.936727
1797	1.09529
1798.5	0.747141
1800.01	1.02099
1801.51	1.16953
1803.01	1.19801
1804.51	1.48879
1806.02	1.88713
1807.52	2.30309
1809.02	1.66408
1810.52	1.76046
1812.02	1.72073
1813.52	2.08098
1815.02	2.03637
1816.53	2.4201
1818.03	2.33736
1819.52	2.29207
1821.02	2.08418
1822.52	2.0879
1824.02	2.53112
1825.52	2.36564
1827.02	2.90568
1828.52	3.13118
1830.02	2.62801
1831.51	2.39606
1833.01	1.75911
1834.51	1.86171
1836.01	1.68461
1837.5	2.13924
1839	2.53551
1840.49	2.23761
1841.99	1.43829
1843.49	1.28078
1844.98	1.28884
1846.48	1.3792
1847.97	1.1705
1849.47	1.53418
1850.96	1.61616
1852.45	2.16223
1853.95	2.44353
1855.44	3.0597
1856.93	3.6435
1858.42	3.52157
1859.92	3.24712
1861.41	3.37316
1862.9	3.76486
1864.39	4.28151
1865.88	4.95003
1867.38	5.44801
1868.87	6.2957
1870.36	6.42968
1871.85	6.99201
1873.34	6.7988
1874.83	7.22502
1876.32	7.60922
1877.81	7.29313
1879.29	7.37272
1880.78	7.43898
1882.27	7.45748
1882.53	7.77799
1884.03	8.43481
1885.52	8.85295
1887.01	9.23055
1888.51	9.3226
1890	9.33059
1891.5	9.05289
1892.99	9.60512
1894.48	9.6484
1895.97	9.98939
1897.47	9.95439
1898.96	10.2648
1900.45	10.306
1901.94	10.0945
1903.43	9.72604
1904.92	9.71903
1906.41	9.59666
1907.9	9.799
1909.39	9.59996
1910.88	9.50795
1912.37	9.04482
1913.86	8.39312
1915.35	9.05249
1916.84	9.01741
1918.33	8.88286
1919.81	8.36423
1921.3	8.07428
1922.79	8.24797
1924.28	8.33878
1925.76	8.15346
1927.25	7.89805
1928.73	7.70997
1930.22	6.70491
1931.71	6.67277
1933.19	6.79263
1934.68	7.07451
1936.16	6.94002
1937.65	7.71129
1939.13	7.30436
1940.62	7.39077
1942.1	7.51067
1943.58	6.8185
1945.07	6.93706
1946.55	6.22025
1948.03	5.94802
1949.51	5.66363
1951	5.75596
1952.48	6.07392
1953.96	6.22575
1955.44	5.9856
1956.92	5.76753
1958.4	5.61172
1959.88	5.16442
1961.36	5.32716
1962.84	5.16584
1964.32	5.55805
1965.8	5.91899
1967.28	6.33608
1968.76	5.88063
1970.24	6.40006
1971.72	6.91646
1973.2	7.42933
1974.67	7.35269
1976.15	7.3376
1977.63	7.75807
1979.1	8.20932
1980.58	8.91738
1982.06	9.44233
1983.54	9.64237
1985.01	10.262
1986.49	10.4284
1987.96	10.7567
1989.44	11.3249
1990.91	10.6686
1992.39	10.8408
1993.86	10.6997
1995.33	11.3785
1996.81	11.8143
1998.28	12.5055
1999.75	12.4685
2001.23	12.8832
2002.7	13.3913
2004.17	13.6941
2005.65	14.5482
2007.12	14.8143
2008.59	14.9558
2010.06	14.8768
2011.53	15.1293
2013	14.5766
2014.47	15.2485
2015.94	15.1031
2017.41	15.2724
2018.88	16.0638
2020.35	16.0672
2021.82	16.0129
2023.29	16.1565
2024.76	16.0163
2026.23	15.6992
2027.69	14.9646
2029.16	14.6054
2030.63	14.692
2032.1	15.3476
2033.56	15.5108
2035.03	15.6614
2036.5	15.8547
2037.96	15.5588
2039.43	15.6891
2040.89	15.2443
2042.36	15.2406
2043.83	15.8582
2045.29	15.5948
2046.75	15.486
2048.22	15.4384
2049.68	15.0572
2051.15	15.2163
2052.61	15.4717
2054.07	15.766
2055.54	15.4581
2057	15.2033
2058.46	15.4471
2059.92	15.62
2061.39	15.4062
2062.85	15.5913
2064.31	15.5922
2065.77	16.2112
2067.23	16.5058
2068.69	16.8969
2070.15	17.2118
2071.61	17.5235
2073.07	17.2601
2074.53	17.3299
2075.99	17.932
2077.45	17.6422
2078.91	17.8436
2080.37	17.8757
2081.82	17.5386
2083.28	17.6376
2084.74	18.0366
2086.2	18.5279
2087.65	19.1208
2089.11	19.321
2090.57	19.059
2092.02	19.0173
2093.48	18.7344
2094.94	18.9299
2096.39	19.1951
2097.85	19.3652
2099.3	19.5813
2100.76	19.0314
2102.21	19.3714
2103.66	19.8661
2105.12	20.1786
2106.57	19.9075
2108.03	19.7001
2109.48	20.2901
2110.93	19.9263
2112.38	20.6256
2113.84	20.3663
2115.29	20.9148
2116.74	21.201
2118.19	21.3335
2119.64	21.2072
2121.09	21.5392
2122.54	21.7629
2123.99	22.6199
2125.45	23.36
2126.89	23.6389
2128.34	23.8643
2129.79	24.4461
2131.24	24.9979
2132.69	25.4407
2134.14	25.3189
2135.59	25.9648
2137.04	26.1864
2138.48	26.8697
2139.93	26.9665
2141.38	27.476
2142.83	28.3525
2144.27	28.1411
2145.72	28.0279
2147.17	28.8471
2148.61	29.0468
2150.06	28.9944
2151.5	30.1423
2152.95	30.4137
2154.39	30.7156
2155.84	30.8949
2157.28	31.6402
2158.73	32.0119
2160.17	32.5579
2161.61	32.198
2163.06	31.8985
2164.5	32.4674
2165.94	32.7205
2167.38	32.4429
2168.83	32.3876
2170.27	32.4076
2171.71	32.404
2173.15	32.2171
2174.59	32.6684
2176.03	32.7937
2177.47	33.3493
2178.91	33.3867
2180.36	33.9392
2181.8	34.1853
2183.23	34.1357
2184.67	33.8129
2186.11	33.4478
2187.55	33.152
2188.99	33.2863
2190.43	32.9383
2191.87	32.2932
2193.3	32.8974
2194.74	32.2513
2196.18	32.0452
2197.62	31.873
2199.05	31.5709
2200.49	30.9274
2201.93	30.3711
2203.36	30.1982
2204.8	29.129
2206.23	28.7376
2207.67	27.8992
2209.1	27.0261
2210.54	26.5639
2211.97	25.6612
2213.41	25.1488
2214.84	24.2753
2216.27	22.7406
2217.71	22.8567
2219.14	22.7962
2220.57	22.3211
2222.01	22.6626
2223.44	22.4996
2224.87	21.027
2226.3	20.7276
2227.73	19.6951
2229.16	19.627
2230.6	18.6804
2232.03	18.0872
2233.46	17.2838
2234.89	17.3071
2236.32	17.7232
2237.75	17.2381
2239.18	17.4075
2240.61	18.0227
2242.03	17.491
2243.46	17.5422
2244.89	17.3322
2246.32	17.9969
2247.75	17.9524
2249.17	17.9812
2250.6	17.9016
2252.03	18.2005
2253.46	17.9149
2254.88	17.7436
2256.31	17.4962
2257.73	17.6643
2259.16	17.8191
2260.59	18.2297
2262.01	17.834
2263.44	17.7918
2264.86	18.1729
2266.29	18.141
2267.71	18.919
2269.14	18.7865
2270.56	18.8052
2271.98	18.3703
2273.4	18.469
2274.83	18.1446
2276.25	17.5048
2277.67	17.0647
2279.09	15.8646
2280.52	15.8863
2281.94	15.7404
2283.36	15.1871
2284.78	14.7788
2286.2	14.2699
2287.62	14.2688
2289.04	14.8133
2290.46	14.052
2291.88	13.2831
2293.3	12.5205
2294.72	12.1592
2296.14	12.5179
2297.56	12.9947
2298.98	13.0466
2300.4	13.7363
2301.82	14.1421
2303.23	14.9999
2304.65	15.186
2306.07	15.1934
2307.49	15.5919
2308.9	15.3843
2310.32	15.8579
2311.73	15.5844
2313.15	15.3572
2314.57	15.4333
2315.98	15.3874
2317.4	15.2296
2318.81	14.9525
2320.23	15.0484
2321.64	14.8743
2323.06	14.5932
2324.47	14.6713
2325.88	14.2256
2327.3	14.0631
2328.71	13.5743
2330.12	12.7683
2331.54	12.6667
2332.95	12.4436
2334.36	12.299
2335.77	12.8636
2337.18	13.206
2338.6	13.3788
2340.01	12.6259
2341.42	12.2761
2342.83	12.3097
2344.24	11.9985
2345.65	11.4132
2347.06	11.1533
2348.47	10.0729
2349.88	9.72651
2351.29	9.32645
2352.7	8.16497
2354.1	7.43177
2355.51	7.13316
2356.92	7.25409
2358.33	6.85293
2359.74	6.15523
2361.14	5.5351
2362.55	5.63554
2363.96	6.34745
2365.36	7.33404
2366.77	7.77666
2368.18	7.35663
2369.58	7.49586
2370.99	7.71482
2372.39	7.97706
2373.8	7.83842
2375.2	7.80989
2376.61	7.89818
2378.01	8.08039
2379.42	7.99271
2380.82	7.67843
2382.22	6.73415
2383.63	6.24278
2385.03	5.86716
2386.43	6.27221
2387.84	6.21573
2389.24	6.57719
2390.64	5.92417
2392.04	5.55866
2393.44	5.28108
2394.84	4.87066
2396.25	4.32516
2397.65	4.04718
2399.05	3.46538
2400.45	3.59276
2401.85	4.42017
2403.25	4.13554
2404.65	4.40744
2406.05	4.8494
2407.45	4.80088
2408.84	4.60926
2410.24	4.61746
2411.64	4.59354
2413.04	5.14058
2414.44	5.08441
2415.83	5.17272
2417.23	5.24018
2418.63	4.91624
2420.02	4.87994
2421.42	4.75029
2422.82	4.98473
2424.21	5.44847
2425.61	5.90481
2427	5.83419
2428.4	5.64836
2429.8	5.74315
2431.19	5.97133
2432.58	6.32155
2433.98	6.81181
2435.37	7.20141
2436.77	7.29968
2438.16	7.12954
2439.55	7.20468
2440.95	7.25539
2442.34	7.5386
2443.73	7.41658
2445.12	8.11389
2446.51	7.9944
2447.91	8.19553
2449.3	7.72896
2450.69	7.53493
2452.08	7.54259
2453.47	8.10221
2454.86	7.65978
2456.25	7.42683
2457.64	7.01359
2459.03	7.04836
2460.42	6.81157
2461.81	6.36139
2463.2	5.97723
2464.59	6.10423
2465.98	6.2422
2467.36	5.91945
2468.75	5.43088
2470.14	5.42917
2471.53	5.26244
2472.92	4.6705
2474.3	4.30498
2475.69	4.74233
2477.08	4.90682
2478.46	4.83258
2479.85	4.56452
2481.23	4.2674
2482.62	4.66611
2484	4.66123
2485.39	4.16863
2486.77	3.88643
2488.16	3.64073
2489.54	3.44486
2490.93	3.17623
2492.31	2.82577
2493.69	2.75947
2495.08	2.39814
2496.46	1.99666
2497.84	1.68466
2499.23	1.16122
2500.61	1.84972
2501.99	1.62457
2503.37	1.4509
2504.75	1.14868
2506.13	0.407236
2507.52	0.144792
2508.9	0.180462
2510.28	0.572644
2511.66	0.891207
2513.04	0.367342
2514.42	0.438282
2515.8	0.312529
2517.18	0.484931
2518.55	0.129314
2519.93	0.629384
2521.31	0.442754
2522.69	0.45473
2524.07	0.232349
2525.45	1.09404
2526.82	1.63555
2528.2	2.1104
2529.58	2.10889
2530.95	2.26907
2532.33	3.1947
2533.71	3.53855
2535.08	4.15258
2536.46	3.94921
2537.84	4.11946
2539.21	4.2152
2540.59	4.23409
2541.96	4.20948
2543.34	4.54726
2544.71	4.68165
2546.08	4.08784
2547.46	3.75347
2548.83	4.11013
2550.2	4.43799
2551.58	4.60138
2552.95	4.95062
2554.32	5.59602
2555.7	5.66919
2557.07	5.89411
2558.44	5.52234
2559.81	5.01391
2561.18	4.98225
2562.55	5.51101
2563.93	5.14749
2565.3	5.56235
2566.67	4.95908
2568.04	4.74176
2569.41	5.09623
2570.78	4.28663
2572.15	4.0906
2573.51	3.62639
2574.88	3.29759
2576.25	3.59729
2577.62	3.97846
2578.99	4.02947
2580.36	3.04708
2581.73	2.64862
2583.09	3.15471
2584.46	3.52992
2585.83	3.57325
2587.19	3.31186
2588.56	3.27222
2589.93	3.12903
2591.29	3.28832
2592.66	3.07285
2594.02	3.00868
2595.39	2.87967
2596.75	3.28431
2598.12	3.30089
2599.48	2.96371
2600.85	2.482
2602.21	1.50556
2603.58	1.33991
2604.94	0.716432
2606.3	0.341104
2607.67	-0.326683
2609.03	-0.345312
2610.39	-0.549376
2611.76	-0.990485
2613.12	-1.54021
2614.48	-1.15544
2615.84	-0.974463
2617.2	-0.205643
2618.56	-0.304477
2619.92	0.242201
2621.28	0.476046
2622.65	0.390831
2624.01	-0.372148
2625.37	-0.500774
2626.72	-1.13575
2628.08	-1.08853
2629.44	-0.675675
2630.8	-0.720854
2632.16	-0.872158
2633.52	-0.811912
2634.88	-1.17651
2636.24	-0.605877
2637.59	0.298248
2638.95	0.453243
2640.31	0.969328
2641.67	1.33497
2643.02	1.59703
2644.38	2.28757
2645.74	2.29537
2647.09	1.96713
2648.45	2.05127
2649.8	3.29421
2651.16	3.46214
2652.51	3.4024
2653.87	3.40351
2655.22	3.36578
2656.58	3.63786
2657.93	4.07091
2659.29	4.50928
2660.64	4.70692
2661.99	4.63844
2663.35	5.0113
2664.7	5.32489
2666.05	5.16892
2667.41	5.02913
2668.76	5.01456
2670.11	4.99693
2671.46	5.48759
2672.81	5.47313
2674.16	5.12373
2675.51	4.82263
2676.87	5.18458
2678.22	5.21024
2679.57	5.41411
2680.92	5.8358
2682.27	5.80768
2683.62	5.8841
2684.97	5.78907
2686.31	5.29068
2687.66	5.17473
2689.01	3.99084
2690.36	3.65897
2691.71	3.31827
2693.06	3.11958
2694.4	2.94342
2695.75	3.03998
2697.1	3.17602
2698.45	2.90913
2699.79	3.13382
2701.14	3.16718
2702.49	3.50782
2703.83	3.86311
2705.18	4.29412
2706.52	4.33776
2707.87	4.82004
2709.21	5.37708
2710.56	5.67843
2711.9	6.74301
2713.25	6.73883
2714.59	7.18143
2715.94	7.79907
2717.28	7.92176
2718.62	7.80259
2719.97	8.42285
2721.31	8.59375
2722.65	8.72462
2723.99	8.7923
2725.34	9.3153
2726.68	9.53769
2728.02	9.00336
2729.36	9.2839
2730.7	9.27532
2732.04	9.48109
2733.39	9.37086
2734.73	9.34389
2736.07	8.95996
2737.41	8.45898
2738.75	8.33948
2740.08	7.99287
2741.43	7.45228
2742.76	7.24193
2744.1	7.25654
2745.44	6.61374
2746.78	6.10546
2748.12	5.30168
2749.46	3.997
2750.79	3.44123
2752.13	3.11821
2753.47	2.48537
2754.81	2.66714
2756.14	2.67792
2757.48	3.01484
2758.81	2.56354
2760.15	2.35169
2761.49	2.17394
2762.82	1.98704
2764.16	1.57957
2765.49	1.53343
2766.83	2.15777
2768.16	2.02312
2769.5	2.49081
2770.83	2.93496
2772.16	3.28877
2773.5	3.30952
2774.83	3.637
2776.17	4.34224
2777.5	4.06673
2778.83	3.74349
2780.16	3.19539
2781.5	3.24336
2782.83	3.21246
2784.16	3.07892
2785.49	3.18897
2786.82	3.2814
2788.15	3.24571
2789.49	3.16222
2790.82	2.9511
2792.15	3.59841
2793.48	3.17718
2794.81	2.6097
2796.14	2.95621
2797.46	2.63697
2798.79	2.68112
2800.12	2.59988
2801.45	2.47097
2802.78	1.82293
2804.11	1.63766
2805.44	1.79711
2806.76	2.06756
2808.09	1.88423
2809.42	1.63931
2810.75	1.07608
2812.07	1.19742
2813.4	1.27128
2814.73	0.975439
2816.05	1.25745
2817.38	1.79065
2818.7	2.89787
2820.03	3.81378
2821.36	5.26287
2822.68	5.38956
2824.01	6.0055
2825.33	7.43836
2826.65	9.68811
2827.98	11.3578
2829.3	13.1564
2830.63	14.4327
2831.95	16.6345
2833.27	18.5411
2834.6	19.8785
2835.92	22.0563
2837.24	24.3212
2838.56	26.3722
2839.88	28.6621
2841.21	31.8307
2842.53	34.8397
2843.85	37.3075
2845.17	40.6176
2846.49	44.0919
2847.81	47.898
2849.13	51.146
2850.45	54.8189
2851.77	58.675
2853.09	62.2325
2854.41	65.5934
2855.73	68.9318
2857.05	72.2342
2858.37	75.8134
2859.69	78.9803
2861	82.3597
2862.32	86.4277
2863.64	89.7471
2864.96	92.4788
2866.28	95.4904
2867.59	98.1847
2868.91	100.664
2870.23	103.676
2871.54	105.773
2872.86	107.54
2874.17	108.529
2875.49	110.11
2876.81	111.582
2878.12	113.482
2879.44	114.526
2880.75	115.667
2882.07	117.75
2883.38	119.157
2884.69	121.727
2886.01	123.556
2887.32	125.61
2888.63	127.256
2889.95	129.985
2891.26	132.668
2892.57	134.426
2893.89	135.942
2895.2	138.276
2896.51	140.934
2897.82	143.66
2899.13	145.898
2900.44	148.768
2901.76	152.127
2903.07	155.875
2904.38	158.923
2905.69	163.321
2907	167.295
2908.31	171.741
2909.62	175.59
2910.93	179.95
2912.24	184.254
2913.55	189.373
2914.85	193.407
2916.16	197.86
2917.47	202.405
2918.78	205.876
2920.09	209.923
2921.4	213.19
2922.7	215.956
2924.01	218.769
2925.32	221.493
2926.62	222.963
2927.93	224.362
2929.24	225.273
2930.54	225.387
2931.85	225.869
2933.15	225.413
2934.46	224.426
2935.76	222.633
2937.07	219.978
2938.37	217.334
2939.68	214.762
2940.98	212.346
2942.29	208.937
2943.59	205.738
2944.89	202.36
2946.2	199.265
2947.5	196.813
2948.8	193.772
2950.11	191.068
2951.41	187.455
2952.71	183.656
2954.01	179.423
2955.32	175.709
2956.62	172.012
2957.92	168.587
2959.22	165.219
2960.52	161.323
2961.82	157.438
2963.12	153.713
2964.42	149.422
2965.72	145.64
2967.02	142.004
2968.32	138.797
2969.62	135.216
2970.92	132.298
2972.22	128.91
2973.51	126.034
2974.81	122.613
2976.11	119.872
2977.41	116.807
2978.71	114.248
2980	110.866
2981.3	107.576
2982.6	104.616
2983.9	101.128
2985.19	97.5956
2986.49	94.1449
2987.78	90.6063
2989.08	87.2299
2990.38	83.4998
2991.67	79.3381
2992.97	75.6299
2994.26	72.122
2995.56	68.2623
2996.85	64.8281
2998.14	60.888
2999.44	57.4796
3000.73	53.6848
3002.03	50.3933
3003.32	47.1214
3004.61	44.6644
3005.91	41.9262
3007.2	38.978
3008.49	36.5428
3009.78	34.861
3011.07	33.4108
3012.37	31.7218
3013.66	29.924
3014.95	28.1544
3016.24	27.0464
3017.53	25.1406
3018.82	24.1951
3020.11	23.1017
3021.4	23.1774
3022.69	22.3806
3023.98	20.7755
3025.27	19.5197
3026.56	18.9829
3027.85	18.4226
3029.14	16.9613
3030.43	16.8488
3031.71	16.9582
3033	16.7441
3034.29	16.2803
3035.58	16.6125
3036.87	16.8387
3038.15	17.1314
3039.44	17.7203
3040.73	17.8799
3042.01	18.3953
3043.3	19.2871
3044.59	19.7138
3045.87	20.0757
3047.16	20.9372
3048.44	20.7255
3049.73	21.5591
3051.01	22.4723
3052.3	22.4709
3053.58	22.4595
3054.87	22.7049
3056.15	22.4116
3057.43	22.2818
3058.72	22.3399
3060	21.979
3061.29	21.7048
3062.57	21.2278
3063.85	20.7768
3065.13	20.1422
3066.42	19.5886
3067.7	19.6725
3068.98	19.3737
3070.26	18.1519
3071.54	17.6516
3072.82	17.4449
3074.11	17.0567
3075.39	16.4405
3076.67	15.5492
3077.95	15.3665
3079.23	14.6068
3080.51	13.7533
3081.79	12.2082
3083.07	11.3268
3084.35	10.3138
3085.63	9.92799
3086.9	8.0048
3088.18	6.81549
3089.46	5.82676
3090.74	5.1091
3092.02	4.42302
3093.29	3.84088
3094.57	3.54873
3095.85	3.0201
3097.13	2.50632
3098.4	2.15311
3099.68	2.14709
3100.95	2.02032
3102.23	1.92879
3103.51	1.79919
3104.78	1.55524
3106.06	1.95312
3107.33	2.30938
3108.61	2.68523
3109.88	2.56524
3111.16	2.64217
3112.43	2.72529
3113.71	3.19993
3114.98	2.99134
3116.25	2.65408
3117.53	2.49045
3118.8	2.5384
3120.07	2.15624
3121.35	2.41833
3122.62	2.62995
3123.89	2.85102
3125.16	3.33018
3126.44	3.49896
3127.71	3.8907
3128.98	4.09515
3130.25	4.39949
3131.52	4.60927
3132.79	3.95511
3134.06	3.58084
3135.33	3.88718
3136.6	3.48368
3137.87	2.97924
3139.14	2.75202
3140.41	2.17361
3141.68	1.72743
3142.95	1.22106
3144.22	0.875899
3145.49	0.667837
3146.76	0.635934
3148.02	0.326153
3149.29	0.634695
