#Acq. time (s)=	45
#Accumulations=	2
#Range (cm-¹)=	200...3150
#Windows=	2
#Auto scanning=	Off
#Autofocus=	Off
#Macrospot=	Off
#AutoExposure=	Off
#Spike filter=	Multiple accum.
#Delay time (s)=	0
#Binning=	1
#Readout mode=	Signal
#DeNoise=	Off
#ICS correction=	On
#Dark correction=	Off
#Inst. Process=	Off
#Detector Gain=	Best Dynamic Range
#Detector ADC=	20 kHz       
#Detector temperature (°C)=	-69.85
#Instrument=	LabRAM HR Evol
#Detector=	Synapse
#Objective=	x100
#Grating=	600 gr/mm
#ND Filter=	100%
#Laser (nm)=	532 
#Hole=	100.021
#Range=	Auto
#Laser Pol.=	No
#Raman. Pol.=	No
#Laser Pol. (°)=	-0.0007625
#Raman Pol. (°)=	89.9995
#Collection=	Microscope
#StageXY=	Marzhauser
#StageZ=	Marzhauser
#X (µm)=	-5131.5
#Y (µm)=	1515.4
#Z (µm)=	63.7
#Full time(mm:ss)=	3:18
#Project=	
#Sample=	
#Site=	
#Title=	Thy_50_12_36_2x_45s_532 nm_x100_100%_600 gr_mm
#Remark=	
#Date=	07.07.2022 11:54
#Acquired=	07.07.2022 11:54:59
#Base:Fit=	10.08.2022 10:04:30
#Base:Sub=	10.08.2022 10:04:45
#Filter:Polynom=	16.08.2022 10:20:25
#AxisType[0]=Intens
#AxisUnit[0]=Cnt
#AxisType[1]=Spectr
#AxisUnit[1]=1/cm
200.43	6.57291
202.246	6.80401
204.061	7.52634
205.875	7.64166
207.688	7.17027
209.501	7.49279
211.316	7.73692
213.129	7.77662
214.941	7.88674
216.753	7.73511
218.566	7.27714
220.377	7.26128
222.188	7.79624
223.999	7.48581
225.809	7.28247
227.618	6.09747
229.43	6.49776
231.239	5.64797
233.047	5.27191
234.855	5.19478
236.663	4.78691
238.471	4.58302
240.278	4.53891
242.087	3.48913
243.894	3.79701
245.7	4.5846
247.506	4.36662
249.311	4.37313
251.116	3.27909
252.921	3.45217
254.725	3.69372
256.529	1.97931
258.333	1.60007
260.136	2.1588
261.939	3.95757
263.744	4.37754
265.546	5.56395
267.348	6.1526
269.15	5.79255
270.951	5.88098
272.752	6.54536
274.552	6.58126
276.353	5.72045
278.152	5.36986
279.952	5.34251
281.751	6.48693
283.55	6.12456
285.348	6.07409
287.146	6.13693
288.942	6.54462
290.739	7.18999
292.536	7.03301
294.333	7.52885
296.129	7.92314
297.925	9.17141
299.721	10.1198
301.516	9.06174
303.311	9.37118
305.106	9.96045
306.9	10.6537
308.694	10.9061
310.486	12.3136
312.279	12.4996
314.072	12.5183
315.864	12.2891
317.656	11.2779
319.448	11.1346
321.24	10.4453
323.029	10.5162
324.819	10.9217
326.61	11.4254
328.4	10.6579
330.19	10.7458
331.977	10.1097
333.766	11.8494
335.555	11.3147
337.343	10.5996
339.131	10.6475
340.917	9.4723
342.704	9.38375
344.491	8.58449
346.277	9.06954
348.062	9.10642
349.848	9.9776
351.633	10.7228
353.416	10.2757
355.201	10.1517
356.986	8.44871
358.77	8.4145
360.552	6.93779
362.335	6.53692
364.118	5.79816
365.899	5.43317
367.682	6.42257
369.464	7.49445
371.243	7.93922
373.025	7.32196
374.806	7.36908
376.585	7.71831
378.365	7.77256
380.143	7.47493
381.923	7.73923
383.702	8.18565
385.479	8.34346
387.258	8.51516
389.034	8.94138
390.812	8.86472
392.59	8.765
394.365	8.72598
396.142	8.64017
397.916	8.28789
399.693	8.6038
401.467	7.37823
403.242	7.19165
405.015	5.49781
406.79	4.86221
408.565	5.42408
410.337	6.77697
412.111	6.59026
413.882	6.47607
415.656	5.82685
417.426	5.77883
419.197	6.4526
420.969	6.31836
422.739	6.69054
424.51	5.74425
426.279	6.38994
428.05	6.55447
429.819	5.75263
431.589	6.3989
433.356	7.02831
435.124	7.52714
436.893	7.66794
438.66	8.17951
440.428	7.61915
442.194	7.51177
443.96	6.19202
445.727	5.8258
447.492	5.54328
449.259	5.23184
451.023	6.63579
452.787	6.38776
454.553	7.31036
456.316	7.99108
458.079	8.81575
459.844	9.83051
461.606	11.083
463.368	12.8584
465.132	13.5479
466.893	13.7214
468.654	14.9122
470.415	16.1314
472.177	18.0307
473.937	17.9045
475.696	18.4143
477.456	19.4485
479.217	20.409
480.975	21.2743
482.733	23.1545
484.491	23.9274
486.251	25.7298
488.008	26.472
489.765	26.5149
491.522	27.6426
493.278	27.6954
495.036	28.9193
496.791	29.8578
498.546	30.112
500.301	29.9877
502.056	30.3552
503.81	31.4329
505.566	32.2792
507.319	31.5565
509.073	31.3913
510.825	30.5677
512.578	30.9518
514.33	30.9022
516.082	30.4411
517.833	30.216
519.587	29.2843
521.337	29.0703
523.088	27.8238
524.838	27.407
526.588	25.9621
528.337	24.9367
530.087	24.075
531.835	23.0694
533.584	22.5759
535.332	20.9577
537.08	21.2593
538.827	20.5731
540.574	19.8045
542.321	20.0976
544.068	19.6942
545.814	19.3757
547.56	19.1657
549.305	18.9901
551.05	18.9976
552.795	18.4373
554.54	18.3666
556.284	17.902
558.027	16.0786
559.771	15.5076
561.514	14.469
563.257	13.7873
564.999	13.9536
566.742	14.1207
568.481	13.3922
570.223	12.8005
571.964	11.5001
573.705	11.5108
575.445	9.88954
577.185	8.82127
578.925	8.61315
580.665	7.16597
582.402	5.96104
584.141	5.77157
585.879	5.32142
587.617	4.90126
589.355	4.35786
591.092	4.11691
592.828	3.39807
594.564	2.46142
596.301	1.80303
598.037	2.19327
599.773	3.3313
601.506	3.07573
603.242	2.95775
604.976	2.57656
606.711	1.96757
608.443	2.79736
610.177	1.81051
611.91	2.29011
613.644	2.67591
615.374	3.41524
617.107	3.76186
618.839	3.33658
620.569	3.16553
622.3	2.33019
624.032	3.56986
625.761	3.78176
627.491	3.35551
629.221	3.3995
630.949	3.20454
632.679	3.35773
634.408	4.41117
636.135	5.25903
637.863	6.20429
639.592	6.77168
641.318	7.36296
643.045	7.51058
644.77	8.4127
646.497	9.7475
648.224	9.74538
649.948	9.35403
651.674	10.2159
653.398	10.5435
655.123	10.0515
656.846	11.5734
658.57	11.5146
660.293	12.291
662.017	12.9396
663.738	14.1167
665.462	14.3632
667.185	14.9843
668.905	15.7213
670.628	16.547
672.348	16.4714
674.067	16.0509
675.789	17.2895
677.508	17.5962
679.228	18.3643
680.947	18.7255
682.667	19.6405
684.385	19.834
686.104	19.9286
687.821	20.7274
689.538	21.1664
691.256	20.9028
692.972	21.6615
694.69	22.9683
696.406	23.8241
698.121	23.9986
699.837	24.6218
701.552	25.3674
703.268	25.5167
704.982	26.3868
706.695	27.9033
708.41	28.5925
710.123	31.3277
711.836	32.0128
713.55	32.0976
715.262	34.6519
716.973	36.0595
718.685	37.851
720.398	38.5577
722.108	39.0934
723.818	40.2514
725.53	40.7127
727.24	40.4362
728.949	40.7276
730.658	41.2198
732.369	41.6814
734.077	41.6868
735.785	42.4784
737.493	44.2126
739.2	45.937
740.909	46.3753
742.616	47.5424
744.322	48.1485
746.028	50.139
747.734	51.8609
749.441	53.2625
751.146	53.8557
752.851	54.9691
754.555	55.6849
756.26	56.7853
757.963	58.2494
759.667	60.2523
761.372	61.7563
763.075	62.3646
764.777	63.5849
766.479	63.5574
768.181	64.5324
769.883	65.2169
771.584	67.3289
773.285	68.9677
774.986	69.1379
776.686	69.4611
778.386	70.2258
780.085	71.2429
781.785	71.7513
783.484	72.4096
785.182	74.0538
786.881	74.2955
788.579	75.543
790.276	76.3343
791.974	77.8407
793.671	78.7275
795.367	79.6748
797.064	80.1765
798.76	80.7496
800.456	80.6411
802.151	79.3377
803.846	79.7542
805.541	78.9248
807.236	79.1151
808.93	79.4081
810.624	78.8919
812.317	80.4054
814.01	80.7746
815.703	80.061
817.394	78.8861
819.086	78.5452
820.778	79.5339
822.47	79.1303
824.161	78.6763
825.852	78.0867
827.543	78.5512
829.231	79.5464
830.921	79.3334
832.611	80.1079
834.3	80.3398
835.989	78.5304
837.676	76.8375
839.364	75.5144
841.053	74.7866
842.74	73.0125
844.426	71.9627
846.113	69.8101
847.8	68.7608
849.486	66.8273
851.171	65.5859
852.857	64.9399
854.542	64.1909
856.227	62.7771
857.911	60.5582
859.595	59.1265
861.279	57.9068
862.961	56.9164
864.645	57.2271
866.329	56.5553
868.01	56.1439
869.692	55.1712
871.375	55.0562
873.055	55.7936
874.737	55.371
876.418	55.4073
878.097	55.0567
879.778	54.9486
881.457	54.9193
883.137	52.479
884.817	50.9546
886.495	51.0858
888.174	50.1839
889.851	48.3947
891.53	48.1875
893.206	47.445
894.884	46.9797
896.562	47.2779
898.237	45.0064
899.914	43.6133
901.589	43.2729
903.265	43.964
904.94	44.3394
906.615	42.4456
908.289	41.9792
909.964	40.0322
911.637	39.1301
913.31	37.6133
914.984	36.5048
916.656	36.0249
918.33	33.8391
920.001	31.4024
921.674	31.3381
923.345	31.7244
925.015	31.7061
926.687	29.8774
928.357	29.4065
930.028	27.9406
931.698	27.2662
933.366	25.8568
935.037	26.006
936.705	26.0255
938.373	26.3698
940.043	26.0438
941.71	26.2595
943.379	27.471
945.046	27.6503
946.712	27.5791
948.378	29.0145
950.046	30.251
951.711	31.9154
953.376	32.7495
955.043	34.3049
956.708	34.4789
958.372	34.7714
960.036	35.126
961.701	35.972
963.364	35.8873
965.027	35.5077
966.69	35.384
968.354	36.8364
970.016	36.8388
971.678	36.8641
973.339	37.9674
975	38.2727
976.661	38.5458
978.324	38.1502
979.984	38.9309
981.644	38.6313
983.303	38.4708
984.962	38.1039
986.621	37.4626
988.282	36.9066
989.94	35.5558
991.598	35.5056
993.256	35.7202
994.913	36.5852
996.57	36.4445
998.227	36.3031
999.884	36.1123
1001.54	35.6144
1003.2	35.9907
1004.85	35.6047
1006.51	35.143
1008.16	33.7441
1009.82	32.946
1011.47	34.087
1013.12	34.8427
1014.78	36.2295
1016.43	36.8305
1018.08	38.3057
1019.74	38.6793
1021.39	39.0557
1023.04	39.5305
1024.69	39.7688
1026.34	41.3385
1028	43.5238
1029.65	46.0667
1031.3	48.395
1032.95	48.9864
1034.6	49.0644
1036.25	49.0259
1037.9	49.1611
1039.55	48.8299
1041.19	49.7257
1042.84	49.421
1044.49	49.2722
1046.14	49.5865
1047.79	49.2152
1049.43	48.2584
1051.08	47.1101
1052.73	45.2018
1054.37	43.7075
1056.02	42.4981
1057.66	41.0596
1059.31	40.6486
1060.95	38.6052
1062.6	38.2416
1064.24	36.2276
1065.88	34.1856
1067.53	32.5668
1069.17	31.8577
1070.81	30.9282
1072.46	29.3901
1074.1	28.624
1075.74	28.0622
1077.38	25.8533
1079.02	24.5708
1080.66	23.3829
1082.3	22.2714
1083.94	20.9413
1085.58	20.7028
1087.22	19.1161
1088.86	19.1919
1090.5	19.7554
1092.14	20.9095
1093.78	21.5628
1095.42	21.3164
1097.05	21.5826
1098.69	21.154
1100.33	21.3477
1101.97	21.5895
1103.6	22.1394
1105.24	23.2037
1106.87	23.7704
1108.51	25.8352
1110.15	26.201
1111.78	25.5755
1113.41	24.2826
1115.05	23.5167
1116.68	24.0513
1118.31	24.104
1119.95	23.8325
1121.58	23.1421
1123.21	23.5446
1124.85	22.8647
1126.48	22.4192
1128.11	22.3076
1129.74	21.0986
1131.37	19.8059
1133	19.3408
1134.63	18.4427
1136.26	18.085
1137.89	18.5303
1139.52	18.4334
1141.15	17.7073
1142.78	15.5399
1144.41	14.9648
1146.04	13.5559
1147.66	12.1984
1149.29	11.7058
1150.92	11.1062
1152.55	10.1749
1154.17	9.41762
1155.8	9.01016
1157.43	7.68832
1159.05	5.03586
1160.68	4.22707
1162.3	3.18987
1163.93	2.36922
1165.55	1.82491
1167.17	1.73858
1168.8	1.68089
1170.42	1.96713
1172.05	2.43083
1173.67	1.78785
1175.29	2.41615
1176.91	2.90964
1178.54	3.69568
1180.16	3.97826
1181.78	4.76246
1183.4	4.97904
1185.02	5.24683
1186.64	6.15518
1188.26	6.05209
1189.88	6.65209
1191.5	7.01276
1193.12	7.50063
1194.74	8.5839
1196.36	9.44205
1197.97	9.90126
1199.59	10.3689
1201.21	10.3461
1202.83	11.5949
1204.44	14.0944
1206.06	14.7694
1207.68	15.9077
1209.29	17.7431
1210.91	18.6316
1212.52	20.2435
1214.14	22.0836
1215.75	23.7992
1217.37	25.4136
1218.98	27.4768
1220.6	27.9387
1222.21	28.9918
1223.82	29.3408
1225.44	32.2013
1227.05	33.7895
1228.66	36.3612
1230.27	38.6342
1231.88	40.0696
1233.49	41.1091
1235.1	43.2923
1236.72	44.6283
1238.33	46.8036
1239.94	48.2685
1241.55	50.4483
1243.16	52.1846
1244.76	53.5181
1246.37	54.8132
1247.98	55.7912
1249.59	57.4093
1251.2	58.5093
1252.8	60.3422
1254.41	63.2103
1256.02	66.3412
1257.63	67.1427
1259.23	69.107
1260.84	70.2536
1262.44	71.1072
1264.05	72.1067
1265.66	73.2338
1267.26	75.0069
1268.87	76.126
1270.47	77.3258
1272.07	78.8133
1273.68	79.156
1275.28	80.5676
1276.88	81.6443
1278.48	82.6769
1280.09	83.5758
1281.69	84.3415
1283.29	85.5116
1284.89	86.9581
1286.49	87.0013
1288.09	88.5051
1289.69	89.3206
1291.3	89.1458
1292.9	90.2796
1294.49	91.0084
1296.09	91.3507
1297.69	91.8916
1299.29	92.5544
1300.89	92.5063
1302.49	94.0055
1304.09	94.3353
1305.68	95.669
1307.28	95.6287
1308.88	96.4016
1310.47	96.68
1312.07	95.4797
1313.66	95.7782
1315.26	95.6351
1316.86	94.5393
1318.45	94.2326
1320.05	92.4012
1321.64	92.1747
1323.23	91.1196
1324.83	90.3046
1326.42	89.2358
1328.01	88.922
1329.61	88.3602
1331.2	87.5854
1332.79	87.0793
1334.38	86.8183
1335.98	85.0682
1337.57	82.5481
1339.16	81.1478
1340.75	78.9775
1342.34	77.4118
1343.93	75.8578
1345.52	74.8847
1347.11	73.5081
1348.7	71.9612
1350.29	70.7831
1351.87	69.2481
1353.46	67.2192
1355.05	65.5542
1356.64	64.4284
1358.23	62.4155
1359.81	60.4241
1361.4	59.7096
1362.99	57.4623
1364.57	57.2699
1366.16	55.9569
1367.74	56.4477
1369.33	55.0494
1370.91	53.1058
1372.5	53.343
1374.08	52.5818
1375.67	51.5849
1377.25	51.8635
1378.83	51.0935
1380.42	51.2056
1382	50.9681
1383.58	50.3069
1385.16	50.7124
1386.75	50.6608
1388.33	50.1593
1389.91	49.5133
1391.49	48.596
1393.07	50.0833
1394.65	50.5046
1396.23	50.9703
1397.81	51.3633
1399.39	51.748
1400.97	52.9115
1402.55	52.9983
1404.13	53.615
1405.7	54.7922
1407.28	56.1208
1408.86	56.5381
1410.44	57.8439
1412.01	58.7852
1413.59	60.6123
1415.17	61.8264
1416.74	63.7464
1418.32	66.7979
1419.89	68.6584
1421.47	71.8347
1423.05	75.1021
1424.62	78.3918
1426.19	80.9153
1427.77	83.5109
1429.34	85.093
1430.92	87.3959
1432.49	90.1978
1434.06	93.2175
1435.63	96.0282
1437.2	97.6021
1438.78	99.6711
1440.35	102.101
1441.92	102.516
1443.49	104.646
1445.06	105.17
1446.63	105.579
1448.2	104.306
1449.77	104.283
1451.34	104.606
1452.91	104.089
1454.48	104.244
1456.05	103.188
1457.62	101.161
1459.18	99.4161
1460.75	96.7681
1462.32	94.938
1463.89	92.418
1465.45	89.3322
1467.02	85.5054
1468.59	82.5918
1470.15	79.809
1471.72	76.6854
1473.28	72.5663
1474.85	68.1315
1476.41	64.2654
1477.98	60.7141
1479.54	57.0658
1481.11	53.2671
1482.67	49.8681
1484.23	46.2784
1485.8	42.6906
1487.36	39.1643
1488.92	37.2394
1490.48	35.4812
1492.05	33.464
1493.61	31.2027
1495.17	29.7589
1496.73	28.393
1498.29	26.6896
1499.85	26.0078
1501.41	24.5274
1502.97	23.4582
1504.53	23.1069
1506.09	22.4262
1507.65	22.3116
1509.2	23.0826
1510.76	23.3304
1512.32	23.3045
1513.88	24.1202
1515.44	24.4877
1516.99	25.2653
1518.55	25.4553
1520.1	25.4387
1521.66	26.8391
1523.22	27.448
1524.77	28.9965
1526.33	30.4383
1527.88	32.0997
1529.44	32.7864
1530.99	34.4672
1532.55	35.0681
1534.1	34.9645
1535.65	36.2908
1537.21	37.7565
1538.76	40.2868
1540.31	42.5446
1541.86	44.2268
1543.42	47.2261
1544.97	49.3786
1546.52	51.8119
1548.07	53.575
1549.62	55.464
1551.17	56.9811
1552.72	58.3366
1554.27	60.8129
1555.82	62.4987
1557.37	63.5088
1558.92	64.9044
1560.47	66.2554
1562.02	67.0122
1563.57	69.5157
1565.11	72.0273
1566.66	74.4704
1568.21	75.7332
1569.75	77.5457
1571.3	79.6325
1572.85	81.1435
1574.39	83.4033
1575.94	84.281
1577.49	85.3614
1579.03	86.6694
1580.58	88.1926
1582.12	88.9571
1583.67	89.0862
1585.21	89.8874
1586.75	91.0902
1588.3	91.9777
1589.84	91.9733
1591.38	92.1594
1592.93	91.9131
1594.47	91.6968
1596.01	91.3247
1597.55	90.4282
1599.09	90.2743
1600.63	89.7768
1602.18	88.7974
1603.72	87.9971
1605.26	86.9129
1606.8	85.7044
1608.34	85.4558
1609.87	84.7594
1611.41	84.8898
1612.95	85.7624
1614.49	85.7038
1616.03	86.3978
1617.57	86.3785
1619.11	87.1376
1620.64	88.1678
1622.18	88.9548
1623.72	89.5149
1625.25	91.3461
1626.79	92.6411
1628.32	93.2321
1629.86	94.3176
1631.4	95.5432
1632.93	95.8885
1634.47	97.4692
1636	99.5169
1637.53	101.119
1639.07	102.482
1640.6	104.527
1642.14	106.378
1643.67	107.017
1645.2	107.82
1646.73	109.089
1648.27	110.05
1649.8	110.251
1651.33	110.631
1652.86	110.578
1654.39	110.755
1655.92	110.635
1657.45	110.095
1658.98	109.169
1660.51	108.635
1662.04	108.039
1663.57	107.114
1665.1	104.378
1666.63	102.437
1668.16	100.84
1669.69	99.135
1671.21	95.5791
1672.74	92.7312
1674.27	89.3934
1675.79	86.7387
1677.32	82.1623
1678.85	77.6904
1680.37	74.9015
1681.9	70.6852
1683.42	66.1611
1684.95	63.2806
1686.47	60.5245
1688	57.5244
1689.52	54.4422
1691.05	51.2109
1692.57	49.3344
1694.1	47.1236
1695.62	45.3942
1697.14	43.4764
1698.66	41.1605
1700.19	38.7556
1701.71	36.7775
1703.23	34.5374
1704.75	32.187
1706.27	30.2572
1707.79	28.4397
1709.32	27.2604
1710.83	26.3084
1712.35	25.0432
1713.88	23.4293
1715.39	22.4734
1716.91	21.689
1718.43	20.5247
1719.95	18.9598
1721.47	18.6815
1722.99	18.6208
1724.5	18.2517
1726.02	16.9886
1727.54	16.9825
1729.06	16.8051
1730.57	16.2926
1732.09	16.4205
1733.61	16.1659
1735.12	16.1613
1736.64	15.5801
1738.15	14.9915
1739.67	14.4886
1741.18	13.5908
1742.7	13.4997
1744.21	12.8575
1745.72	12.3741
1747.24	10.816
1748.75	10.6667
1750.26	9.25016
1751.78	8.41751
1753.29	7.50529
1754.8	7.55405
1756.31	7.82196
1757.82	6.87267
1759.34	6.86917
1760.85	7.67546
1762.36	7.75125
1763.87	7.21078
1765.38	6.94271
1766.89	7.3353
1768.4	7.18641
1769.91	6.80528
1771.41	6.28299
1772.92	6.1564
1774.43	5.9374
1775.94	5.96875
1777.45	5.7368
1778.96	5.45455
1780.46	4.66432
1781.97	5.02396
1783.48	5.06406
1784.98	4.61866
1786.49	5.05141
1788	4.76203
1789.5	4.98129
1791.01	5.00545
1792.51	4.55825
1794.01	4.0595
1795.52	4.22756
1797.02	4.76263
1798.53	4.90229
1800.03	5.02961
1801.54	5.11527
1803.04	5.25875
1804.54	4.95649
1806.04	5.17011
1807.54	4.79511
1809.05	4.34829
1810.55	3.91561
1812.05	3.25269
1813.55	3.0485
1815.05	3.21266
1816.55	3.71187
1818.05	3.7153
1819.55	4.12886
1821.05	3.53751
1822.55	2.37376
1824.05	2.44351
1825.55	2.18012
1827.05	2.08795
1828.55	2.10211
1830.04	2.1832
1831.54	1.99188
1833.04	2.227
1834.54	2.47008
1836.03	2.33469
1837.53	2.56915
1839.03	2.14798
1840.52	2.33313
1842.02	2.5237
1843.51	2.06211
1845.01	2.04785
1846.5	1.90414
1848	1.95585
1849.49	1.60881
1850.99	1.21675
1852.48	1.23299
1853.97	1.52168
1855.47	0.915738
1856.96	0.61273
1858.45	0.476818
1859.94	0.86591
1861.44	1.51177
1862.93	1.07646
1864.42	1.17063
1865.91	0.427311
1867.4	0.458134
1868.89	0.717352
1870.38	1.4716
1871.87	1.32735
1873.36	1.51545
1874.85	1.45169
1876.34	1.38838
1877.83	1.09647
1879.32	0.800378
1880.81	0.907709
1882.3	0.46272
1882.56	0.895787
1884.06	1.17732
1885.55	0.603086
1887.04	1.52607
1888.54	2.35321
1890.03	2.33883
1891.52	2.14966
1893.02	1.93844
1894.51	2.32385
1896	3.26739
1897.49	3.71018
1898.99	3.76849
1900.48	3.7892
1901.97	5.04857
1903.46	5.47147
1904.95	5.88367
1906.44	6.55583
1907.93	6.91465
1909.42	7.17907
1910.91	7.24254
1912.4	6.83754
1913.89	6.98669
1915.38	6.76558
1916.86	6.68335
1918.35	6.49254
1919.84	6.25803
1921.33	6.03117
1922.82	6.12478
1924.3	5.62349
1925.79	5.54401
1927.28	5.43382
1928.76	4.52939
1930.25	5.01239
1931.74	6.12625
1933.22	6.16184
1934.71	5.46811
1936.19	5.19874
1937.67	5.32084
1939.16	5.562
1940.64	5.77922
1942.13	5.72078
1943.61	5.31207
1945.09	4.80697
1946.58	5.36713
1948.06	5.83069
1949.54	5.55491
1951.03	4.93117
1952.51	5.16013
1953.99	4.6701
1955.47	4.63806
1956.95	5.53109
1958.43	5.37928
1959.91	5.22594
1961.39	5.67096
1962.87	5.346
1964.35	5.30782
1965.83	5.23977
1967.31	5.04907
1968.79	5.56991
1970.27	5.02451
1971.75	4.31134
1973.22	4.09805
1974.7	3.91336
1976.18	3.73522
1977.66	2.73437
1979.13	2.74103
1980.61	2.48471
1982.09	1.999
1983.56	1.0456
1985.04	0.809989
1986.52	0.339459
1987.99	0.22888
1989.47	0.0597599
1990.94	-0.355692
1992.41	-0.336593
1993.89	-0.335882
1995.36	-0.697407
1996.84	-0.836907
1998.31	-1.06118
1999.78	-0.760105
2001.26	-1.09233
2002.73	-0.677835
2004.2	-0.483616
2005.67	-0.110285
2007.15	-0.644136
2008.62	-0.385094
2010.09	0.595951
2011.56	0.750666
2013.03	1.91625
2014.5	1.96367
2015.97	1.83388
2017.44	1.83745
2018.91	2.34325
2020.38	2.90102
2021.85	3.3462
2023.32	2.5445
2024.79	2.83704
2026.25	3.64641
2027.72	3.29668
2029.19	3.73889
2030.66	4.34535
2032.13	4.15801
2033.59	4.7063
2035.06	4.84366
2036.53	5.97498
2037.99	6.09781
2039.46	6.72157
2040.92	7.48151
2042.39	7.9168
2043.85	8.33516
2045.32	8.69066
2046.78	9.43703
2048.25	10.221
2049.71	10.6014
2051.18	11.303
2052.64	12.1367
2054.1	12.3846
2055.56	12.7401
2057.03	13.2658
2058.49	14.5239
2059.95	14.7982
2061.42	15.358
2062.88	16.5676
2064.34	16.9247
2065.8	17.8597
2067.26	18.5188
2068.72	18.4897
2070.18	19.5895
2071.64	21.3076
2073.1	22.3344
2074.56	23.3539
2076.02	24.5341
2077.48	25.5956
2078.94	27.0601
2080.39	28.0329
2081.85	29.4901
2083.31	31.1208
2084.77	32.0411
2086.22	33.163
2087.68	33.7735
2089.14	34.6899
2090.6	36.0518
2092.05	37.9925
2093.51	39.3817
2094.96	40.7293
2096.42	41.722
2097.87	43.4871
2099.33	44.7802
2100.78	46.5009
2102.24	48.708
2103.69	51.1777
2105.15	53.4885
2106.6	56.3894
2108.05	58.3015
2109.51	60.5458
2110.96	62.4854
2112.41	65.0021
2113.86	66.8786
2115.32	69.0063
2116.77	71.377
2118.22	73.6749
2119.67	76.1593
2121.12	78.1539
2122.57	80.4632
2124.02	83.264
2125.47	85.939
2126.92	88.9339
2128.37	92.0743
2129.82	95.277
2131.27	98.4136
2132.72	101.361
2134.17	104.4
2135.62	107.277
2137.06	110.033
2138.51	113.277
2139.96	116.274
2141.41	119.48
2142.85	123.413
2144.3	126.702
2145.75	128.428
2147.19	130.959
2148.64	133.348
2150.09	136.24
2151.53	137.653
2152.97	140.514
2154.42	143.008
2155.86	144.471
2157.31	145.441
2158.75	146.731
2160.2	148.342
2161.64	149.328
2163.08	150.242
2164.53	151.001
2165.97	151.113
2167.41	151.401
2168.86	151.836
2170.3	152.082
2171.74	152.246
2173.18	152.18
2174.62	150.956
2176.06	149.624
2177.5	148.538
2178.94	147.633
2180.38	145.748
2181.82	143.784
2183.26	141.776
2184.7	140.272
2186.14	138.543
2187.58	137.257
2189.02	135.083
2190.46	132.779
2191.89	130.038
2193.33	128.402
2194.77	126.783
2196.21	124.668
2197.64	123.076
2199.08	120.549
2200.52	118.019
2201.95	115.282
2203.39	112.826
2204.83	110.123
2206.26	107.116
2207.7	104.452
2209.13	101.73
2210.57	98.4781
2212	95.5687
2213.43	93.1509
2214.87	90.1507
2216.3	87.3566
2217.73	84.3212
2219.17	81.8948
2220.6	79.1812
2222.03	76.8794
2223.47	74.0535
2224.9	72.4357
2226.33	69.599
2227.76	67.3979
2229.19	65.2235
2230.62	63.0984
2232.05	60.9183
2233.49	58.8857
2234.91	56.3205
2236.34	54.5784
2237.77	52.7819
2239.2	50.6125
2240.63	48.9397
2242.06	47.1257
2243.49	45.7257
2244.92	43.473
2246.35	41.7779
2247.78	41.1421
2249.2	40.5264
2250.63	39.5128
2252.06	38.4562
2253.48	37.6717
2254.91	37.1189
2256.34	36.8916
2257.76	36.0422
2259.19	35.5568
2260.61	34.0157
2262.04	33.5965
2263.46	33.6546
2264.89	33.9298
2266.31	33.2339
2267.74	32.4566
2269.16	31.9702
2270.59	30.6229
2272.01	30.4836
2273.43	30.0368
2274.85	29.4596
2276.28	28.6095
2277.7	28.0528
2279.12	27.6406
2280.54	26.6203
2281.97	26.0197
2283.39	25.276
2284.81	24.8954
2286.23	25.5532
2287.65	24.5077
2289.07	22.1884
2290.49	21.4869
2291.91	20.1367
2293.33	19.3909
2294.75	18.2815
2296.17	18.3702
2297.59	17.334
2299.01	17.1187
2300.42	15.625
2301.84	14.9617
2303.26	14.9213
2304.68	14.4952
2306.1	14.0092
2307.51	13.7789
2308.93	12.9813
2310.35	12.4057
2311.76	12.8717
2313.18	12.5989
2314.59	12.7141
2316.01	12.2781
2317.43	11.8902
2318.84	11.5011
2320.26	11.4458
2321.67	10.865
2323.08	10.5654
2324.5	9.88626
2325.91	9.57737
2327.33	9.00818
2328.74	8.6004
2330.15	8.859
2331.56	8.53016
2332.98	8.29652
2334.39	8.30126
2335.8	7.94828
2337.21	7.37511
2338.62	7.35499
2340.04	7.54916
2341.45	7.70182
2342.86	7.7003
2344.27	6.93255
2345.68	6.52068
2347.09	6.07717
2348.5	5.80888
2349.91	5.38964
2351.31	4.51488
2352.72	4.02522
2354.13	3.40731
2355.54	3.85609
2356.95	3.83786
2358.36	2.30188
2359.76	2.26284
2361.17	3.4172
2362.58	3.62174
2363.98	4.4495
2365.39	5.23752
2366.8	6.1387
2368.21	5.44432
2369.61	6.09789
2371.02	5.63019
2372.42	5.72842
2373.83	6.25964
2375.23	6.301
2376.64	6.03863
2378.04	6.26624
2379.44	6.5077
2380.85	7.08201
2382.25	7.34002
2383.66	7.10888
2385.06	7.20684
2386.46	6.78171
2387.86	6.61824
2389.26	6.82639
2390.67	7.10809
2392.07	6.63663
2393.47	6.90738
2394.87	6.75301
2396.27	6.80584
2397.67	6.46701
2399.07	6.78702
2400.47	7.44243
2401.87	7.1935
2403.27	6.99618
2404.67	7.83805
2406.07	8.35353
2407.47	8.58803
2408.87	9.29575
2410.27	9.84147
2411.67	9.81801
2413.07	9.35774
2414.46	8.79255
2415.86	9.32089
2417.26	9.3955
2418.66	9.55437
2420.05	9.70473
2421.45	9.85457
2422.84	10.5556
2424.24	10.6185
2425.64	10.9313
2427.03	10.9435
2428.43	11.0798
2429.82	11.5431
2431.22	11.5762
2432.61	11.2464
2434.01	10.8645
2435.4	10.3291
2436.79	9.68972
2438.19	9.23288
2439.58	9.1384
2440.97	9.08607
2442.37	8.8081
2443.76	9.10535
2445.15	8.92794
2446.54	8.64356
2447.93	8.68408
2449.33	8.38528
2450.72	8.01636
2452.11	7.77928
2453.5	7.34343
2454.89	7.10838
2456.28	7.29533
2457.67	7.455
2459.06	7.01608
2460.45	6.86356
2461.84	6.57586
2463.23	6.1658
2464.62	5.65167
2466	5.58581
2467.39	5.76086
2468.78	5.60933
2470.17	5.81765
2471.55	5.39402
2472.94	5.4769
2474.33	5.65173
2475.72	5.62413
2477.1	5.43063
2478.49	5.3843
2479.87	4.89224
2481.26	4.27394
2482.65	3.74346
2484.03	3.30144
2485.42	3.6967
2486.8	3.0224
2488.19	2.42052
2489.57	2.85349
2490.95	3.1851
2492.34	3.07046
2493.72	2.07079
2495.1	2.15295
2496.49	2.59833
2497.87	2.15804
2499.25	1.98162
2500.63	1.67407
2502.02	0.630535
2503.4	0.485855
2504.78	0.15174
2506.16	0.333626
2507.54	0.480031
2508.92	0.394898
2510.3	0.297572
2511.68	0.00209265
2513.06	0.421782
2514.44	0.674008
2515.82	1.071
2517.2	0.792984
2518.58	1.24002
2519.96	1.64175
2521.34	1.94239
2522.72	1.85263
2524.1	2.22732
2525.47	2.32373
2526.85	2.55166
2528.23	2.03545
2529.6	2.1591
2530.98	2.3508
2532.36	2.69051
2533.74	2.77993
2535.11	3.09609
2536.49	3.43077
2537.86	3.8924
2539.24	4.73475
2540.61	5.0792
2541.99	5.00025
2543.36	5.11518
2544.74	5.23235
2546.11	5.3946
2547.49	5.41274
2548.86	5.83239
2550.23	6.36508
2551.61	6.27939
2552.98	5.9042
2554.35	6.2289
2555.72	6.22222
2557.09	6.07326
2558.47	6.64996
2559.84	6.41808
2561.21	5.91695
2562.58	5.73906
2563.95	5.50616
2565.32	4.99799
2566.69	3.98535
2568.06	3.56954
2569.43	2.82928
2570.8	1.92017
2572.17	2.26158
2573.54	1.78907
2574.91	1.74437
2576.28	1.68738
2577.65	1.32321
2579.02	0.986183
2580.39	0.986494
2581.75	0.753285
2583.12	0.743475
2584.49	0.431675
2585.85	0.264677
2587.22	0.803866
2588.59	1.11899
2589.95	1.5938
2591.32	1.53382
2592.68	1.7448
2594.05	2.23529
2595.42	2.80156
2596.78	2.12948
2598.15	2.47216
2599.51	2.65762
2600.88	2.88609
2602.24	3.18336
2603.6	3.40119
2604.97	3.71196
2606.33	5.07922
2607.69	4.92425
2609.06	4.78747
2610.42	4.91976
2611.78	4.93775
2613.14	5.0274
2614.51	5.59152
2615.87	6.15976
2617.23	6.49001
2618.59	6.02196
2619.95	5.27701
2621.31	4.88131
2622.67	4.79115
2624.03	4.25808
2625.39	3.91334
2626.75	3.95765
2628.11	3.83254
2629.47	3.87764
2630.83	3.45911
2632.19	2.83868
2633.55	2.43542
2634.91	2.60731
2636.26	2.4948
2637.62	2.85296
2638.98	2.66751
2640.34	2.54727
2641.69	2.18161
2643.05	1.96215
2644.41	1.7069
2645.76	1.90754
2647.12	2.19622
2648.48	2.17245
2649.83	2.43653
2651.19	3.04417
2652.54	3.39816
2653.9	3.69851
2655.25	3.59582
2656.6	3.63579
2657.96	3.48387
2659.31	3.44324
2660.67	3.45496
2662.02	3.49433
2663.37	3.39479
2664.73	3.69565
2666.08	4.49415
2667.43	4.71248
2668.78	5.08276
2670.14	5.4292
2671.49	5.44277
2672.84	6.30183
2674.19	6.50223
2675.54	5.61283
2676.89	5.63731
2678.24	5.14841
2679.59	5.01495
2680.94	5.60837
2682.29	6.2237
2683.64	6.01833
2684.99	5.81956
2686.34	5.48087
2687.69	5.1891
2689.04	5.50866
2690.39	5.20867
2691.74	5.5205
2693.08	5.99904
2694.43	6.6713
2695.78	6.93633
2697.13	7.18306
2698.47	6.77455
2699.82	7.04704
2701.17	6.99938
2702.51	7.4785
2703.86	7.45978
2705.21	7.8008
2706.55	7.14778
2707.9	6.71007
2709.24	6.89231
2710.58	7.32007
2711.93	8.34665
2713.27	8.70632
2714.62	8.3722
2715.96	8.17831
2717.3	8.31928
2718.65	8.71483
2719.99	8.57736
2721.33	8.30955
2722.68	8.59107
2724.02	8.90802
2725.36	9.62995
2726.71	9.7877
2728.05	9.68801
2729.39	9.76958
2730.73	9.82344
2732.07	10.2579
2733.41	9.6823
2734.75	9.447
2736.09	9.1364
2737.43	8.54578
2738.77	8.37061
2740.11	8.59164
2741.45	8.28601
2742.79	8.47071
2744.13	8.67064
2745.47	8.67684
2746.81	9.13101
2748.14	9.47147
2749.48	9.27667
2750.82	8.52461
2752.16	8.37949
2753.49	8.08767
2754.83	7.41963
2756.17	7.20384
2757.5	6.45906
2758.84	6.81928
2760.18	6.6489
2761.51	6.64641
2762.85	5.34421
2764.18	5.44582
2765.52	4.96371
2766.85	4.57696
2768.19	3.96802
2769.52	3.72161
2770.86	3.51567
2772.19	3.08968
2773.52	2.71106
2774.86	2.38991
2776.19	2.76278
2777.52	2.55024
2778.86	2.18914
2780.19	1.53699
2781.52	0.880523
2782.85	0.751115
2784.19	0.80209
2785.52	0.81579
2786.85	0.811797
2788.18	0.462427
2789.51	0.418131
2790.84	0.753428
2792.17	0.886816
2793.5	0.450997
2794.83	0.295974
2796.16	-0.271078
2797.49	-0.215658
2798.82	0.397098
2800.15	-0.056364
2801.48	0.18797
2802.81	0.705142
2804.13	0.936323
2805.46	1.42783
2806.79	1.7512
2808.12	1.28784
2809.45	1.1381
2810.77	0.363648
2812.1	0.344184
2813.43	0.271735
2814.75	0.778559
2816.08	0.88813
2817.41	1.8396
2818.73	3.38128
2820.06	5.76877
2821.38	7.41856
2822.71	10.0353
2824.03	12.7976
2825.36	15.5024
2826.68	18.0762
2828	21.7422
2829.33	24.4566
2830.65	27.9694
2831.98	30.7218
2833.3	34.3098
2834.62	38.0759
2835.94	42.3978
2837.27	46.581
2838.59	50.617
2839.91	54.7804
2841.23	58.6494
2842.55	63.6534
2843.87	68.3933
2845.2	73.5811
2846.52	78.8255
2847.84	84.0777
2849.16	90.4419
2850.48	96.5017
2851.8	102.531
2853.12	108.836
2854.44	114.409
2855.76	120.429
2857.08	126.492
2858.39	131.517
2859.71	137.271
2861.03	142.415
2862.35	147.09
2863.67	152.211
2864.98	156.92
2866.3	161.118
2867.62	165.099
2868.94	168.425
2870.25	171.288
2871.57	174.097
2872.88	177.361
2874.2	179.641
2875.52	182.637
2876.83	186.007
2878.15	189.07
2879.46	191.638
2880.78	194.799
2882.09	198.357
2883.41	201.876
2884.72	205.404
2886.03	208.31
2887.35	210.58
2888.66	214.162
2889.97	217.092
2891.29	219.901
2892.6	223.384
2893.91	226.964
2895.22	229.507
2896.54	232.735
2897.85	236.447
2899.16	240.971
2900.47	245.609
2901.78	250.03
2903.09	254.643
2904.4	259.721
2905.71	266.018
2907.02	271.659
2908.33	278.002
2909.64	284.376
2910.95	291.58
2912.26	298.761
2913.57	306.028
2914.88	313.516
2916.19	320.189
2917.5	326.736
2918.81	332.37
2920.11	337.831
2921.42	342.308
2922.73	347.058
2924.04	351.315
2925.34	354.829
2926.65	357.368
2927.96	359.255
2929.26	361.484
2930.57	362.667
2931.87	363.72
2933.18	363.157
2934.49	362.061
2935.79	360.775
2937.1	358.081
2938.4	355.235
2939.7	351.534
2941.01	347.857
2942.31	343.442
2943.62	338.114
2944.92	333.084
2946.22	328.005
2947.53	322.344
2948.83	316.013
2950.13	309.147
2951.43	302.181
2952.74	295.712
2954.04	288.876
2955.34	280.868
2956.64	273.855
2957.94	266.052
2959.24	258.408
2960.54	251.148
2961.84	244.004
2963.15	237.339
2964.45	230.688
2965.75	223.836
2967.05	216.75
2968.34	210.686
2969.64	204.748
2970.94	198.43
2972.24	191.618
2973.54	185.826
2974.84	180.264
2976.14	174.301
2977.43	168.398
2978.73	162.751
2980.03	156.58
2981.33	150.399
2982.62	144.57
2983.92	137.876
2985.22	132.299
2986.51	125.822
2987.81	120.265
2989.11	114.488
2990.4	108.299
2991.7	102.816
2992.99	97.2044
2994.29	91.8575
2995.58	86.2969
2996.88	80.8052
2998.17	74.1329
2999.46	68.7477
3000.76	63.5735
3002.05	58.5502
3003.34	53.9939
3004.64	49.7026
3005.93	45.2328
3007.22	41.2772
3008.52	37.8646
3009.81	34.167
3011.1	30.9303
3012.39	27.6619
3013.68	24.427
3014.97	21.2085
3016.27	18.7031
3017.56	16.4176
3018.85	14.3572
3020.14	12.3154
3021.43	10.9937
3022.72	9.38817
3024.01	8.85422
3025.3	8.26618
3026.59	7.62145
3027.88	7.40842
3029.16	6.81699
3030.45	6.61267
3031.74	6.76346
3033.03	7.14739
3034.32	7.611
3035.6	7.76755
3036.89	8.6059
3038.18	9.11951
3039.47	9.91668
3040.75	11.1549
3042.04	12.2883
3043.33	13.2732
3044.61	13.9372
3045.9	14.7179
3047.18	15.5932
3048.47	15.862
3049.75	17.1181
3051.04	17.4628
3052.32	18.4962
3053.61	19.0997
3054.89	19.0931
3056.18	19.3569
3057.46	19.1506
3058.74	18.9587
3060.03	18.9251
3061.31	18.4182
3062.59	17.2491
3063.88	17.1277
3065.16	16.809
3066.44	15.9371
3067.72	14.9315
3069	14.2645
3070.29	13.4143
3071.57	12.1459
3072.85	11.0732
3074.13	10.0929
3075.41	9.13345
3076.69	8.06612
3077.97	6.56799
3079.25	6.05906
3080.53	5.45423
3081.81	4.6494
3083.09	3.90776
3084.37	3.00015
3085.65	2.47129
3086.93	1.67721
3088.21	0.879826
3089.49	0.648325
3090.76	0.577784
3092.04	0.496737
3093.32	-0.0299074
3094.6	-0.0301725
3095.87	0.537066
3097.15	0.523965
3098.43	0.861244
3099.7	1.29821
3100.98	1.39854
3102.26	1.39659
3103.53	2.23952
3104.81	3.31211
3106.08	3.37908
3107.36	4.01648
3108.63	4.53326
3109.91	4.87439
3111.18	5.61344
3112.46	6.28828
3113.73	7.1785
3115	7.58829
3116.28	8.06106
3117.55	8.28076
3118.83	8.74761
3120.1	9.65648
3121.37	10.1817
3122.64	10.825
3123.92	11.5224
3125.19	11.7848
3126.46	12.2698
3127.73	13.5625
3129	14.408
3130.27	14.5453
3131.55	15.4395
3132.82	16.3131
3134.09	16.6869
3135.36	17.2413
3136.63	18.7437
3137.9	19.8767
3139.17	20.5696
3140.44	21.4042
3141.71	22.3809
3142.98	23.6171
3144.24	24.6451
3145.51	25.8646
3146.78	27.0727
3148.05	28.607
3149.32	30.8495
