#Acq. time (s)=	45
#Accumulations=	2
#Range (cm-¹)=	200...3150
#Windows=	2
#Auto scanning=	Off
#Autofocus=	Off
#Macrospot=	Off
#AutoExposure=	Off
#Spike filter=	Multiple accum.
#Delay time (s)=	0
#Binning=	1
#Readout mode=	Signal
#DeNoise=	Off
#ICS correction=	On
#Dark correction=	Off
#Inst. Process=	Off
#Detector Gain=	Best Dynamic Range
#Detector ADC=	20 kHz       
#Detector temperature (°C)=	-69.85
#Instrument=	LabRAM HR Evol
#Detector=	Synapse
#Objective=	x100
#Grating=	600 gr/mm
#ND Filter=	100%
#Laser (nm)=	532 
#Hole=	100.021
#Range=	Auto
#Laser Pol.=	No
#Raman. Pol.=	No
#Laser Pol. (°)=	-0.0007625
#Raman Pol. (°)=	89.9995
#Collection=	Microscope
#StageXY=	Marzhauser
#StageZ=	Marzhauser
#X (µm)=	-5910.8
#Y (µm)=	2845.8
#Z (µm)=	-223.8
#Full time(mm:ss)=	3:19
#Project=	
#Sample=	
#Site=	
#Title=	Thy_20_09_44_2x_45s_532 nm_x100_100%_600 gr_mm
#Remark=	
#Date=	29.06.2022 13:45
#Acquired=	29.06.2022 13:45:21
#Base:Fit=	10.08.2022 09:52:02
#Base:Fit=	10.08.2022 09:52:12
#Base:Sub=	10.08.2022 09:54:21
#Filter:Polynom=	16.08.2022 10:24:04
#AxisType[0]=Intens
#AxisUnit[0]=Cnt
#AxisType[1]=Spectr
#AxisUnit[1]=1/cm
200.523	-2.11592
202.339	-0.0914604
204.154	0.739937
205.967	0.68504
207.781	1.33346
209.596	2.52246
211.409	3.69132
213.222	4.49381
215.034	4.62088
216.848	6.01074
218.659	5.82274
220.47	6.40721
222.281	5.71833
224.091	5.38568
225.903	6.96561
227.713	7.14801
229.522	7.8588
231.331	9.99683
233.14	10.0978
234.948	9.81065
236.756	9.73241
238.566	9.52912
240.373	9.88875
242.18	8.86475
243.986	8.56072
245.792	8.78389
247.598	9.31045
249.403	9.29897
251.208	9.62588
253.013	10.2266
254.818	10.0507
256.624	9.66172
258.427	8.83074
260.231	8.32387
262.034	7.75172
263.836	7.6173
265.638	7.11937
267.44	6.21011
269.242	6.29177
271.043	6.32788
272.844	6.81109
274.645	7.49477
276.445	7.34525
278.245	7.65078
280.044	7.88224
281.843	7.91345
283.642	8.11343
285.44	7.80537
287.238	9.03597
289.036	9.15823
290.833	9.32721
292.63	9.47633
294.425	11.099
296.221	12.7986
298.017	13.8128
299.813	13.4159
301.608	12.593
303.403	13.7056
305.198	14.93
306.992	15.66
308.786	15.4245
310.579	16.468
312.371	17.1418
314.163	18.9986
315.956	19.5212
317.748	19.6228
319.54	20.7933
321.331	21.7644
323.122	20.6952
324.911	20.7926
326.701	21.1285
328.491	21.3759
330.281	21.8764
332.071	21.2311
333.857	21.8838
335.646	22.7138
337.434	22.3077
339.222	21.4163
341.008	21.9168
342.795	21.4334
344.582	20.0773
346.369	19.009
348.153	17.2444
349.939	17.8998
351.724	16.7077
353.51	16.2955
355.292	15.8461
357.077	14.6543
358.861	15.4426
360.643	15.6487
362.426	15.6732
364.21	15.3149
365.99	14.7598
367.773	15.1772
369.555	14.5168
371.335	14.0184
373.116	14.4127
374.897	14.6769
376.676	15.6957
378.456	15.6506
380.236	15.8081
382.014	15.262
383.793	15.139
385.57	15.2424
387.349	14.5201
389.127	14.1143
390.903	13.9915
392.681	14.256
394.456	12.6282
396.233	11.4983
398.007	11.7733
399.784	11.6274
401.56	11.4581
403.333	10.5688
405.108	10.0343
406.881	10.4204
408.656	10.634
410.428	10.3608
412.202	9.71343
413.973	9.78097
415.746	9.66329
417.517	8.81918
419.29	8.7008
421.06	7.93778
422.831	8.22011
424.601	8.68513
426.37	7.968
428.141	8.44597
429.909	8.48401
431.679	7.9652
433.447	8.01597
435.216	7.98972
436.983	8.0233
438.75	8.52605
440.519	8.73991
442.285	9.90718
444.052	10.2908
445.818	10.6986
447.583	12.2476
449.349	13.2111
451.114	14.0362
452.878	14.4744
454.643	15.3955
456.407	15.7838
458.169	15.9922
459.934	17.122
461.696	18.6247
463.458	19.3669
465.222	20.3659
466.983	20.3892
468.744	19.6671
470.507	20.1303
472.267	20.9366
474.027	20.9575
475.787	21.3022
477.548	21.6778
479.307	21.6899
481.065	21.7584
482.823	21.7578
484.583	22.5876
486.341	23.306
488.098	23.5192
489.855	24.0696
491.612	23.6859
493.37	24.8303
495.126	25.179
496.881	25.3138
498.636	25.7969
500.391	26.4478
502.148	27.5031
503.902	28.0902
505.656	28.7063
507.409	30.0242
509.162	30.2831
510.915	30.7023
512.668	30.6937
514.42	30.2016
516.174	30.2271
517.925	29.9623
519.676	29.7959
521.427	29.0014
523.178	28.3055
524.928	28.4976
526.678	29.3407
528.427	29.4151
530.176	28.9561
531.925	27.748
533.673	27.2897
535.422	27.7107
537.169	27.5949
538.917	26.8578
540.664	25.9166
542.411	25.6507
544.157	25.9302
545.903	25.9666
547.649	25.5928
549.395	25.5204
551.14	25.1945
552.884	24.034
554.629	22.4701
556.373	21.5898
558.117	20.8116
559.86	18.9926
561.603	18.1063
563.346	18.2995
565.089	17.3864
566.831	16.4104
568.573	15.4825
570.314	14.7143
572.053	14.3081
573.794	13.5033
575.534	12.3532
577.274	12.0884
579.014	11.1351
580.754	10.9632
582.493	10.1303
584.23	9.90798
585.968	10.7223
587.706	10.2829
589.444	10.8368
591.181	10.6441
592.919	10.34
594.653	9.78581
596.39	8.91226
598.126	8.4455
599.862	8.5765
601.595	9.03672
603.33	10.2047
605.065	11.2353
606.8	11.3522
608.532	12.087
610.266	12.8752
611.999	13.263
613.732	14.448
615.463	15.0144
617.196	15.7146
618.928	16.9139
620.66	18.3329
622.389	18.9517
624.12	19.7063
625.851	19.8658
627.58	20.0612
629.31	21.6819
631.04	22.9144
632.767	23.496
634.497	23.1749
636.223	23.1667
637.952	23.6579
639.68	22.7053
641.406	23.5671
643.134	24.9438
644.861	25.6076
646.586	26.9107
648.312	28.0604
650.037	28.968
651.762	29.9843
653.486	30.1734
655.211	31.5706
656.936	31.1407
658.659	31.7988
660.383	32.0133
662.105	32.4395
663.829	32.7113
665.55	33.2896
667.273	33.2763
668.994	33.7332
670.716	34.6751
672.436	35.398
674.158	35.5859
675.877	36.4833
677.598	36.6027
679.317	36.9286
681.035	36.7286
682.755	36.6974
684.473	37.9626
686.192	38.9219
687.909	39.7503
689.628	39.1274
691.344	39.5266
693.06	40.073
694.778	40.4987
696.493	41.0525
698.211	41.5472
699.925	43.1295
701.64	43.2689
703.356	43.6677
705.07	44.2356
706.783	44.4035
708.498	45.0362
710.211	46.1915
711.924	46.2196
713.638	47.4802
715.35	48.8818
717.061	48.2216
718.774	47.7787
720.485	47.6733
722.196	48.5427
723.906	49.8849
725.618	50.6789
727.328	52.9337
729.037	54.7902
730.746	55.8973
732.456	56.3822
734.165	56.9373
735.873	58.3174
737.58	58.4977
739.289	58.5685
740.997	59.4675
742.703	59.2446
744.41	61.3108
746.116	62.3573
747.823	63.3611
749.529	64.5009
751.234	65.5206
752.938	65.4602
754.643	66.7393
756.347	68.567
758.051	69.6371
759.756	70.3431
761.459	70.9519
763.162	71.9698
764.865	72.999
766.567	73.5027
768.269	75.3944
769.97	75.9855
771.671	76.8637
773.372	77.4142
775.073	78.8151
776.773	80.8983
778.473	82.4802
780.174	83.3375
781.874	84.5697
783.573	85.6851
785.271	87.3899
786.97	88.5549
788.668	89.3052
790.365	90.0481
792.063	91.8509
793.76	91.8445
795.456	92.2523
797.153	91.9557
798.847	91.6194
800.543	91.424
802.238	90.501
803.933	90.7904
805.628	90.6744
807.322	90.9032
809.017	90.9577
810.71	90.7476
812.404	90.8366
814.097	90.1022
815.79	89.0839
817.483	88.0913
819.173	87.9194
820.865	87.8114
822.556	86.611
824.248	85.5778
825.939	85.1334
827.629	84.1526
829.318	83.1572
831.008	81.6514
832.697	79.6304
834.387	78.3581
836.076	76.8992
837.765	76.5513
839.451	75.6239
841.139	74.9693
842.827	73.502
844.514	72.5912
846.2	71.6818
847.886	71.2117
849.573	69.5896
851.259	67.7609
852.943	66.657
854.629	64.8157
856.314	64.7963
857.997	63.7623
859.682	63.746
861.366	63.3076
863.05	62.0488
864.732	62.0103
866.415	61.037
868.098	60.9336
869.779	60.7396
871.461	59.9112
873.141	59.9867
874.823	60.602
876.505	60.141
878.184	58.873
879.865	58.5815
881.545	57.0048
883.223	56.5778
884.903	56.1542
886.581	54.9677
888.26	54.4728
889.937	53.8825
891.616	54.7382
893.294	54.3669
894.97	54.6996
896.648	54.5886
898.323	54.4597
900	54.6428
901.675	53.9074
903.351	52.9628
905.026	52.2993
906.701	50.8137
908.375	50.8493
910.05	50.0927
911.723	48.7709
913.398	49.1922
915.07	49.372
916.742	47.9553
918.415	48.3417
920.087	48.9279
921.76	48.9122
923.43	48.2476
925.103	48.1845
926.773	47.7299
928.443	47.5498
930.114	47.0236
931.783	46.1848
933.454	45.0225
935.123	45.1709
936.791	45.0698
938.461	44.46
940.128	43.7873
941.796	43.4137
943.464	43.3286
945.131	42.4188
946.797	41.4812
948.465	43.4667
950.131	42.6451
951.797	43.1171
953.462	42.4534
955.128	42.4471
956.793	42.266
958.457	41.1047
960.121	39.0265
961.786	38.0382
963.45	37.6373
965.113	37.7654
966.775	38.5863
968.44	38.2467
970.102	38.5267
971.763	38.8876
973.425	38.835
975.086	39.3202
976.748	39.747
978.409	40.07
980.069	39.7345
981.729	40.8004
983.388	40.4503
985.048	39.7448
986.708	40.3382
988.367	40.2654
990.025	39.911
991.683	39.4753
993.341	38.2465
994.998	37.363
996.655	37.8605
998.312	36.2384
999.969	35.579
1001.62	36.0668
1003.28	35.387
1004.94	34.8987
1006.59	35.0991
1008.25	36.1112
1009.9	36.4714
1011.56	36.0665
1013.21	35.5959
1014.86	34.0658
1016.52	33.0577
1018.17	32.9556
1019.82	31.4744
1021.48	30.6754
1023.13	30.1872
1024.78	30.4429
1026.43	29.4038
1028.08	29.2349
1029.73	29.1625
1031.38	29.1828
1033.03	28.2447
1034.68	27.6065
1036.33	26.3965
1037.98	25.4417
1039.63	23.7742
1041.28	23.2865
1042.93	23.0124
1044.57	22.9914
1046.22	23.9765
1047.87	24.1974
1049.52	24.2322
1051.16	23.6717
1052.81	23.7755
1054.45	24.4388
1056.1	24.0636
1057.75	24.2763
1059.39	24.4942
1061.04	24.6391
1062.68	25.1064
1064.32	25.7417
1065.97	24.8968
1067.61	24.4463
1069.25	24.2236
1070.9	22.3601
1072.54	22.4116
1074.18	21.6872
1075.82	21.0774
1077.47	20.4642
1079.11	20.767
1080.75	19.7746
1082.39	19.7844
1084.03	19.491
1085.67	19.3409
1087.31	20.1848
1088.95	20.3822
1090.59	20.6491
1092.22	19.763
1093.86	19.231
1095.5	18.8067
1097.14	18.4271
1098.78	18.8434
1100.41	19.2356
1102.05	18.1849
1103.69	18.4484
1105.32	18.1248
1106.96	17.6579
1108.59	16.2161
1110.23	15.5746
1111.86	14.8435
1113.5	13.7158
1115.13	12.2617
1116.77	11.4163
1118.4	10.2002
1120.03	9.54589
1121.67	9.09874
1123.3	9.38538
1124.93	9.67372
1126.56	9.58757
1128.19	10.1551
1129.83	10.5207
1131.46	9.73927
1133.09	8.85386
1134.72	9.2272
1136.35	8.76234
1137.98	8.80392
1139.61	9.47891
1141.24	9.67254
1142.86	10.4243
1144.49	9.9889
1146.12	9.63824
1147.75	9.34794
1149.38	8.20594
1151	7.71615
1152.63	7.85052
1154.26	8.61232
1155.88	9.0585
1157.51	9.50036
1159.14	9.56986
1160.76	9.77201
1162.39	9.81965
1164.01	9.9016
1165.63	10.4877
1167.26	11.0436
1168.88	12.6958
1170.51	14.2087
1172.13	15.2619
1173.75	15.4012
1175.38	15.6109
1177	15.9635
1178.62	17.3498
1180.24	17.4813
1181.86	17.7556
1183.48	18.0134
1185.1	19.2311
1186.72	19.3389
1188.34	19.4057
1189.96	19.2418
1191.58	19.6639
1193.2	20.9547
1194.82	20.6081
1196.44	21.4196
1198.06	21.7529
1199.68	22.2306
1201.29	23.4532
1202.91	24.197
1204.53	25.9011
1206.14	26.5459
1207.76	26.8113
1209.38	27.3358
1210.99	28.7505
1212.61	29.2297
1214.22	30.2865
1215.84	32.2064
1217.45	33.3249
1219.07	35.3455
1220.68	36.0892
1222.29	36.9259
1223.91	38.3489
1225.52	38.4048
1227.13	38.6102
1228.74	39.9001
1230.36	40.9606
1231.97	42.5965
1233.58	44.5767
1235.19	45.6818
1236.8	46.7209
1238.41	46.9696
1240.02	47.0711
1241.63	48.4683
1243.24	49.0013
1244.85	50.022
1246.46	50.908
1248.07	51.8827
1249.67	53.8187
1251.28	54.3248
1252.89	54.5681
1254.5	54.2899
1256.1	55.5842
1257.71	57.165
1259.32	57.6305
1260.92	57.5354
1262.53	58.2153
1264.13	58.6735
1265.74	59.3317
1267.34	58.9652
1268.95	59.943
1270.55	60.6635
1272.15	60.9288
1273.76	62.0157
1275.36	61.7001
1276.97	62.8232
1278.57	63.783
1280.17	66.1676
1281.77	67.6729
1283.37	68.7875
1284.97	70.4739
1286.58	71.4805
1288.18	72.9961
1289.78	74.0104
1291.38	74.7071
1292.98	75.3791
1294.58	75.7118
1296.18	77.0645
1297.78	78.5405
1299.37	78.9214
1300.97	79.5216
1302.57	79.9464
1304.17	79.9218
1305.77	79.8301
1307.36	80.6167
1308.96	81.8933
1310.55	81.6454
1312.15	81.6135
1313.75	81.8397
1315.34	82.2261
1316.94	82.0189
1318.53	82.383
1320.13	82.7479
1321.72	83.112
1323.32	81.5911
1324.91	81.3854
1326.5	80.7387
1328.1	80.8767
1329.69	80.3406
1331.28	79.0562
1332.87	78.7031
1334.47	77.7082
1336.06	76.9117
1337.65	75.7414
1339.24	74.3183
1340.83	74.128
1342.42	74.0148
1344.01	72.7674
1345.6	72.3916
1347.19	71.9014
1348.78	71.7175
1350.37	69.703
1351.96	68.6758
1353.54	67.404
1355.13	65.6603
1356.72	65.9924
1358.31	64.935
1359.89	63.8707
1361.48	62.5971
1363.07	61.6511
1364.65	60.6954
1366.24	58.857
1367.82	57.9916
1369.41	57.2237
1370.99	56.716
1372.58	56.5803
1374.16	56.3044
1375.75	56.083
1377.33	55.6008
1378.91	54.8848
1380.5	54.8387
1382.08	54.1651
1383.66	53.4273
1385.25	53.1471
1386.83	52.8751
1388.41	52.8881
1389.99	52.1343
1391.57	52.0554
1393.15	51.3516
1394.73	51.3351
1396.31	51.1108
1397.89	50.7698
1399.47	50.7849
1401.05	49.1058
1402.63	48.3062
1404.21	49.2854
1405.78	48.8205
1407.36	48.5152
1408.94	48.5856
1410.52	49.2666
1412.1	50.6663
1413.67	50.7642
1415.25	51.8724
1416.82	53.7968
1418.4	54.9967
1419.98	56.2957
1421.55	57.2231
1423.13	57.5653
1424.7	59.2282
1426.28	61.3727
1427.85	62.4838
1429.42	63.3629
1431	65.0971
1432.57	66.1475
1434.14	68.998
1435.71	71.0208
1437.29	72.3183
1438.86	74.4525
1440.43	75.9028
1442	77.0698
1443.57	77.8862
1445.14	78.6365
1446.71	79.9815
1448.28	80.3252
1449.85	80.7678
1451.42	81.4655
1452.99	81.8054
1454.56	81.4692
1456.13	81.064
1457.7	80.4665
1459.26	79.5502
1460.83	78.139
1462.4	76.5461
1463.97	74.8246
1465.54	72.8769
1467.1	70.5973
1468.67	67.9372
1470.23	64.9137
1471.8	62.5677
1473.36	60.08
1474.93	57.4025
1476.49	53.5354
1478.06	50.9931
1479.62	47.211
1481.19	45.3406
1482.75	43.2408
1484.31	41.0101
1485.88	39.4071
1487.44	38.3293
1489	37.6005
1490.56	36.1136
1492.13	34.1959
1493.69	33.7666
1495.25	32.9715
1496.81	31.5516
1498.37	30.8482
1499.93	30.3818
1501.49	30.0998
1503.05	29.9159
1504.61	30.2751
1506.17	29.6685
1507.73	29.4979
1509.28	29.657
1510.84	29.9086
1512.4	30.0602
1513.96	30.4395
1515.52	31.4455
1517.07	31.8392
1518.63	31.1998
1520.19	32.5418
1521.74	33.8069
1523.3	33.9295
1524.85	35.1132
1526.41	36.7208
1527.96	37.6487
1529.52	38.2432
1531.07	38.6794
1532.63	38.7738
1534.18	39.5696
1535.73	40.664
1537.29	41.4071
1538.84	41.5425
1540.39	42.1643
1541.94	42.8182
1543.5	43.4801
1545.05	43.6856
1546.6	44.7961
1548.15	45.61
1549.7	47.0306
1551.25	48.4312
1552.8	49.8224
1554.35	50.8385
1555.9	51.9096
1557.45	52.8199
1559	54.3374
1560.55	56.2649
1562.1	58.2408
1563.65	59.9947
1565.19	61.6932
1566.74	62.4574
1568.29	62.9172
1569.83	64.7521
1571.38	66.914
1572.93	68.0324
1574.47	69.3412
1576.02	71.1175
1577.56	72.2169
1579.11	73.2705
1580.66	74.7246
1582.2	76.3681
1583.74	77.4272
1585.29	78.5912
1586.83	79.7885
1588.38	81.1234
1589.92	81.9209
1591.46	83.3132
1593.01	83.7308
1594.55	83.7075
1596.09	84.672
1597.63	86.1036
1599.17	85.2833
1600.71	84.4629
1602.25	84.5885
1603.79	83.5109
1605.34	82.2279
1606.88	81.8595
1608.41	81.5819
1609.95	80.1353
1611.49	79.0269
1613.03	77.9807
1614.57	77.283
1616.11	76.7031
1617.65	76.0318
1619.18	75.3414
1620.72	74.812
1622.26	74.6424
1623.79	74.4327
1625.33	73.6737
1626.87	73.2914
1628.4	72.6697
1629.94	71.5941
1631.48	70.8332
1633.01	70.3306
1634.55	71.2649
1636.08	71.326
1637.61	71.7473
1639.15	71.8587
1640.68	71.5874
1642.21	71.508
1643.75	71.6674
1645.28	72.479
1646.81	74.0611
1648.34	73.6729
1649.88	73.4502
1651.41	74.1605
1652.94	74.0421
1654.47	73.4546
1656	74.3393
1657.53	74.1888
1659.06	73.8058
1660.59	72.8587
1662.12	71.9239
1663.65	71.0013
1665.18	70.0476
1666.71	69.0938
1668.24	68.3374
1669.76	66.4764
1671.29	65.4339
1672.82	64.6503
1674.35	63.2322
1675.87	61.306
1677.4	59.3148
1678.93	57.0143
1680.45	54.7012
1681.98	52.983
1683.5	50.9147
1685.03	48.4867
1686.55	45.7548
1688.08	43.6354
1689.6	41.7174
1691.13	40.3128
1692.65	37.7396
1694.17	35.5958
1695.7	33.7836
1697.22	32.1557
1698.74	30.914
1700.27	29.4116
1701.79	28.2202
1703.31	27.3139
1704.83	25.8063
1706.35	25.1874
1707.87	24.1165
1709.39	23.1707
1710.91	22.2535
1712.43	21.1908
1713.95	20.5212
1715.47	19.9612
1716.99	18.5392
1718.51	17.7206
1720.03	17.426
1721.55	17.0294
1723.07	16.4433
1724.58	15.3321
1726.1	15.5192
1727.62	15.0763
1729.13	13.4472
1730.65	12.7208
1732.17	12.6897
1733.68	11.3003
1735.2	11.0209
1736.72	10.3396
1738.23	10.1455
1739.74	10.2977
1741.26	10.2331
1742.77	9.62755
1744.29	9.21124
1745.8	8.38314
1747.32	8.93472
1748.83	8.57299
1750.34	8.20312
1751.85	7.40437
1753.37	6.31188
1754.88	5.93785
1756.39	5.77586
1757.9	5.77821
1759.41	5.1586
1760.92	4.80173
1762.44	4.00119
1763.95	3.4251
1765.46	3.46553
1766.96	3.2501
1768.47	2.99841
1769.98	3.50625
1771.49	3.52389
1773	3.97773
1774.51	3.9975
1776.02	4.23201
1777.53	3.94615
1779.03	3.82159
1780.54	3.33131
1782.05	2.78606
1783.55	2.43602
1785.06	2.60561
1786.57	2.71768
1788.07	2.58021
1789.58	2.19591
1791.08	2.03029
1792.59	1.9226
1794.09	2.51766
1795.6	3.05639
1797.1	2.92224
1798.61	2.98504
1800.11	3.24291
1801.61	3.03382
1803.12	2.65321
1804.62	2.37553
1806.12	3.28299
1807.62	3.53893
1809.12	3.55391
1810.63	3.98778
1812.13	4.01092
1813.63	4.07865
1815.13	4.74897
1816.63	4.89308
1818.13	5.05252
1819.63	5.47816
1821.13	5.32758
1822.63	5.74617
1824.13	5.71603
1825.63	5.52188
1827.13	5.53126
1828.62	5.14191
1830.12	5.08745
1831.62	5.00647
1833.12	4.699
1834.61	4.01561
1836.11	3.47862
1837.61	2.96732
1839.1	3.005
1840.6	3.1954
1842.09	2.90765
1843.59	3.34362
1845.09	3.35141
1846.58	3.17776
1848.08	2.92207
1849.57	2.74552
1851.06	2.46271
1852.56	1.98086
1854.05	1.71471
1855.54	1.37333
1857.04	1.28162
1858.53	1.8521
1860.02	2.15483
1861.51	2.20318
1863.01	1.99791
1864.5	2.8018
1865.99	3.51362
1867.48	4.20439
1868.97	4.72938
1870.46	5.05796
1871.95	5.79551
1873.44	6.1591
1874.93	6.27745
1876.42	6.66845
1877.91	6.70154
1879.4	7.12599
1880.89	7.85662
1882.37	7.78082
1882.46	7.79002
1883.95	8.00761
1885.45	8.57047
1886.94	8.98668
1888.43	9.17035
1889.93	8.96923
1891.42	9.03708
1892.91	9.05944
1894.41	9.52712
1895.9	9.72386
1897.39	10.0001
1898.88	9.40374
1900.37	10.0899
1901.86	10.3345
1903.36	9.80707
1904.85	9.3224
1906.34	9.17285
1907.83	8.89706
1909.32	9.08471
1910.81	9.389
1912.29	9.58947
1913.78	9.25186
1915.27	9.0893
1916.76	9.02999
1918.25	8.66161
1919.74	7.91188
1921.23	7.86136
1922.71	7.67018
1924.2	7.53204
1925.69	7.62691
1927.17	7.40102
1928.66	7.26861
1930.15	7.20123
1931.63	7.03224
1933.12	7.00578
1934.6	6.81877
1936.09	6.38669
1937.57	7.25963
1939.06	7.37828
1940.54	7.49944
1942.02	7.6035
1943.51	7.37369
1944.99	7.25052
1946.47	6.95436
1947.96	6.41462
1949.44	6.25287
1950.92	4.66827
1952.4	4.79485
1953.88	4.23877
1955.37	3.30274
1956.85	3.01678
1958.33	2.93748
1959.81	2.55906
1961.29	2.41805
1962.77	2.61127
1964.25	3.43107
1965.73	3.54062
1967.21	3.10463
1968.69	3.14075
1970.16	3.39645
1971.64	3.70667
1973.12	3.17159
1974.6	3.3945
1976.08	2.99876
1977.55	2.43207
1979.03	2.80467
1980.51	3.10788
1981.98	3.04112
1983.46	3.67361
1984.94	4.23474
1986.41	3.90502
1987.89	3.37874
1989.36	3.17446
1990.84	3.17669
1992.31	3.05348
1993.79	3.04039
1995.26	3.63726
1996.73	3.69768
1998.21	4.19782
1999.68	3.72762
2001.15	3.17223
2002.63	2.80739
2004.1	2.74939
2005.57	2.67004
2007.04	3.33574
2008.51	3.38193
2009.99	4.25869
2011.46	4.621
2012.93	3.96289
2014.4	3.82265
2015.87	3.8492
2017.34	3.68019
2018.81	3.77184
2020.28	3.96038
2021.75	3.8822
2023.21	3.61215
2024.68	2.7367
2026.15	3.49963
2027.62	3.00712
2029.09	2.71735
2030.56	3.41662
2032.02	3.59619
2033.49	3.40678
2034.96	4.32503
2036.42	4.63736
2037.89	4.88247
2039.36	4.8099
2040.82	5.20195
2042.29	6.09749
2043.75	7.02185
2045.22	6.98842
2046.68	6.21386
2048.14	6.1413
2049.61	6.49619
2051.07	6.79322
2052.54	7.25154
2054	7.40098
2055.46	7.85005
2056.93	8.38752
2058.39	8.01794
2059.85	7.24668
2061.31	7.19077
2062.77	7.05059
2064.23	6.9809
2065.7	6.95465
2067.16	6.58277
2068.62	6.9496
2070.08	6.73153
2071.54	6.79647
2073	6.73751
2074.46	6.38027
2075.92	6.85335
2077.38	7.1936
2078.83	7.25901
2080.29	7.12999
2081.75	7.07634
2083.21	7.1087
2084.67	6.84856
2086.12	6.88285
2087.58	8.25583
2089.04	8.60538
2090.49	8.612
2091.95	8.66794
2093.41	8.53418
2094.86	8.33758
2096.32	8.10442
2097.77	8.47675
2099.23	8.96388
2100.68	9.23555
2102.14	9.43412
2103.59	10.1177
2105.05	10.4487
2106.5	10.8176
2107.95	11.8601
2109.41	12.8566
2110.86	13.8507
2112.31	14.5658
2113.76	15.7927
2115.21	16.7675
2116.67	17.8305
2118.12	18.4581
2119.57	18.9675
2121.02	19.5509
2122.47	20.8516
2123.92	22.0014
2125.37	22.5236
2126.82	22.7876
2128.27	23.3879
2129.72	24.18
2131.17	24.9146
2132.62	25.4888
2134.07	26.3052
2135.51	27.0258
2136.96	27.7442
2138.41	29.3061
2139.86	29.8016
2141.31	31.5442
2142.75	32.6699
2144.2	34.1047
2145.65	34.9962
2147.09	35.7687
2148.54	37.0732
2149.98	37.4375
2151.43	38.17
2152.87	38.7868
2154.32	40.0393
2155.76	40.6006
2157.21	41.9402
2158.65	42.4363
2160.1	43.4591
2161.54	43.0104
2162.98	43.2934
2164.43	43.271
2165.87	44.0373
2167.31	44.4306
2168.75	44.9097
2170.2	45.3539
2171.64	45.8214
2173.08	46.2936
2174.52	46.5638
2175.96	46.9053
2177.4	46.9677
2178.84	46.7558
2180.28	46.7137
2181.72	46.8178
2183.16	46.388
2184.6	45.7701
2186.04	46.0567
2187.48	44.9869
2188.92	44.0699
2190.36	42.4777
2191.79	40.9828
2193.23	39.6727
2194.67	39.127
2196.11	38.3992
2197.54	37.5013
2198.98	36.4222
2200.42	35.7671
2201.85	35.1203
2203.29	33.5091
2204.72	32.559
2206.16	32.2614
2207.59	31.2246
2209.03	30.5304
2210.46	30.3649
2211.9	29.5273
2213.33	29.2109
2214.77	27.9971
2216.2	26.9326
2217.63	26.4605
2219.07	25.7039
2220.5	24.9943
2221.93	24.0957
2223.36	23.6838
2224.8	22.7662
2226.23	22.3965
2227.66	22.2809
2229.09	22.2036
2230.52	21.528
2231.95	21.0104
2233.39	20.8313
2234.81	21.4405
2236.25	21.4424
2237.67	21.5467
2239.1	21.3138
2240.53	21.4951
2241.96	21.1402
2243.39	20.8965
2244.82	20.2832
2246.25	19.9448
2247.68	18.7972
2249.1	17.9718
2250.53	17.1733
2251.96	16.8435
2253.38	16.8871
2254.81	16.5502
2256.24	15.9711
2257.66	15.2993
2259.09	13.9112
2260.51	13.6138
2261.94	13.018
2263.36	13.0216
2264.79	12.9956
2266.21	13.0194
2267.64	12.7697
2269.06	12.4001
2270.49	11.6454
2271.91	10.9722
2273.33	10.8997
2274.76	10.1626
2276.18	9.93244
2277.6	9.39833
2279.02	8.48832
2280.44	8.15974
2281.87	7.93076
2283.29	7.3428
2284.71	7.02998
2286.13	6.6632
2287.55	7.11698
2288.97	7.43084
2290.39	7.00977
2291.81	6.10169
2293.23	5.61003
2294.65	5.64565
2296.07	5.9393
2297.49	6.96014
2298.91	7.4685
2300.33	7.56029
2301.74	8.0385
2303.16	8.37899
2304.58	9.19687
2306	9.98365
2307.41	9.71758
2308.83	9.55485
2310.25	10.3568
2311.66	10.1294
2313.08	9.99252
2314.5	10.0195
2315.91	9.77336
2317.33	9.93027
2318.74	9.41929
2320.16	9.0678
2321.57	9.01658
2322.98	9.19195
2324.4	9.2316
2325.81	8.80997
2327.23	8.62957
2328.64	8.47501
2330.05	8.87673
2331.46	9.25113
2332.88	9.72934
2334.29	9.72077
2335.7	9.87353
2337.11	9.56769
2338.52	9.58383
2339.94	9.53351
2341.35	8.7631
2342.76	7.70914
2344.17	7.48466
2345.58	7.27262
2346.99	7.10443
2348.4	6.50268
2349.81	6.10927
2351.22	5.93791
2352.62	5.83328
2354.03	5.79927
2355.44	5.40804
2356.85	4.87597
2358.26	4.59293
2359.67	3.78385
2361.07	2.74849
2362.48	2.35838
2363.89	3.01485
2365.29	3.80666
2366.7	3.79328
2368.11	3.83091
2369.51	3.41344
2370.92	3.48622
2372.32	3.35312
2373.73	3.16746
2375.13	3.06699
2376.54	3.05176
2377.94	2.43603
2379.35	2.24283
2380.75	2.38718
2382.15	1.84368
2383.56	1.70126
2384.96	1.67104
2386.36	1.55966
2387.76	1.74605
2389.17	1.28633
2390.57	0.796861
2391.97	1.03805
2393.37	0.971952
2394.77	1.17937
2396.17	1.31367
2397.58	1.324
2398.98	1.40357
2400.38	2.11958
2401.78	2.08996
2403.18	2.14497
2404.58	1.55219
2405.97	1.6849
2407.37	1.29182
2408.77	1.44639
2410.17	1.25684
2411.57	0.7329
2412.97	0.859949
2414.37	1.33065
2415.76	1.55022
2417.16	0.680749
2418.56	0.83752
2419.95	1.82683
2421.35	2.16518
2422.75	2.16887
2424.14	2.17067
2425.54	1.50537
2426.93	1.63907
2428.33	1.40667
2429.72	1.16938
2431.12	1.23568
2432.51	1.42485
2433.91	1.32191
2435.3	0.922519
2436.7	0.659878
2438.09	0.695923
2439.48	0.515578
2440.88	0.300754
2442.27	0.0999989
2443.66	0.212822
2445.05	0.62716
2446.44	1.01414
2447.84	1.41208
2449.23	1.71538
2450.62	2.01316
2452.01	1.71164
2453.4	1.4164
2454.79	1.45842
2456.18	1.28095
2457.57	1.42295
2458.96	0.87882
2460.35	0.576776
2461.74	1.09797
2463.13	1.45189
2464.52	1.42068
2465.91	1.77025
2467.29	1.73179
2468.68	1.91487
2470.07	2.42429
2471.46	1.894
2472.85	2.05393
2474.23	1.87104
2475.62	2.24484
2477.01	2.48874
2478.39	3.04989
2479.78	3.32061
2481.16	3.67364
2482.55	3.74798
2483.93	3.74882
2485.32	4.20558
2486.7	4.46851
2488.09	4.78192
2489.47	4.59012
2490.86	4.27495
2492.24	4.01911
2493.62	3.59725
2495.01	3.19053
2496.39	3.26132
2497.77	2.63572
2499.15	2.80288
2500.54	2.60468
2501.92	2.42385
2503.3	2.05489
2504.68	2.34794
2506.06	2.54507
2507.45	2.12257
2508.83	1.79824
2510.21	1.87741
2511.59	2.39256
2512.97	2.41934
2514.35	2.44677
2515.73	1.76041
2517.11	1.27783
2518.48	0.362202
2519.86	0.445922
2521.24	0.447106
2522.62	0.743558
2524	1.36614
2525.38	1.37208
2526.75	1.18997
2528.13	0.86777
2529.51	0.977911
2530.89	1.25221
2532.26	1.0198
2533.64	0.692402
2535.02	0.774681
2536.39	0.472264
2537.77	0.30232
2539.14	0.584217
2540.52	0.27276
2541.89	0.456509
2543.27	0.75645
2544.64	1.69908
2546.01	1.72551
2547.39	2.38043
2548.76	2.37841
2550.14	2.42743
2551.51	1.82551
2552.88	2.30561
2554.25	2.40916
2555.63	1.89369
2557	1.65732
2558.37	1.79174
2559.74	1.41161
2561.11	1.84422
2562.49	1.77429
2563.86	2.05335
2565.23	2.3793
2566.6	2.54888
2567.97	3.20312
2569.34	3.41878
2570.71	3.35391
2572.08	3.2815
2573.45	3.31806
2574.82	2.42899
2576.18	2.8646
2577.55	3.18475
2578.92	3.19982
2580.29	3.2634
2581.66	2.71811
2583.02	2.28993
2584.39	2.00144
2585.76	2.04531
2587.13	2.40557
2588.49	2.92263
2589.86	2.62988
2591.22	2.87472
2592.59	2.6985
2593.96	2.20755
2595.32	1.67052
2596.69	1.69001
2598.05	1.4258
2599.42	1.25805
2600.78	1.32072
2602.14	1.07331
2603.51	0.868611
2604.87	0.962775
2606.23	1.24494
2607.6	1.29726
2608.96	1.74031
2610.32	1.96042
2611.69	2.59809
2613.05	2.98176
2614.41	2.47697
2615.77	2.75173
2617.13	2.63246
2618.49	2.65216
2619.86	2.42117
2621.22	2.73899
2622.58	2.28973
2623.94	2.447
2625.3	3.03928
2626.66	3.27024
2628.02	3.57171
2629.37	3.8078
2630.73	3.4924
2632.09	3.57283
2633.45	3.63203
2634.81	3.30166
2636.17	3.65221
2637.53	3.43009
2638.88	3.11343
2640.24	3.40349
2641.6	3.30612
2642.96	4.02352
2644.31	5.07637
2645.67	4.56089
2647.02	4.38329
2648.38	4.76267
2649.74	4.8323
2651.09	4.67444
2652.45	4.80715
2653.8	4.98833
2655.16	5.61517
2656.51	5.81814
2657.86	5.99733
2659.22	6.10412
2660.57	5.71054
2661.93	5.41641
2663.28	5.19423
2664.63	5.469
2665.98	5.47761
2667.34	5.59153
2668.69	5.55007
2670.04	5.15393
2671.39	4.96413
2672.75	5.21072
2674.09	5.46718
2675.45	6.02351
2676.8	6.07253
2678.15	5.76685
2679.5	5.56782
2680.85	5.36434
2682.2	4.85113
2683.55	4.78116
2684.9	4.73654
2686.25	4.1072
2687.6	4.27346
2688.94	4.72407
2690.29	4.31997
2691.64	4.31022
2692.99	4.01931
2694.34	3.53664
2695.68	3.56956
2697.03	2.86128
2698.38	2.92052
2699.73	2.76726
2701.07	2.95845
2702.42	3.25324
2703.76	3.66554
2705.11	3.86241
2706.45	4.33075
2707.8	4.78859
2709.15	4.70371
2710.49	4.75449
2711.83	4.63562
2713.18	4.6562
2714.52	5.10403
2715.87	5.45685
2717.21	5.23074
2718.55	4.64846
2719.9	4.98353
2721.24	5.01138
2722.58	5.56362
2723.93	5.64192
2725.27	5.59274
2726.61	5.46424
2727.95	5.32048
2729.29	5.09654
2730.63	5.43416
2731.98	4.98955
2733.32	4.86739
2734.66	4.99037
2736	5.02338
2737.34	4.99956
2738.68	4.95171
2740.02	5.57403
2741.36	5.70684
2742.7	5.64174
2744.03	4.86455
2745.37	4.66696
2746.71	5.27752
2748.05	5.73094
2749.39	5.16416
2750.72	5.00466
2752.06	5.24044
2753.4	5.18112
2754.74	5.24908
2756.07	4.63159
2757.41	4.21194
2758.75	4.1223
2760.08	3.98005
2761.42	3.55753
2762.76	3.1204
2764.09	2.09105
2765.42	1.87308
2766.76	1.61957
2768.09	1.99532
2769.43	1.86064
2770.76	1.36302
2772.1	1.58589
2773.43	1.25621
2774.76	0.999378
2776.1	0.690852
2777.43	0.54019
2778.76	0.736698
2780.1	0.665926
2781.43	0.851106
2782.76	0.915966
2784.09	0.756515
2785.42	0.877881
2786.75	1.03874
2788.09	0.732531
2789.42	1.2583
2790.75	0.959597
2792.08	0.714599
2793.41	0.806179
2794.74	0.558237
2796.07	0.683437
2797.4	0.834595
2798.73	0.325795
2800.06	0.980622
2801.39	1.06202
2802.71	0.939007
2804.04	0.719162
2805.37	1.04629
2806.7	1.54966
2808.03	1.12376
2809.35	0.513213
2810.68	0.725253
2812.01	0.612413
2813.33	0.729883
2814.66	0.199859
2815.99	-0.281359
2817.31	0.535734
2818.64	0.688291
2819.96	1.49199
2821.29	2.09543
2822.61	2.97682
2823.94	4.34951
2825.26	5.48082
2826.59	6.71683
2827.91	8.72141
2829.23	10.0135
2830.56	12.448
2831.88	14.4908
2833.21	16.6233
2834.53	18.4034
2835.85	20.1369
2837.17	21.8504
2838.5	24.8454
2839.82	27.5729
2841.14	30.1742
2842.46	32.707
2843.78	35.8816
2845.1	39.4299
2846.42	42.8629
2847.74	46.7179
2849.06	50.4264
2850.38	54.1715
2851.71	57.7784
2853.03	61.6908
2854.34	65.74
2855.66	70.8775
2856.98	75.2072
2858.3	79.0261
2859.62	82.6742
2860.94	85.8011
2862.26	89.4629
2863.57	92.8344
2864.89	95.5113
2866.21	99.0698
2867.53	101.54
2868.84	104.872
2870.16	107.311
2871.48	109.647
2872.79	112.357
2874.11	114.097
2875.42	116.576
2876.74	119.242
2878.05	120.547
2879.37	122.694
2880.68	125.083
2882	127.416
2883.31	129.315
2884.63	130.776
2885.94	132.89
2887.26	134.262
2888.57	137.481
2889.88	139.549
2891.19	141.304
2892.51	143.151
2893.82	145.069
2895.13	146.421
2896.44	148.327
2897.76	149.738
2899.07	152.895
2900.38	155.043
2901.69	157.689
2903	161.007
2904.31	165.344
2905.62	169.376
2906.93	173.543
2908.24	178.385
2909.55	183.379
2910.86	188.716
2912.17	193.578
2913.48	198.531
2914.79	203.654
2916.1	208.179
2917.41	212.828
2918.71	217.806
2920.02	221.85
2921.33	225.616
2922.64	228.164
2923.94	229.445
2925.25	231.614
2926.56	233.272
2927.86	234.548
2929.17	235.74
2930.48	236.726
2931.78	237.121
2933.09	236.816
2934.39	236.15
2935.7	234.072
2937	232.329
2938.31	230.293
2939.61	227.424
2940.92	224.652
2942.22	220.64
2943.53	216.614
2944.83	212.998
2946.13	208.757
2947.43	204.009
2948.74	198.834
2950.04	194.511
2951.34	190.214
2952.64	186.031
2953.95	182.071
2955.25	176.471
2956.55	171.45
2957.85	166.564
2959.15	160.961
2960.45	156.305
2961.75	151.986
2963.05	147.794
2964.35	144.06
2965.65	139.461
2966.95	136.145
2968.25	133.61
2969.55	130.526
2970.85	126.841
2972.15	123.815
2973.45	120.506
2974.75	117.119
2976.05	114.04
2977.34	110.084
2978.64	106.888
2979.94	103.791
2981.24	99.9973
2982.53	96.5404
2983.83	92.9181
2985.13	88.4137
2986.42	84.2358
2987.72	80.3486
2989.01	76.3751
2990.31	72.9025
2991.61	69.2481
2992.9	65.5031
2994.19	62.3083
2995.49	58.6024
2996.78	54.3595
2998.08	50.5442
2999.37	46.3376
3000.67	42.9246
3001.96	39.2386
3003.25	35.6144
3004.55	32.905
3005.84	29.8613
3007.13	27.2028
3008.42	24.917
3009.72	22.565
3011.01	20.2409
3012.3	18.7233
3013.59	16.8254
3014.88	15.0526
3016.17	13.5175
3017.46	12.4441
3018.76	10.9034
3020.05	9.29006
3021.34	7.888
3022.63	7.07157
3023.92	6.37381
3025.21	6.5429
3026.49	6.16768
3027.78	5.98418
3029.07	6.51467
3030.36	6.82379
3031.65	7.04389
3032.94	7.21131
3034.23	7.12446
3035.51	7.6538
3036.8	9.01389
3038.09	9.50967
3039.38	10.1931
3040.66	10.5186
3041.95	11.0049
3043.23	11.7662
3044.52	12.3972
3045.81	13.2134
3047.09	13.7398
3048.38	14.563
3049.66	14.9244
3050.95	15.7891
3052.23	16.6037
3053.52	16.8163
3054.8	16.8446
3056.09	17.419
3057.37	17.4251
3058.65	17.5051
3059.94	17.1384
3061.22	16.7435
3062.5	16.0294
3063.79	16.0085
3065.07	15.5357
3066.35	14.7602
3067.63	15.0449
3068.92	15.1841
3070.2	15.0613
3071.48	14.5292
3072.76	13.7821
3074.04	12.6708
3075.32	11.8617
3076.6	10.9661
3077.88	9.81791
3079.16	8.93571
3080.44	8.50691
3081.72	7.52558
3083	6.56489
3084.28	5.87614
3085.56	5.41711
3086.84	4.04599
3088.12	3.26587
3089.4	2.75809
3090.67	2.51411
3091.95	1.94266
3093.23	1.35962
3094.51	0.762112
3095.78	0.331063
3097.06	0.562755
3098.34	0.448686
3099.61	0.696095
3100.89	0.756002
3102.17	0.482022
3103.44	0.338162
3104.72	0.73113
3105.99	1.42974
3107.27	2.43501
3108.54	3.0319
3109.82	3.52774
3111.09	3.99093
3112.37	4.70303
3113.64	5.19676
3114.92	5.76504
3116.19	5.99718
3117.46	6.7831
3118.74	7.31738
3120.01	7.86507
3121.28	8.27286
3122.55	8.72238
3123.83	9.19724
3125.1	10.0159
3126.37	10.5904
3127.64	11.6998
3128.91	12.0071
3130.19	13.1575
3131.46	14.0384
3132.73	14.2966
3134	14.7454
3135.27	14.5027
3136.54	14.5786
3137.81	14.5129
3139.08	14.8903
3140.35	14.7467
3141.62	14.587
3142.89	13.9837
3144.16	13.3743
3145.42	12.6654
3146.69	11.4614
3147.96	10.6898
3149.23	10.2603
