#Acq. time (s)=	45
#Accumulations=	2
#Range (cm-¹)=	200...3150
#Windows=	2
#Auto scanning=	Off
#Autofocus=	Off
#Macrospot=	Off
#AutoExposure=	Off
#Spike filter=	Multiple accum.
#Delay time (s)=	0
#Binning=	1
#Readout mode=	Signal
#DeNoise=	Off
#ICS correction=	On
#Dark correction=	Off
#Inst. Process=	Off
#Detector Gain=	Best Dynamic Range
#Detector ADC=	20 kHz       
#Detector temperature (°C)=	-69.85
#Instrument=	LabRAM HR Evol
#Detector=	Synapse
#Objective=	x100
#Grating=	600 gr/mm
#ND Filter=	100%
#Laser (nm)=	532 
#Hole=	100.021
#Range=	Auto
#Laser Pol.=	No
#Raman. Pol.=	No
#Laser Pol. (°)=	-0.0007625
#Raman Pol. (°)=	89.9995
#Collection=	Microscope
#StageXY=	Marzhauser
#StageZ=	Marzhauser
#X (µm)=	2181.6
#Y (µm)=	1242.6
#Z (µm)=	443.05
#Full time(mm:ss)=	3:18
#Project=	
#Sample=	
#Site=	
#Title=	Thy_10_08_16_2x_45s_532 nm_x100_100%_600 gr_mm
#Remark=	
#Date=	05.07.2022 15:20
#Acquired=	05.07.2022 15:20:16
#Base:Fit=	10.08.2022 09:46:25
#Base:Sub=	10.08.2022 09:46:49
#Filter:Polynom=	16.08.2022 10:24:56
#AxisType[0]=Intens
#AxisUnit[0]=Cnt
#AxisType[1]=Spectr
#AxisUnit[1]=1/cm
200.43	8.52548
202.244	9.90646
204.059	8.82236
205.873	7.80471
207.688	6.93585
209.501	6.38825
211.314	6.2217
213.127	6.10518
214.941	5.38039
216.753	5.09717
218.564	6.18572
220.375	6.98286
222.186	7.25538
223.999	7.86025
225.809	7.37152
227.618	6.94423
229.428	6.33347
231.236	7.46434
233.045	7.32046
234.855	6.36729
236.663	6.15547
238.471	6.35751
240.278	6.4412
242.085	6.65549
243.891	5.97091
245.698	5.09366
247.503	4.64652
249.309	4.7668
251.116	4.74638
252.921	4.8495
254.725	3.84715
256.529	3.36141
258.333	3.32833
260.136	4.01178
261.939	4.74287
263.742	5.43948
265.544	6.84449
267.346	6.8817
269.148	6.25081
270.949	6.77723
272.75	6.71568
274.55	8.1155
276.351	7.6201
278.15	7.46846
279.95	8.06286
281.749	7.66735
283.548	7.94237
285.346	7.26441
287.144	7.39991
288.942	7.53259
290.739	6.33217
292.536	7.63542
294.333	8.38239
296.129	8.77502
297.925	8.25171
299.721	8.76017
301.514	8.73628
303.309	9.08842
305.104	9.75844
306.898	10.3924
308.692	10.828
310.486	10.7405
312.279	10.4521
314.072	10.3869
315.862	10.5932
317.654	10.7812
319.446	11.1717
321.238	11.7406
323.029	11.1958
324.819	11.5516
326.608	12.5913
328.398	12.908
330.188	12.0833
331.977	11.7132
333.766	11.4085
335.553	11.3644
337.341	11.7466
339.129	11.935
340.917	11.7011
342.704	11.1095
344.489	10.4005
346.275	10.8754
348.062	10.0355
349.845	10.3873
351.631	10.6016
353.416	10.6614
355.201	10.4782
356.984	9.16456
358.768	9.09781
360.552	8.38199
362.333	8.25516
364.116	8.01234
365.899	7.31422
367.68	7.41502
369.462	7.34514
371.243	6.42267
373.023	5.67172
374.804	5.52772
376.585	5.20243
378.363	3.45422
380.143	2.31668
381.923	1.93918
383.7	1.6772
385.479	1.41678
387.256	0.394018
389.034	0.456673
390.812	0.655968
392.588	0.674149
394.365	0.266408
396.14	-0.208869
397.916	-0.0106849
399.691	1.10921
401.467	1.54367
403.24	2.18043
405.015	2.78627
406.788	2.62054
408.563	3.02874
410.335	3.52639
412.109	3.72465
413.88	3.97815
415.654	4.20237
417.424	3.86613
419.197	3.85181
420.967	4.30377
422.739	4.02463
424.508	3.44761
426.279	3.97796
428.048	4.11716
429.819	4.34159
431.587	4.19738
433.356	4.48189
435.124	4.79156
436.891	4.96631
438.66	5.37201
440.426	5.94063
442.194	5.76488
443.96	4.50784
445.725	4.72725
447.492	4.96787
449.257	4.72874
451.021	4.78788
452.787	4.91634
454.551	4.93682
456.314	4.6381
458.079	4.55079
459.842	4.88767
461.604	4.75019
463.368	5.07074
465.13	5.33039
466.891	5.21576
468.654	6.56249
470.415	7.33742
472.175	7.74338
473.935	7.8723
475.696	7.74888
477.456	8.60597
479.215	9.78129
480.973	10.4403
482.733	11.0695
484.491	11.4948
486.249	12.2744
488.006	13.591
489.765	13.7026
491.522	13.7985
493.278	14.07
495.034	14.3072
496.789	14.4597
498.544	14.7667
500.301	15.3334
502.056	15.8029
503.81	15.4265
505.564	15.0573
507.317	15.0011
509.071	14.542
510.825	15.5708
512.578	15.6589
514.33	15.9774
516.082	16.2243
517.833	16.2398
519.585	16.0431
521.335	16.4425
523.086	15.8944
524.836	15.6651
526.586	15.8064
528.335	15.9487
530.085	15.4371
531.835	14.336
533.584	14.5813
535.332	14.7043
537.08	14.46
538.827	13.8901
540.574	14.1117
542.321	14.0023
544.068	13.9755
545.814	12.9802
547.56	12.1939
549.305	11.2394
551.05	11.5825
552.795	11.6133
554.54	11.0884
556.282	11.5649
558.025	11.4198
559.769	10.7347
561.512	10.3288
563.255	10.2125
564.997	10.1584
566.739	9.51495
568.481	9.30629
570.223	8.07199
571.964	7.41456
573.705	6.902
575.443	6.18055
577.183	4.95333
578.923	4.35949
580.663	3.95599
582.402	3.88469
584.141	3.85652
585.879	3.87906
587.615	3.16577
589.353	3.34501
591.09	2.87897
592.828	3.07167
594.564	3.0429
596.299	3.68451
598.035	4.30362
599.771	3.86175
601.506	4.48893
603.242	4.77367
604.974	4.81025
606.709	5.57123
608.443	6.15092
610.177	6.44455
611.908	6.91201
613.642	7.60733
615.374	7.47842
617.105	7.72453
618.837	7.73432
620.569	8.80546
622.3	9.51219
624.03	9.45791
625.761	9.98566
627.491	10.5127
629.219	10.7726
630.949	10.1325
632.677	10.3867
634.406	11.4806
636.135	13.0739
637.861	13.8218
639.59	14.5767
641.318	15.5595
643.043	15.9998
644.77	15.6866
646.495	15.4214
648.222	15.2722
649.948	15.4368
651.672	16.1527
653.398	16.9287
655.121	17.6104
656.846	17.5329
658.569	18.9475
660.293	19.5499
662.015	20.6834
663.738	21.2884
665.46	21.7533
667.183	22.4309
668.903	23.8642
670.626	24.5855
672.346	24.8493
674.067	25.2778
675.787	26.4239
677.508	25.9673
679.226	27.462
680.947	28.5204
682.665	29.7395
684.385	30.4372
686.102	30.9516
687.821	31.3849
689.538	31.8162
691.254	32.5461
692.972	33.4843
694.688	33.8349
696.406	34.3338
698.121	34.4281
699.835	34.7537
701.552	34.9572
703.266	34.3891
704.98	35.7647
706.695	36.9848
708.409	37.8248
710.121	38.1532
711.836	39.3955
713.548	39.6767
715.26	39.8058
716.973	40.8415
718.685	41.5462
720.396	42.2778
722.108	43.3017
723.818	42.9638
725.528	43.3438
727.238	44.9608
728.949	45.603
730.658	46.4033
732.367	46.9574
734.075	47.6609
735.785	48.888
737.493	50.8106
739.2	51.2799
740.907	52.0511
742.614	53.1914
744.322	54.304
746.028	55.2371
747.734	55.4354
749.439	55.7428
751.144	56.8452
752.849	59.1999
754.555	61.8595
756.26	63.4297
757.963	65.1598
759.667	66.7003
761.37	67.9704
763.073	69.9607
764.775	71.6823
766.477	72.3471
768.179	73.4171
769.883	74.1958
771.584	75.0325
773.285	76.2104
774.986	77.3294
776.686	78.7822
778.386	79.9209
780.085	79.4691
781.785	79.8405
783.484	80.9701
785.182	81.3367
786.881	82.6469
788.579	84.9263
790.276	87.3919
791.974	88.3844
793.671	88.7962
795.367	89.0755
797.064	90.0922
798.76	90.8676
800.456	91.6122
802.151	92.129
803.846	91.5548
805.541	92.0129
807.234	91.6152
808.928	92.2142
810.622	93.1523
812.315	92.5774
814.008	91.0454
815.701	91.1777
817.394	91.0712
819.086	90.4931
820.778	91.5742
822.468	91.4027
824.159	91.3471
825.85	91.4799
827.541	91.0679
829.231	90.6551
830.921	89.6687
832.609	88.1962
834.298	87.6382
835.987	88.0977
837.676	87.9607
839.364	87.3773
841.051	86.0419
842.738	84.2845
844.426	82.6594
846.113	81.3876
847.798	79.8671
849.484	77.9001
851.171	76.5373
852.857	74.5409
854.54	73.8042
856.226	72.7252
857.911	71.6154
859.593	70.6027
861.278	69.0101
862.961	67.7829
864.645	66.6368
866.327	66.4731
868.01	66.5816
869.692	65.9889
871.373	65.9748
873.055	65.967
874.735	64.3194
876.416	63.381
878.097	62.5387
879.776	61.9297
881.457	62.2071
883.135	61.7299
884.815	60.6762
886.495	60.7304
888.172	60.6895
889.851	61.0352
891.528	60.7507
893.206	60.4753
894.882	60.1752
896.56	59.975
898.237	61.7537
899.912	62.3396
901.589	62.2963
903.263	61.8579
904.94	62.8577
906.614	63.0085
908.289	63.6166
909.962	63.1878
911.635	62.2269
913.31	62.2894
914.982	61.5689
916.656	62.4401
918.328	62.407
920.001	63.594
921.672	63.482
923.345	63.4751
925.015	62.8319
926.685	62.5459
928.357	62.4311
930.026	61.8473
931.698	61.8923
933.366	61.5093
935.035	61.1984
936.705	60.9262
938.373	61.5372
940.041	61.0669
941.71	59.644
943.377	58.9443
945.044	57.3953
946.712	57.4918
948.378	57.1726
950.044	56.8245
951.709	57.1006
953.376	56.192
955.041	55.4689
956.706	54.7816
958.372	53.415
960.036	52.1455
961.699	50.9827
963.362	49.9508
965.027	50.6105
966.69	50.6447
968.352	50.5777
970.014	50.4267
971.676	50.0028
973.339	49.3895
975	49.5042
976.661	48.7444
978.322	49.2992
979.982	49.6856
981.642	49.8973
983.303	49.7817
984.962	50.449
986.621	51.1063
988.28	51.7398
989.938	51.1569
991.596	50.1858
993.254	50.0136
994.911	50.1996
996.57	51.3628
998.227	50.606
999.884	50.8306
1001.54	49.2724
1003.2	49.4911
1004.85	49.3256
1006.51	49.2912
1008.16	48.5272
1009.82	47.7222
1011.47	46.8755
1013.12	45.9342
1014.78	45.769
1016.43	44.6237
1018.08	44.4206
1019.74	44.618
1021.39	44.3325
1023.04	43.8024
1024.69	42.4527
1026.34	42.9259
1028	42.0805
1029.65	42.1076
1031.3	42.0246
1032.95	41.7744
1034.6	40.9301
1036.25	39.8889
1037.9	38.9176
1039.54	37.3381
1041.19	37.1682
1042.84	36.7318
1044.49	36.7516
1046.14	36.7214
1047.78	37.7031
1049.43	37.8913
1051.08	37.5851
1052.72	37.8985
1054.37	38.6417
1056.02	38.6869
1057.66	38.9602
1059.31	37.615
1060.95	38.7048
1062.6	38.5337
1064.24	38.6652
1065.88	38.2446
1067.53	38.5025
1069.17	37.9528
1070.81	37.2017
1072.45	36.6273
1074.1	36.713
1075.74	36.9139
1077.38	36.4222
1079.02	35.3909
1080.66	32.8734
1082.3	32.8021
1083.94	31.4978
1085.58	31.7526
1087.22	30.8727
1088.86	30.1288
1090.5	29.2943
1092.14	29.018
1093.78	29.3768
1095.42	29.7413
1097.05	30.5013
1098.69	30.5967
1100.33	30.8228
1101.96	31.1853
1103.6	30.8918
1105.24	30.4064
1106.87	29.3509
1108.51	29.3483
1110.14	28.2253
1111.78	28.0456
1113.41	27.8808
1115.05	27.0489
1116.68	26.4768
1118.31	25.5856
1119.95	24.651
1121.58	24.7269
1123.21	24.7497
1124.85	23.8951
1126.48	23.886
1128.11	23.727
1129.74	24.3391
1131.37	24.0576
1133	23.6977
1134.63	22.4774
1136.26	21.9447
1137.89	20.9742
1139.52	20.3821
1141.15	19.7917
1142.78	20.4759
1144.41	20.3731
1146.04	20.5391
1147.66	20.5826
1149.29	20.9767
1150.92	20.2226
1152.55	20.2232
1154.17	19.8169
1155.8	19.5103
1157.43	19.1552
1159.05	18.2798
1160.68	17.8211
1162.3	17.5325
1163.93	18.9285
1165.55	18.538
1167.17	19.2286
1168.8	19.6198
1170.42	21.0235
1172.05	21.724
1173.67	22.1087
1175.29	23.0598
1176.91	23.478
1178.54	24.1506
1180.16	24.5215
1181.78	24.9624
1183.4	25.7262
1185.02	26.751
1186.64	27.4225
1188.26	27.8905
1189.88	28.6635
1191.5	29.3429
1193.12	29.6948
1194.74	30.1401
1196.36	31.3917
1197.97	32.6849
1199.59	33.2762
1201.21	34.8286
1202.83	35.7129
1204.44	35.7892
1206.06	36.6921
1207.68	37.7932
1209.29	37.6373
1210.91	38.5169
1212.52	39.3185
1214.14	39.5037
1215.75	39.8107
1217.37	42.1387
1218.98	43.2869
1220.59	44.0306
1222.21	45.4392
1223.82	47.1099
1225.43	48.5352
1227.05	48.649
1228.66	49.3514
1230.27	49.552
1231.88	50.255
1233.49	51.9987
1235.1	52.1802
1236.72	52.7386
1238.33	52.8022
1239.94	53.6402
1241.55	54.2858
1243.16	53.9904
1244.76	54.6005
1246.37	54.718
1247.98	54.9872
1249.59	55.1779
1251.2	55.8846
1252.8	55.2624
1254.41	55.3545
1256.02	54.9121
1257.62	53.9859
1259.23	54.1062
1260.84	54.0124
1262.44	54.4422
1264.05	55.2724
1265.66	55.2558
1267.26	55.6258
1268.86	56.0818
1270.47	56.2571
1272.07	57.3956
1273.67	57.5262
1275.28	58.7834
1276.88	60.498
1278.48	61.5779
1280.09	62.0544
1281.69	62.5394
1283.29	63.1125
1284.89	63.4927
1286.49	64.3911
1288.09	64.9961
1289.69	65.3882
1291.29	67.0709
1292.89	67.6404
1294.49	69.023
1296.09	70.2294
1297.69	71.1003
1299.29	71.7303
1300.89	71.6025
1302.49	73.5926
1304.08	74.4593
1305.68	75.0223
1307.28	75.8145
1308.88	77.129
1310.47	77.8628
1312.07	79.8119
1313.66	79.5625
1315.26	78.6762
1316.85	78.744
1318.45	78.5904
1320.04	79.7284
1321.64	79.6735
1323.23	79.6672
1324.83	79.9645
1326.42	79.3929
1328.01	78.7114
1329.61	77.8896
1331.2	76.2124
1332.79	74.299
1334.38	73.6069
1335.97	72.6209
1337.56	71.7916
1339.16	71.9869
1340.75	71.5733
1342.34	71.2328
1343.93	70.7542
1345.52	70.1755
1347.11	70.8436
1348.7	69.7982
1350.29	68.4434
1351.87	68.9663
1353.46	67.7149
1355.05	66.884
1356.64	65.7224
1358.22	64.0808
1359.81	62.8105
1361.4	61.6143
1362.98	60.8412
1364.57	59.6867
1366.16	59.162
1367.74	58.5192
1369.33	57.9019
1370.91	58.2043
1372.5	56.9578
1374.08	56.701
1375.67	55.7727
1377.25	55.5116
1378.83	55.0968
1380.41	54.9388
1382	55.515
1383.58	55.2056
1385.16	55.2657
1386.74	54.8055
1388.33	54.1298
1389.91	53.8834
1391.49	53.3215
1393.07	51.1116
1394.65	51.3781
1396.23	51.1482
1397.81	51.6437
1399.39	51.2291
1400.97	50.302
1402.55	49.4215
1404.13	48.4586
1405.7	48.0423
1407.28	48.0397
1408.86	47.6344
1410.44	47.7696
1412.01	49.3154
1413.59	51.0646
1415.17	52.2509
1416.74	53.1654
1418.32	54.6357
1419.89	55.2347
1421.47	56.383
1423.04	57.4446
1424.62	58.7138
1426.19	60.2433
1427.77	61.2335
1429.34	62.0328
1430.91	63.9154
1432.49	64.6182
1434.06	66.1434
1435.63	67.0872
1437.2	68.5518
1438.78	69.8733
1440.35	71.2087
1441.92	72.9878
1443.49	74.2332
1445.06	75.397
1446.63	75.6198
1448.2	75.5937
1449.77	75.766
1451.34	74.7549
1452.91	74.7978
1454.48	73.7752
1456.05	72.5999
1457.62	70.9211
1459.18	70.2335
1460.75	68.1527
1462.32	67.1593
1463.89	64.8677
1465.45	62.9147
1467.02	61.1906
1468.59	58.7899
1470.15	55.2174
1471.72	52.5995
1473.28	49.6419
1474.85	47.0282
1476.41	44.2901
1477.98	41.4655
1479.54	39.3703
1481.1	37.527
1482.67	35.6852
1484.23	34.4404
1485.79	32.9208
1487.36	31.2
1488.92	29.6318
1490.48	28.5855
1492.04	27.3106
1493.61	25.5719
1495.17	23.8649
1496.73	23.1595
1498.29	23.0049
1499.85	22.4566
1501.41	22.3322
1502.97	21.6054
1504.53	21.5215
1506.09	20.9778
1507.65	20.721
1509.2	21.0169
1510.76	20.3605
1512.32	19.5908
1513.88	18.3153
1515.43	18.3106
1516.99	19.0061
1518.55	19.3042
1520.1	19.7233
1521.66	19.3962
1523.22	18.8319
1524.77	18.8363
1526.33	19.202
1527.88	20.2925
1529.44	20.5878
1530.99	20.3232
1532.54	20.6097
1534.1	21.7549
1535.65	22.8154
1537.21	24.3249
1538.76	24.3539
1540.31	24.9024
1541.86	24.6882
1543.42	25.666
1544.97	26.701
1546.52	26.904
1548.07	28.0984
1549.62	29.4505
1551.17	31.0757
1552.72	32.9512
1554.27	34.6355
1555.82	36.6609
1557.37	37.5317
1558.92	38.8161
1560.47	39.394
1562.02	40.0421
1563.56	40.7603
1565.11	42.3773
1566.66	44.3435
1568.21	47.1523
1569.75	49.6404
1571.3	51.0624
1572.85	52.5459
1574.39	54.5943
1575.94	55.7678
1577.49	56.543
1579.03	57.3717
1580.57	57.8792
1582.12	59.015
1583.66	59.7674
1585.21	60.8469
1586.75	60.5935
1588.3	61.15
1589.84	62.0212
1591.38	61.8083
1592.92	63.0061
1594.47	63.7191
1596.01	63.4048
1597.55	63.9062
1599.09	63.6526
1600.63	63.3588
1602.17	63.1627
1603.71	62.1155
1605.25	61.4104
1606.79	59.5877
1608.33	59.1854
1609.87	58.8523
1611.41	58.5093
1612.95	57.3365
1614.49	55.7213
1616.03	53.658
1617.57	53.1916
1619.1	52.9235
1620.64	52.7062
1622.18	52.265
1623.72	50.9836
1625.25	50.9636
1626.79	49.8489
1628.32	49.1917
1629.86	48.573
1631.39	49.5314
1632.93	49.2818
1634.46	48.6147
1636	48.9094
1637.53	49.2494
1639.07	50.3613
1640.6	51.9498
1642.13	53.7948
1643.67	54.8547
1645.2	56.353
1646.73	56.2826
1648.26	55.964
1649.8	56.7505
1651.33	57.9373
1652.86	58.3877
1654.39	59.1193
1655.92	59.062
1657.45	59.5178
1658.98	59.3543
1660.51	59.0789
1662.04	59.3386
1663.57	58.863
1665.1	58.2766
1666.63	57.3628
1668.16	55.909
1669.68	55.433
1671.21	54.1439
1672.74	52.4298
1674.27	51.2226
1675.79	48.9063
1677.32	47.3712
1678.85	46.0271
1680.37	43.8267
1681.9	42.5353
1683.42	41.0852
1684.95	39.1018
1686.47	36.8429
1688	34.6999
1689.52	31.7621
1691.05	30.1988
1692.57	28.2289
1694.09	26.7879
1695.62	25.2202
1697.14	24.1606
1698.66	22.7761
1700.18	21.6254
1701.71	21.3289
1703.23	20.4138
1704.75	19.9112
1706.27	19.5465
1707.79	19.2718
1709.31	18.2696
1710.83	17.0705
1712.35	16.9008
1713.87	16.3624
1715.39	16.3942
1716.91	15.6703
1718.43	15.0978
1719.95	14.3462
1721.47	14.3823
1722.99	13.156
1724.5	12.7159
1726.02	12.8153
1727.54	12.2032
1729.06	11.1453
1730.57	10.1423
1732.09	8.59051
1733.61	7.81524
1735.12	7.30934
1736.64	6.90915
1738.15	6.88201
1739.67	6.51228
1741.18	5.53262
1742.7	4.79877
1744.21	3.95406
1745.72	3.55567
1747.24	3.08727
1748.75	3.07173
1750.26	2.76906
1751.77	2.53323
1753.29	2.87036
1754.8	2.6375
1756.31	2.03084
1757.82	2.00705
1759.33	1.43482
1760.84	0.729315
1762.36	0.476942
1763.87	0.203113
1765.38	0.350621
1766.89	0.682277
1768.4	0.625372
1769.91	0.74298
1771.41	0.849433
1772.92	1.18921
1774.43	1.1539
1775.94	1.17259
1777.45	0.850768
1778.95	0.786498
1780.46	1.04451
1781.97	1.16432
1783.48	1.133
1784.98	1.21798
1786.49	1.02283
1787.99	1.53788
1789.5	1.63168
1791.01	1.56981
1792.51	1.51188
1794.01	1.69363
1795.52	1.90428
1797.02	1.72574
1798.53	1.10877
1800.03	0.978927
1801.53	1.08818
1803.04	0.632438
1804.54	0.319871
1806.04	0.286186
1807.54	0.813304
1809.05	1.11231
1810.55	1.11711
1812.05	1.06313
1813.55	1.72561
1815.05	2.38832
1816.55	2.03169
1818.05	1.74416
1819.55	2.15613
1821.05	2.40044
1822.55	2.90347
1824.05	3.51037
1825.55	3.29155
1827.05	3.81879
1828.55	4.08897
1830.04	4.67399
1831.54	4.93593
1833.04	5.067
1834.54	5.81016
1836.03	5.63977
1837.53	5.13859
1839.03	5.6771
1840.52	6.10981
1842.02	6.38369
1843.51	6.43659
1845.01	6.54721
1846.5	6.96696
1848	7.79405
1849.49	7.68061
1850.99	7.36979
1852.48	7.277
1853.97	8.50157
1855.47	9.22272
1856.96	8.6788
1858.45	8.56403
1859.94	8.36536
1861.44	7.8046
1862.93	8.09718
1864.42	7.96609
1865.91	8.01768
1867.4	7.77257
1868.89	6.89012
1870.38	6.61445
1871.87	6.50346
1873.36	6.83422
1874.85	7.08521
1876.34	7.53936
1877.83	7.75582
1879.32	8.01219
1880.81	8.2972
1882.3	7.85516
1882.57	7.62861
1884.07	7.98508
1885.56	8.3924
1887.06	8.35739
1888.55	8.3122
1890.04	7.43481
1891.54	6.86111
1893.03	7.29892
1894.52	7.58607
1896.02	7.41361
1897.51	7.50319
1899	7.43239
1900.49	7.6953
1901.98	7.68255
1903.47	7.99665
1904.96	7.84506
1906.45	7.6505
1907.94	7.69416
1909.43	7.69727
1910.92	7.70598
1912.41	7.69682
1913.9	7.7343
1915.39	7.74279
1916.88	7.78788
1918.37	8.13428
1919.85	7.86934
1921.34	7.77238
1922.83	7.365
1924.32	7.51377
1925.8	7.90382
1927.29	8.36586
1928.78	8.0916
1930.26	7.47349
1931.75	7.48208
1933.23	7.26993
1934.72	7.15524
1936.2	7.92736
1937.69	7.61404
1939.17	7.64017
1940.66	7.5188
1942.14	7.77732
1943.63	8.26426
1945.11	8.80647
1946.59	8.80637
1948.07	9.31271
1949.56	9.37958
1951.04	8.96893
1952.52	9.14229
1954	8.74791
1955.48	8.24322
1956.96	8.24417
1958.45	7.92106
1959.93	7.7969
1961.41	7.57401
1962.89	7.58762
1964.37	7.47289
1965.85	7.42843
1967.32	7.73871
1968.8	7.68736
1970.28	7.22638
1971.76	7.06685
1973.24	6.75071
1974.72	6.90503
1976.19	7.33284
1977.67	7.26032
1979.15	7.06111
1980.63	7.04976
1982.1	7.25934
1983.58	6.94029
1985.05	6.33533
1986.53	6.55162
1988	6.93765
1989.48	7.34357
1990.95	7.44154
1992.43	7.47324
1993.9	7.28396
1995.38	7.44734
1996.85	8.11022
1998.32	8.51678
1999.8	9.27646
2001.27	9.52592
2002.74	9.43403
2004.22	9.0849
2005.69	8.76302
2007.16	8.42148
2008.63	8.60818
2010.1	8.80016
2011.57	9.19325
2013.04	9.08035
2014.51	9.11205
2015.98	9.04862
2017.45	9.16938
2018.92	8.98262
2020.39	9.33629
2021.86	9.70523
2023.33	9.17278
2024.8	9.17144
2026.27	9.61919
2027.74	9.73632
2029.2	10.0985
2030.67	10.1515
2032.14	10.4113
2033.61	11.1754
2035.07	11.0198
2036.54	10.9181
2038.01	10.8312
2039.47	10.8032
2040.94	11.4713
2042.4	11.3088
2043.87	11.3084
2045.33	11.5037
2046.8	12.7728
2048.26	13.3574
2049.72	13.0297
2051.19	12.3931
2052.65	12.5429
2054.12	12.4171
2055.58	12.8886
2057.04	12.5712
2058.5	12.9683
2059.97	13.0012
2061.43	13.0565
2062.89	13.1106
2064.35	13.2144
2065.81	13.1101
2067.27	12.7587
2068.73	12.8067
2070.19	13.5813
2071.65	13.3492
2073.11	12.555
2074.57	11.7849
2076.03	11.3446
2077.49	11.3428
2078.95	11.1958
2080.41	11.0896
2081.87	11.3032
2083.32	11.3039
2084.78	11.6485
2086.24	11.2632
2087.7	11.7285
2089.15	12.0058
2090.61	11.8585
2092.07	12.4068
2093.52	12.1494
2094.98	11.7594
2096.43	11.832
2097.89	12.1156
2099.34	11.8887
2100.8	12.0535
2102.25	11.4839
2103.71	10.9939
2105.16	11.2075
2106.61	11.0122
2108.07	11.2315
2109.52	11.7619
2110.97	11.6478
2112.43	12.0982
2113.88	12.2913
2115.33	12.7876
2116.78	13.6272
2118.23	13.8397
2119.68	14.3828
2121.13	14.3129
2122.59	14.2067
2124.04	14.871
2125.49	15.7215
2126.94	16.3366
2128.39	16.7208
2129.83	17.189
2131.28	17.5297
2132.73	18.2018
2134.18	18.9114
2135.63	20.0317
2137.08	20.7655
2138.53	20.9153
2139.97	20.947
2141.42	21.4811
2142.87	22.065
2144.31	21.7682
2145.76	22.4033
2147.21	23.8307
2148.65	24.315
2150.1	24.6477
2151.54	25.7127
2152.99	26.0594
2154.43	26.579
2155.88	26.6091
2157.32	26.6191
2158.77	26.8368
2160.21	27.2906
2161.65	27.1864
2163.1	27.1647
2164.54	27.4596
2165.98	26.8663
2167.43	26.9527
2168.87	27.0273
2170.31	26.8467
2171.75	26.3823
2173.19	26.5172
2174.64	25.8186
2176.07	25.9511
2177.52	25.9507
2178.96	25.962
2180.4	26.2692
2181.84	25.3937
2183.28	25.3112
2184.72	25.4075
2186.15	25.574
2187.59	25.954
2189.03	25.408
2190.47	25.3425
2191.91	25.5485
2193.35	25.6539
2194.78	25.3121
2196.22	25.6614
2197.66	25.6927
2199.09	25.0421
2200.53	24.9173
2201.97	25.1528
2203.4	24.6565
2204.84	24.4596
2206.27	24.3883
2207.71	24.0175
2209.14	22.8935
2210.58	22.1539
2212.01	21.2858
2213.45	21.3789
2214.88	21.6066
2216.31	21.2943
2217.75	21.4141
2219.18	21.1505
2220.61	20.4198
2222.05	20.0744
2223.48	19.454
2224.91	17.927
2226.34	17.8196
2227.78	17.0175
2229.21	16.9408
2230.64	17.1148
2232.07	17.1474
2233.5	16.5656
2234.93	16.7457
2236.36	16.748
2237.79	16.138
2239.22	15.7196
2240.65	16.2346
2242.08	16.2075
2243.5	15.4201
2244.93	15.0295
2246.36	14.5494
2247.79	14.6603
2249.22	14.8146
2250.64	15.0255
2252.07	14.9957
2253.5	15.221
2254.92	15.3991
2256.35	15.459
2257.78	15.8702
2259.2	15.89
2260.63	15.5246
2262.05	15.3643
2263.48	15.0814
2264.9	14.9371
2266.33	14.5565
2267.75	14.7681
2269.18	14.2697
2270.6	13.4111
2272.02	13.5727
2273.45	13.0372
2274.87	12.4322
2276.29	12.1765
2277.71	12.1123
2279.14	11.2637
2280.56	11.2615
2281.98	11.3386
2283.4	11.4897
2284.82	11.4916
2286.24	10.8883
2287.66	9.97833
2289.08	9.60851
2290.5	8.77746
2291.92	8.01627
2293.34	6.94246
2294.76	6.4074
2296.18	6.22675
2297.6	7.13578
2299.02	7.3081
2300.44	8.02434
2301.86	9.05362
2303.27	9.39047
2304.69	9.94053
2306.11	10.5979
2307.53	10.8164
2308.94	11.0263
2310.36	11.3355
2311.78	11.5701
2313.19	11.6378
2314.61	11.6128
2316.02	11.8856
2317.44	12.5107
2318.85	13.4453
2320.27	14.2278
2321.68	14.306
2323.1	14.145
2324.51	13.7843
2325.92	13.4281
2327.34	13.6527
2328.75	13.1445
2330.16	12.932
2331.58	12.6237
2332.99	12.4841
2334.4	12.119
2335.81	12.0397
2337.23	11.8187
2338.64	11.4594
2340.05	11.1066
2341.46	11.1718
2342.87	11.5788
2344.28	10.7429
2345.69	9.59585
2347.1	9.54244
2348.51	9.07355
2349.92	8.81483
2351.33	8.49346
2352.74	7.73485
2354.15	6.41415
2355.55	5.32649
2356.96	4.90777
2358.37	4.44672
2359.78	3.92641
2361.19	3.30803
2362.59	3.55206
2364	3.25798
2365.41	3.8758
2366.81	4.41658
2368.22	5.36552
2369.62	5.42946
2371.03	5.95407
2372.44	6.03585
2373.84	5.39956
2375.24	5.76058
2376.65	5.77541
2378.05	5.58311
2379.46	5.10152
2380.86	4.76677
2382.26	4.95475
2383.67	5.28695
2385.07	4.93542
2386.47	4.68157
2387.88	4.83008
2389.28	4.51209
2390.68	4.52526
2392.08	3.80495
2393.48	3.36136
2394.89	3.32361
2396.29	3.2258
2397.69	3.17365
2399.09	2.99342
2400.49	3.02748
2401.89	3.78581
2403.29	4.66756
2404.69	5.29009
2406.09	6.34132
2407.48	6.52158
2408.88	7.20295
2410.28	7.7993
2411.68	7.54612
2413.08	7.41358
2414.48	7.07335
2415.87	7.34926
2417.27	7.82877
2418.67	7.38223
2420.06	7.58069
2421.46	7.1712
2422.86	7.07473
2424.25	7.38152
2425.65	7.23046
2427.04	6.76378
2428.44	6.93837
2429.83	6.83937
2431.23	7.10172
2432.62	7.05354
2434.02	6.59327
2435.41	6.44435
2436.81	6.96667
2438.2	7.08709
2439.59	6.91125
2440.99	6.73602
2442.38	6.2873
2443.77	6.11896
2445.16	5.75292
2446.56	5.28648
2447.95	4.66658
2449.34	3.67658
2450.73	3.85816
2452.12	3.76211
2453.51	3.51024
2454.9	2.70879
2456.29	2.56243
2457.68	2.44028
2459.07	1.87159
2460.46	2.00155
2461.85	1.67281
2463.24	1.32848
2464.63	1.53885
2466.02	1.47906
2467.4	1.71536
2468.79	2.51506
2470.18	2.81805
2471.57	3.20333
2472.95	3.03245
2474.34	2.60994
2475.73	1.84152
2477.12	1.65543
2478.5	1.6486
2479.89	0.810358
2481.27	0.444779
2482.66	0.437376
2484.04	0.0909089
2485.43	0.186491
2486.81	-0.340612
2488.2	0.130561
2489.58	0.141139
2490.97	-0.314664
2492.35	-0.145413
2493.73	-0.385538
2495.12	-0.804029
2496.5	-0.592807
2497.88	-0.0699445
2499.27	-0.099323
2500.65	0.132047
2502.03	-0.135942
2503.41	-0.043967
2504.79	0.372203
2506.17	1.07271
2507.56	1.20754
2508.94	1.02202
2510.32	0.971031
2511.7	0.745147
2513.08	0.923498
2514.46	0.70532
2515.84	0.847537
2517.22	0.826222
2518.59	0.567364
2519.97	1.19394
2521.35	1.1408
2522.73	1.21939
2524.11	1.44541
2525.49	2.07945
2526.86	2.46063
2528.24	2.5104
2529.62	3.0283
2530.99	2.71387
2532.37	2.92907
2533.75	3.32068
2535.12	3.40894
2536.5	3.57829
2537.88	3.99097
2539.25	3.50005
2540.63	3.76872
2542	3.78696
2543.38	3.39158
2544.75	3.40324
2546.12	3.21723
2547.5	3.18312
2548.87	3.0677
2550.24	2.78288
2551.62	2.31024
2552.99	2.27227
2554.36	2.1232
2555.74	2.15786
2557.11	2.45182
2558.48	1.98943
2559.85	2.23695
2561.22	2.20749
2562.59	2.39348
2563.96	2.51089
2565.34	2.51671
2566.71	2.77341
2568.08	2.89923
2569.45	2.80716
2570.82	3.09366
2572.18	3.72501
2573.55	4.34393
2574.92	4.62024
2576.29	4.29051
2577.66	4.06954
2579.03	4.14837
2580.4	4.28878
2581.77	4.47118
2583.13	3.93114
2584.5	3.7503
2585.87	4.04789
2587.23	4.59293
2588.6	5.39507
2589.97	5.50929
2591.33	5.24912
2592.7	5.49487
2594.06	5.33285
2595.43	5.40404
2596.79	4.82478
2598.16	4.53689
2599.52	4.38032
2600.89	4.55322
2602.25	4.41712
2603.62	4.60935
2604.98	4.27836
2606.34	3.85451
2607.71	3.0456
2609.07	2.84294
2610.43	2.5189
2611.79	2.29821
2613.16	1.99538
2614.52	1.12744
2615.88	1.16761
2617.24	0.274916
2618.6	-0.193239
2619.96	-0.334206
2621.32	-0.160237
2622.68	-0.541644
2624.04	-0.0703179
2625.4	-0.388095
2626.76	-0.58563
2628.12	-0.640049
2629.48	-1.54829
2630.84	-1.38103
2632.2	-1.58216
2633.56	-1.55819
2634.92	-1.50455
2636.28	-1.18623
2637.63	-0.81068
2638.99	-0.48364
2640.35	-0.224469
2641.71	0.18832
2643.06	0.224846
2644.42	0.34846
2645.77	1.13651
2647.13	1.44933
2648.49	1.71037
2649.84	2.21399
2651.2	2.51732
2652.55	2.64526
2653.91	3.11523
2655.26	3.46841
2656.62	3.0322
2657.97	2.76358
2659.33	2.39745
2660.68	3.03611
2662.03	3.48807
2663.39	3.70814
2664.74	3.76903
2666.09	4.08377
2667.44	4.3537
2668.8	4.79954
2670.15	4.7463
2671.5	4.79603
2672.85	4.99207
2674.2	5.1402
2675.55	5.54107
2676.91	6.30836
2678.26	6.68217
2679.61	6.21583
2680.96	5.71874
2682.31	5.23473
2683.66	5.49944
2685	5.40947
2686.35	5.7782
2687.7	5.65731
2689.05	5.68772
2690.4	5.47722
2691.75	6.29797
2693.1	6.25394
2694.44	6.16589
2695.79	5.6958
2697.14	5.45188
2698.49	6.42541
2699.83	6.56734
2701.18	6.82406
2702.52	7.22251
2703.87	7.57984
2705.22	8.10854
2706.56	8.67008
2707.91	9.18831
2709.25	9.90237
2710.6	9.74693
2711.94	9.88965
2713.29	10.3163
2714.63	10.448
2715.97	10.7614
2717.32	10.908
2718.66	10.4435
2720.01	9.95882
2721.35	10.3992
2722.69	10.234
2724.03	10.3029
2725.38	10.285
2726.72	9.95457
2728.06	10.1117
2729.4	9.82131
2730.74	9.45139
2732.08	9.35695
2733.42	9.5945
2734.76	9.97826
2736.1	9.85856
2737.44	9.71629
2738.78	10.249
2740.12	10.5444
2741.46	10.4078
2742.8	10.3125
2744.14	10.2083
2745.48	10.021
2746.82	9.23027
2748.16	9.11109
2749.49	9.40812
2750.83	9.71583
2752.17	9.80509
2753.51	10.1344
2754.84	9.98536
2756.18	9.95471
2757.52	9.95671
2758.85	9.93686
2760.19	8.9712
2761.53	8.45486
2762.86	7.89309
2764.2	7.86939
2765.53	7.92321
2766.87	7.43189
2768.2	7.63863
2769.54	7.34768
2770.87	7.498
2772.2	7.34071
2773.54	7.06288
2774.87	7.10008
2776.2	7.48393
2777.54	6.84054
2778.87	6.0836
2780.2	6.01206
2781.53	5.48146
2782.87	4.86408
2784.2	4.24691
2785.53	4.19665
2786.86	4.18523
2788.19	4.52549
2789.52	3.88493
2790.85	3.70946
2792.18	3.01385
2793.51	2.84312
2794.84	3.14431
2796.17	3.71576
2797.5	4.12197
2798.83	3.83579
2800.16	4.26116
2801.49	4.31927
2802.82	4.24054
2804.15	4.52269
2805.47	4.95621
2806.8	5.62415
2808.13	5.59029
2809.46	5.6161
2810.78	5.51867
2812.11	5.99224
2813.44	6.09142
2814.76	6.4216
2816.09	7.03311
2817.42	7.3918
2818.74	8.14084
2820.07	8.35044
2821.39	8.8152
2822.72	9.52922
2824.04	10.8682
2825.37	11.3642
2826.69	12.0598
2828.02	13.6501
2829.34	14.7134
2830.66	16.2881
2831.99	18.1209
2833.31	19.8836
2834.63	21.6286
2835.96	23.0089
2837.28	24.2864
2838.6	25.9712
2839.92	28.1624
2841.24	30.1438
2842.57	32.0253
2843.89	33.5268
2845.21	35.7353
2846.53	38.8898
2847.85	41.8765
2849.17	44.5776
2850.49	47.7121
2851.81	50.3544
2853.13	52.7542
2854.45	55.2537
2855.77	57.3035
2857.09	60.5573
2858.41	63.3473
2859.72	65.9502
2861.04	68.8922
2862.36	71.2222
2863.68	73.3734
2865	75.5724
2866.31	78.3505
2867.63	80.3444
2868.95	82.6881
2870.26	84.6299
2871.58	86.6666
2872.9	88.1631
2874.21	89.4997
2875.53	90.9437
2876.84	92.6908
2878.16	94.5019
2879.47	95.4547
2880.79	96.5517
2882.1	97.5327
2883.42	98.4639
2884.73	100.154
2886.05	101.316
2887.36	103.748
2888.67	105.504
2889.99	107.356
2891.3	108.622
2892.61	110.328
2893.92	111.561
2895.24	112.976
2896.55	115.075
2897.86	117.479
2899.17	119.501
2900.48	121.374
2901.79	123.656
2903.11	125.989
2904.42	129.196
2905.73	132.226
2907.04	135.316
2908.35	138.454
2909.66	141.278
2910.97	145.31
2912.27	149.372
2913.58	152.649
2914.89	155.663
2916.2	158.579
2917.51	161.367
2918.82	164.323
2920.13	166.727
2921.43	169.428
2922.74	171.907
2924.05	173.312
2925.35	174.187
2926.66	175.507
2927.97	176.27
2929.27	177.053
2930.58	177.614
2931.89	177.599
2933.19	177.249
2934.5	177.254
2935.8	176.52
2937.11	175.376
2938.41	174.44
2939.72	172.938
2941.02	171.435
2942.32	169.445
2943.63	166.847
2944.93	164.217
2946.24	162.185
2947.54	160.179
2948.84	158.455
2950.14	157.111
2951.45	154.767
2952.75	152.254
2954.05	149.064
2955.35	146.664
2956.65	143.437
2957.95	140.52
2959.26	137.619
2960.56	135.793
2961.86	132.903
2963.16	130.012
2964.46	127.006
2965.76	124.189
2967.06	121.549
2968.36	119.301
2969.66	116.93
2970.96	114.4
2972.25	112.147
2973.55	109.661
2974.85	107.598
2976.15	106.328
2977.45	103.568
2978.74	100.732
2980.04	98.2103
2981.34	94.9064
2982.64	92.1243
2983.93	89.1114
2985.23	85.8877
2986.52	83.5679
2987.82	80.2193
2989.12	77.146
2990.41	74.0715
2991.71	71.5777
2993	69.2813
2994.3	66.715
2995.59	64.3676
2996.89	61.2734
2998.18	58.3868
2999.48	56.1487
3000.77	53.8483
3002.06	51.1039
3003.36	48.6903
3004.65	46.1292
3005.94	43.6878
3007.23	41.039
3008.53	39.2804
3009.82	37.2981
3011.11	36.0881
3012.4	34.3868
3013.69	32.7391
3014.99	31.1742
3016.28	28.7846
3017.57	27.4736
3018.86	26.6754
3020.15	25.6317
3021.44	24.1467
3022.73	23.0752
3024.02	21.946
3025.31	21.2343
3026.6	19.9552
3027.89	19.3779
3029.18	18.9609
3030.46	18.4237
3031.75	18.2003
3033.04	18.1699
3034.33	18.0927
3035.62	18.3215
3036.9	18.6953
3038.19	18.3982
3039.48	18.7446
3040.76	18.7802
3042.05	18.9763
3043.34	19.5257
3044.62	19.782
3045.91	20.0388
3047.19	20.3492
3048.48	20.7523
3049.77	21.2415
3051.05	22.0332
3052.34	22.0356
3053.62	22.2219
3054.9	22.6851
3056.19	22.85
3057.47	23.3163
3058.76	22.9645
3060.04	22.8132
3061.32	22.3653
3062.61	22.145
3063.89	21.9924
3065.17	21.2279
3066.45	20.2574
3067.74	19.4397
3069.02	18.6444
3070.3	17.5616
3071.58	17.153
3072.86	16.8456
3074.14	16.1008
3075.42	15.7855
3076.7	15.2173
3077.99	14.9148
3079.26	13.7461
3080.54	13.0384
3081.82	12.7972
3083.1	11.6309
3084.38	10.7306
3085.66	10.0327
3086.94	8.73959
3088.22	8.07044
3089.5	7.28211
3090.78	6.33856
3092.05	5.48184
3093.33	4.77681
3094.61	4.06524
3095.89	3.76105
3097.16	3.34951
3098.44	3.23533
3099.72	3.31859
3100.99	2.83802
3102.27	2.48366
3103.54	2.78114
3104.82	2.81916
3106.1	3.06004
3107.37	3.22872
3108.65	3.18744
3109.92	2.97633
3111.2	2.47646
3112.47	2.88749
3113.74	2.94521
3115.02	2.9643
3116.29	2.66681
3117.56	2.63939
3118.84	2.86713
3120.11	2.77612
3121.38	2.8161
3122.66	2.49668
3123.93	2.63754
3125.2	2.47177
3126.47	2.06231
3127.74	1.88344
3129.01	1.81254
3130.29	1.99658
3131.56	2.01628
3132.83	2.21059
3134.1	2.51298
3135.37	3.11618
3136.64	3.35793
3137.91	3.09615
3139.18	2.96764
3140.45	2.8064
3141.72	2.45187
3142.99	2.06286
3144.26	2.02308
3145.52	1.99026
3146.79	2.15261
3148.06	2.26642
3149.33	3.00184
