#Acq. time (s)=	45
#Accumulations=	2
#Range (cm-¹)=	200...3150
#Windows=	2
#Auto scanning=	Off
#Autofocus=	Off
#Macrospot=	Off
#AutoExposure=	Off
#Spike filter=	Multiple accum.
#Delay time (s)=	0
#Binning=	1
#Readout mode=	Signal
#DeNoise=	Off
#ICS correction=	On
#Dark correction=	Off
#Inst. Process=	Off
#Detector Gain=	Best Dynamic Range
#Detector ADC=	20 kHz       
#Detector temperature (°C)=	-69.85
#Instrument=	LabRAM HR Evol
#Detector=	Synapse
#Objective=	x100
#Grating=	600 gr/mm
#ND Filter=	100%
#Laser (nm)=	532 
#Hole=	100.021
#Range=	Auto
#Laser Pol.=	No
#Raman. Pol.=	No
#Laser Pol. (°)=	-0.0007625
#Raman Pol. (°)=	89.9995
#Collection=	Microscope
#StageXY=	Marzhauser
#StageZ=	Marzhauser
#X (µm)=	2155.6
#Y (µm)=	1216.2
#Z (µm)=	442.65
#Full time(mm:ss)=	3:05
#Project=	
#Sample=	
#Site=	
#Title=	Thy_10_08_03_2x_45s_532 nm_x100_100%_600 gr_mm
#Remark=	
#Date=	05.07.2022 14:25
#Acquired=	05.07.2022 14:25:03
#Base:Fit=	10.08.2022 09:45:33
#Base:Fit=	10.08.2022 09:46:03
#Base:Fit=	10.08.2022 09:46:25
#Base:Sub=	10.08.2022 09:46:49
#Filter:Polynom=	16.08.2022 10:24:56
#AxisType[0]=Intens
#AxisUnit[0]=Cnt
#AxisType[1]=Spectr
#AxisUnit[1]=1/cm
200.43	4.49631
202.244	6.36959
204.059	8.3945
205.873	8.78211
207.688	9.77622
209.501	10.3767
211.314	11.2805
213.127	11.4079
214.941	12.3723
216.753	13.4708
218.564	13.4781
220.375	13.4874
222.186	13.712
223.999	14.6232
225.809	14.4046
227.618	14.7421
229.428	15.3634
231.236	15.5378
233.045	15.8591
234.855	16.3739
236.663	16.7296
238.471	17.3604
240.278	17.3296
242.085	17.8403
243.891	18.6318
245.698	19.3572
247.503	20.0143
249.309	19.5001
251.116	19.5152
252.921	19.3667
254.725	19.0071
256.529	19.7713
258.333	20.6356
260.136	20.9203
261.939	21.5277
263.742	22.0189
265.544	22.4937
267.346	21.3919
269.148	21.6671
270.949	21.2283
272.75	20.7306
274.55	20.2725
276.351	19.9728
278.15	19.9814
279.95	19.8793
281.749	19.0087
283.548	18.3346
285.346	16.6333
287.144	16.0064
288.942	15.5535
290.739	14.6893
292.536	14.7877
294.333	14.8068
296.129	14.7194
297.925	13.6265
299.721	13.6047
301.514	13.5905
303.309	13.4157
305.104	13.823
306.898	13.0353
308.692	12.9523
310.486	13.0959
312.279	13.7612
314.072	14.0069
315.862	13.1667
317.654	14.2042
319.446	14.1875
321.238	14.7025
323.029	15.1968
324.819	15.3956
326.608	15.2074
328.398	15.2844
330.188	15.6693
331.977	16.0493
333.766	15.5092
335.553	15.9385
337.341	15.9036
339.129	16.0358
340.917	17.3338
342.704	17.8731
344.489	17.6195
346.275	17.4722
348.062	17.579
349.845	17.1905
351.631	16.8042
353.416	16.7847
355.201	15.9511
356.984	14.6869
358.768	15.3216
360.552	15.4272
362.333	14.7606
364.116	14.8217
365.899	14.2056
367.68	13.4198
369.462	12.8064
371.243	12.6515
373.023	12.5154
374.804	11.8549
376.585	12.0631
378.363	11.4142
380.143	11.3001
381.923	12.6861
383.7	12.8177
385.479	12.0953
387.256	12.4706
389.034	12.4314
390.812	13.0006
392.588	13.5519
394.365	13.1061
396.14	13.7207
397.916	14.1886
399.691	14.2023
401.467	14.8164
403.24	14.7306
405.015	14.3144
406.788	14.4731
408.563	13.5221
410.335	13.47
412.109	12.3193
413.88	11.4643
415.654	10.9699
417.424	11.5443
419.197	11.6326
420.967	11.42
422.739	11.3021
424.508	11.4021
426.279	11.1518
428.048	11.5803
429.819	11.2502
431.587	10.3189
433.356	9.68694
435.124	9.06421
436.891	8.98544
438.66	8.41156
440.426	8.33088
442.194	8.3767
443.96	7.60778
445.725	8.05977
447.492	8.55547
449.257	8.3635
451.021	7.09275
452.787	7.50187
454.551	7.33774
456.314	7.28115
458.079	7.66803
459.842	7.37242
461.604	7.10727
463.368	6.81935
465.13	7.05151
466.891	7.23517
468.654	7.40178
470.415	7.38459
472.175	6.8473
473.935	6.65953
475.696	7.04586
477.456	7.71519
479.215	8.07305
480.973	8.77677
482.733	9.07624
484.491	9.54575
486.249	9.86519
488.006	10.2109
489.765	10.5003
491.522	10.2701
493.278	9.65562
495.034	9.72116
496.789	10.0908
498.544	10.9045
500.301	10.9363
502.056	11.5399
503.81	11.8642
505.564	12.5062
507.317	12.6856
509.071	13.6307
510.825	13.5087
512.578	13.1719
514.33	14.3964
516.082	14.0472
517.833	13.3036
519.585	12.6014
521.335	12.4909
523.086	12.114
524.836	12.172
526.586	12.7685
528.335	12.6762
530.085	12.5567
531.835	12.2229
533.584	12.4693
535.332	11.6829
537.08	11.4849
538.827	10.2696
540.574	10.5222
542.321	10.3078
544.068	9.10555
545.814	8.9327
547.56	7.75459
549.305	7.18358
551.05	6.48674
552.795	5.42094
554.54	4.24205
556.282	3.18922
558.025	2.67248
559.769	3.12677
561.512	2.71261
563.255	2.55805
564.997	2.22725
566.739	0.99973
568.481	1.27231
570.223	0.697721
571.964	0.477477
573.705	0.64413
575.443	0.0427188
577.183	-0.00381055
578.923	-0.415159
580.663	-0.433301
582.402	-0.616441
584.141	-0.617986
585.879	-0.807657
587.615	-1.30959
589.353	-1.55852
591.09	-1.30616
592.828	-0.471381
594.564	0.183587
596.299	0.61818
598.035	0.102378
599.771	-0.292542
601.506	-0.130051
603.242	-0.15104
604.974	-0.0497429
606.709	0.0869823
608.443	0.900328
610.177	1.2578
611.908	2.36975
613.642	3.04246
615.374	2.62147
617.105	2.97476
618.837	2.89318
620.569	3.31827
622.3	3.50284
624.03	4.48017
625.761	4.70062
627.491	5.48182
629.219	5.53814
630.949	6.28105
632.677	6.95351
634.406	6.82117
636.135	7.64028
637.861	8.16249
639.59	8.71972
641.318	8.87956
643.043	9.67159
644.77	10.5841
646.495	10.9376
648.222	11.3824
649.948	11.9104
651.672	11.6324
653.398	12.4624
655.121	13.3081
656.846	13.5559
658.569	14.2979
660.293	14.8882
662.015	14.8756
663.738	14.7432
665.46	14.8868
667.183	15.0119
668.903	14.5449
670.626	14.4782
672.346	14.7183
674.067	15.4417
675.787	15.7634
677.508	17.0341
679.226	18.1197
680.947	19.5596
682.665	19.8069
684.385	19.9868
686.102	20.2949
687.821	21.1321
689.538	22.1645
691.254	22.5459
692.972	23.3658
694.688	24.0567
696.406	24.8902
698.121	25.6725
699.835	25.6704
701.552	26.34
703.266	27.0877
704.98	28.4192
706.695	29.3602
708.409	29.9951
710.121	30.7906
711.836	31.4075
713.548	32.4006
715.26	33.2802
716.973	34.4878
718.685	34.8574
720.396	36.3768
722.108	37.1775
723.818	38.2713
725.528	39.3545
727.238	39.8117
728.949	41.0631
730.658	42.486
732.367	43.2843
734.075	44.242
735.785	44.733
737.493	45.3438
739.2	46.9367
740.907	47.0741
742.614	47.4926
744.322	49.1985
746.028	49.4135
747.734	49.7325
749.439	50.8639
751.144	52.0814
752.849	52.8104
754.555	53.7049
756.26	55.5559
757.963	57.6144
759.667	58.8805
761.37	59.9311
763.073	61.4208
764.775	63.1671
766.477	63.8199
768.179	64.4128
769.883	65.8744
771.584	67.2337
773.285	67.5408
774.986	68.8051
776.686	69.4387
778.386	69.4447
780.085	69.5392
781.785	70.3523
783.484	70.9573
785.182	71.5009
786.881	71.7053
788.579	71.9617
790.276	73.1165
791.974	73.1872
793.671	73.7213
795.367	74.6708
797.064	75.4731
798.76	76.3342
800.456	76.9692
802.151	77.3334
803.846	78.9837
805.541	80.2568
807.234	81.0783
808.928	82.9298
810.622	83.4936
812.315	83.8804
814.008	83.892
815.701	84.4051
817.394	84.0168
819.086	83.4292
820.778	83.3668
822.468	83.5812
824.159	84.3318
825.85	84.4524
827.541	84.466
829.231	84.539
830.921	83.752
832.609	83.927
834.298	83.4991
835.987	82.5113
837.676	82.1005
839.364	81.6915
841.051	80.8553
842.738	79.6016
844.426	78.3992
846.113	78.0629
847.798	76.881
849.484	75.713
851.171	73.9682
852.857	73.4326
854.54	71.5887
856.226	69.7339
857.911	67.4769
859.593	66.6804
861.278	64.4405
862.961	62.6558
864.645	61.5694
866.327	60.6279
868.01	59.6577
869.692	58.448
871.373	57.1281
873.055	56.3248
874.735	55.9205
876.416	54.6495
878.097	54.8256
879.776	53.9428
881.457	53.079
883.135	52.9213
884.815	53.1534
886.495	53.1323
888.172	53.9683
889.851	53.662
891.528	53.5829
893.206	53.7689
894.882	53.1875
896.56	53.6225
898.237	53.4339
899.912	54.0969
901.589	53.834
903.263	53.8263
904.94	53.9391
906.614	54.9992
908.289	55.2882
909.962	54.5633
911.635	53.95
913.31	53.7335
914.982	55.2118
916.656	54.6357
918.328	53.8571
920.001	54.0388
921.672	53.1983
923.345	52.475
925.015	52.5868
926.685	52.3126
928.357	52.206
930.026	52.0666
931.698	51.1683
933.366	50.3872
935.035	49.9996
936.705	49.8439
938.373	48.9076
940.041	48.3243
941.71	47.8133
943.377	47.6121
945.044	46.8826
946.712	45.6661
948.378	44.798
950.044	43.3631
951.709	42.2572
953.376	40.9798
955.041	39.3513
956.706	38.4384
958.372	37.1131
960.036	36.0673
961.699	35.4162
963.362	34.0312
965.027	34.2451
966.69	34.6575
968.352	34.3403
970.014	34.7827
971.676	34.9999
973.339	35.032
975	35.1491
976.661	35.8267
978.322	36.0235
979.982	35.7585
981.642	35.1646
983.303	35.052
984.962	34.5236
986.621	33.8979
988.28	33.6469
989.938	33.5273
991.596	32.4149
993.254	31.8372
994.911	31.6595
996.57	31.0437
998.227	30.5926
999.884	28.8162
1001.54	28.6197
1003.2	28.4005
1004.85	27.3398
1006.51	27.4013
1008.16	27.2222
1009.82	26.8963
1011.47	26.8026
1013.12	26.7182
1014.78	25.8365
1016.43	25.2262
1018.08	25.3573
1019.74	24.5077
1021.39	23.9178
1023.04	23.056
1024.69	22.6902
1026.34	23.0516
1028	21.9165
1029.65	20.4101
1031.3	19.9279
1032.95	18.9499
1034.6	18.3222
1036.25	17.4613
1037.9	17.1438
1039.54	17.0428
1041.19	16.6332
1042.84	17.3243
1044.49	17.49
1046.14	18.1996
1047.78	19.295
1049.43	19.9334
1051.08	20.165
1052.72	20.0355
1054.37	19.1927
1056.02	19.4695
1057.66	20.3056
1059.31	20.74
1060.95	20.4527
1062.6	19.2941
1064.24	19.5669
1065.88	18.8497
1067.53	18.6137
1069.17	17.8145
1070.81	17.7391
1072.45	17.5544
1074.1	17.7163
1075.74	16.9145
1077.38	16.4369
1079.02	15.7626
1080.66	15.5867
1082.3	15.5098
1083.94	15.0078
1085.58	13.9071
1087.22	12.9864
1088.86	11.9815
1090.5	11.9354
1092.14	10.9447
1093.78	10.1262
1095.42	10.3735
1097.05	10.1186
1098.69	10.0119
1100.33	9.82374
1101.96	9.53077
1103.6	10.1504
1105.24	10.3927
1106.87	11.0108
1108.51	11.3299
1110.14	10.1158
1111.78	10.0303
1113.41	10.4805
1115.05	10.1472
1116.68	10.0377
1118.31	10.3558
1119.95	10.6844
1121.58	10.8421
1123.21	10.898
1124.85	11.2961
1126.48	11.205
1128.11	11.3261
1129.74	11.057
1131.37	10.1904
1133	9.66813
1134.63	9.23374
1136.26	10.4146
1137.89	10.6702
1139.52	11.1878
1141.15	10.7351
1142.78	9.8607
1144.41	9.64031
1146.04	10.365
1147.66	10.1798
1149.29	9.9809
1150.92	9.88436
1152.55	9.13135
1154.17	8.12284
1155.8	7.98139
1157.43	6.86572
1159.05	6.67114
1160.68	5.75094
1162.3	4.53981
1163.93	3.96126
1165.55	2.87792
1167.17	2.03119
1168.8	1.63296
1170.42	1.86165
1172.05	2.56693
1173.67	2.1434
1175.29	2.94915
1176.91	2.80886
1178.54	2.90371
1180.16	3.12223
1181.78	3.86302
1183.4	4.36872
1185.02	4.60261
1186.64	5.06772
1188.26	5.75345
1189.88	5.92978
1191.5	6.44408
1193.12	7.00513
1194.74	7.40688
1196.36	7.72251
1197.97	8.98272
1199.59	9.90408
1201.21	10.3008
1202.83	11.0802
1204.44	12.457
1206.06	13.4021
1207.68	14.2845
1209.29	15.5682
1210.91	17.1619
1212.52	18.7182
1214.14	20.9836
1215.75	22.7104
1217.37	23.9927
1218.98	25.2727
1220.59	27.2487
1222.21	27.8288
1223.82	28.8936
1225.43	30.4971
1227.05	31.7078
1228.66	31.9091
1230.27	33.0553
1231.88	33.2214
1233.49	32.8013
1235.1	33.6767
1236.72	34.4912
1238.33	34.5712
1239.94	34.9044
1241.55	35.0512
1243.16	35.8428
1244.76	36.7833
1246.37	36.9834
1247.98	37.1077
1249.59	37.5295
1251.2	37.7039
1252.8	38.3104
1254.41	37.8762
1256.02	37.7088
1257.62	37.5685
1259.23	38.4541
1260.84	38.5978
1262.44	38.8744
1264.05	38.6294
1265.66	38.5406
1267.26	39.1424
1268.86	39.8146
1270.47	39.9915
1272.07	40.9878
1273.67	41.6059
1275.28	42.2143
1276.88	43.4122
1278.48	43.454
1280.09	44.1595
1281.69	45.0205
1283.29	46.2728
1284.89	47.1741
1286.49	46.8965
1288.09	47.6533
1289.69	48.3127
1291.29	48.125
1292.89	48.6398
1294.49	49.0297
1296.09	49.0517
1297.69	49.6767
1299.29	50.7646
1300.89	50.6655
1302.49	50.4268
1304.08	51.8423
1305.68	51.9912
1307.28	52.7015
1308.88	53.3365
1310.47	54.278
1312.07	54.1481
1313.66	55.1744
1315.26	55.6899
1316.85	56.2788
1318.45	56.9313
1320.04	57.9346
1321.64	58.4995
1323.23	58.715
1324.83	58.2335
1326.42	58.141
1328.01	58.1045
1329.61	58.4211
1331.2	57.4259
1332.79	56.8433
1334.38	55.5845
1335.97	55.0243
1337.56	54.5221
1339.16	53.7985
1340.75	52.9861
1342.34	52.0866
1343.93	51.3201
1345.52	50.8344
1347.11	50.8148
1348.7	50.7812
1350.29	50.0075
1351.87	49.168
1353.46	47.3065
1355.05	46.349
1356.64	45.2289
1358.22	43.7135
1359.81	43.2511
1361.4	41.5123
1362.98	39.6272
1364.57	37.8142
1366.16	36.2195
1367.74	35.5166
1369.33	34.1929
1370.91	32.7619
1372.5	32.7254
1374.08	31.7935
1375.67	31.2182
1377.25	30.6068
1378.83	30.5787
1380.41	30.3468
1382	30.5154
1383.58	31.1477
1385.16	31.0493
1386.74	31.8219
1388.33	32.3467
1389.91	32.0416
1391.49	32.0432
1393.07	32.1422
1394.65	31.5241
1396.23	32.5967
1397.81	33.0565
1399.39	33.0397
1400.97	32.2704
1402.55	32.021
1404.13	32.4793
1405.7	32.0409
1407.28	32.488
1408.86	32.1306
1410.44	32.8682
1412.01	34.0835
1413.59	35.7746
1415.17	37.4745
1416.74	38.743
1418.32	40.1366
1419.89	41.4794
1421.47	43.7062
1423.04	45.5053
1424.62	47.3905
1426.19	49.6476
1427.77	51.0385
1429.34	52.4965
1430.91	54.4124
1432.49	55.557
1434.06	58.0781
1435.63	59.1251
1437.2	61.6158
1438.78	62.6023
1440.35	63.9017
1441.92	63.9764
1443.49	64.5248
1445.06	64.9445
1446.63	65.1078
1448.2	64.6232
1449.77	64.5213
1451.34	64.2601
1452.91	64.3235
1454.48	63.2826
1456.05	62.8115
1457.62	61.6212
1459.18	59.9605
1460.75	58.4103
1462.32	57.0007
1463.89	55.1042
1465.45	52.3774
1467.02	50.5087
1468.59	48.2215
1470.15	45.7453
1471.72	42.936
1473.28	39.5051
1474.85	37.9471
1476.41	34.8379
1477.98	32.0481
1479.54	29.8394
1481.1	27.2542
1482.67	24.992
1484.23	22.557
1485.79	21.4016
1487.36	20.8925
1488.92	20.1228
1490.48	18.5315
1492.04	17.5107
1493.61	16.291
1495.17	14.7435
1496.73	14.3448
1498.29	13.134
1499.85	12.8712
1501.41	11.9353
1502.97	11.944
1504.53	11.6318
1506.09	11.2547
1507.65	12.1389
1509.2	12.6697
1510.76	12.733
1512.32	13.356
1513.88	13.9455
1515.43	14.3351
1516.99	13.6436
1518.55	13.8997
1520.1	13.7392
1521.66	14.0809
1523.22	14.9774
1524.77	15.3397
1526.33	15.4525
1527.88	16.8605
1529.44	17.6594
1530.99	18.9639
1532.54	18.9365
1534.1	20.0951
1535.65	20.5925
1537.21	21.1662
1538.76	21.6981
1540.31	22.6052
1541.86	23.1067
1543.42	23.18
1544.97	24.1992
1546.52	24.5185
1548.07	24.5808
1549.62	25.069
1551.17	26.762
1552.72	28.2029
1554.27	28.6968
1555.82	29.2675
1557.37	29.9079
1558.92	30.989
1560.47	31.794
1562.02	32.42
1563.56	32.9514
1565.11	34.0489
1566.66	34.398
1568.21	35.0885
1569.75	35.8887
1571.3	37.1232
1572.85	37.3385
1574.39	37.8708
1575.94	37.6176
1577.49	37.6652
1579.03	38.7408
1580.57	39.5434
1582.12	40.2135
1583.66	41.9616
1585.21	42.9425
1586.75	43.2866
1588.3	43.332
1589.84	43.4541
1591.38	43.7695
1592.92	43.935
1594.47	44.5721
1596.01	45.0889
1597.55	44.3122
1599.09	44.6605
1600.63	45.2892
1602.17	44.6158
1603.71	43.8286
1605.25	43.9812
1606.79	43.4185
1608.33	43.8223
1609.87	43.4909
1611.41	42.7536
1612.95	41.754
1614.49	41.24
1616.03	41.5518
1617.57	41.528
1619.1	41.0612
1620.64	41.1837
1622.18	41.3849
1623.72	41.8197
1625.25	42.1306
1626.79	41.9873
1628.32	42.0412
1629.86	41.6927
1631.39	42.8062
1632.93	43.5437
1634.46	44.4135
1636	44.8875
1637.53	45.0062
1639.07	46.5149
1640.6	47.589
1642.13	49.0813
1643.67	49.8522
1645.2	50.2077
1646.73	51.1311
1648.26	51.7178
1649.8	52.012
1651.33	53.3108
1652.86	53.5987
1654.39	54.23
1655.92	55.0644
1657.45	55.6136
1658.98	55.8623
1660.51	55.8375
1662.04	54.6369
1663.57	54.5689
1665.1	53.1628
1666.63	52.391
1668.16	51.6789
1669.68	50.3088
1671.21	49.3889
1672.74	48.2328
1674.27	46.3615
1675.79	45.686
1677.32	43.7455
1678.85	41.442
1680.37	39.5379
1681.9	38.7323
1683.42	37.3828
1684.95	36.0979
1686.47	33.4216
1688	30.9111
1689.52	28.8074
1691.05	26.7258
1692.57	24.3
1694.09	22.2884
1695.62	20.3644
1697.14	18.5854
1698.66	16.1584
1700.18	14.6759
1701.71	13.2583
1703.23	11.5691
1704.75	11.4445
1706.27	11.0134
1707.79	10.2668
1709.31	8.55248
1710.83	7.106
1712.35	6.3293
1713.87	5.69168
1715.39	5.05616
1716.91	4.25291
1718.43	3.65553
1719.95	3.07352
1721.47	2.72471
1722.99	2.81696
1724.5	2.44064
1726.02	1.95617
1727.54	1.50773
1729.06	0.629956
1730.57	0.361362
1732.09	0.436168
1733.61	0.421633
1735.12	-0.0149827
1736.64	-0.524035
1738.15	-0.647516
1739.67	-0.979064
1741.18	-1.36608
1742.7	-0.636656
1744.21	-0.250629
1745.72	-0.0755618
1747.24	1.1598
1748.75	1.0794
1750.26	1.21236
1751.77	1.48914
1753.29	1.82417
1754.8	1.85809
1756.31	2.3368
1757.82	2.63728
1759.33	1.99048
1760.84	1.99682
1762.36	1.26366
1763.87	1.08016
1765.38	0.777063
1766.89	1.00861
1768.4	1.5604
1769.91	1.91098
1771.41	1.76724
1772.92	2.51691
1774.43	2.38245
1775.94	2.88533
1777.45	2.94698
1778.95	3.17732
1780.46	3.84135
1781.97	3.2515
1783.48	3.02764
1784.98	3.26895
1786.49	3.25848
1787.99	3.51312
1789.5	3.37856
1791.01	3.45948
1792.51	3.50342
1794.01	3.00816
1795.52	2.81039
1797.02	2.67765
1798.53	2.73025
1800.03	2.23344
1801.53	2.34651
1803.04	2.6631
1804.54	2.36499
1806.04	2.3094
1807.54	2.68479
1809.05	2.31039
1810.55	2.50916
1812.05	2.35768
1813.55	2.79676
1815.05	2.99109
1816.55	3.29336
1818.05	3.20182
1819.55	3.63028
1821.05	3.78948
1822.55	4.00054
1824.05	4.07632
1825.55	4.52038
1827.05	4.47309
1828.55	4.83611
1830.04	4.48918
1831.54	4.28459
1833.04	4.09572
1834.54	3.80461
1836.03	3.70099
1837.53	3.34871
1839.03	3.85349
1840.52	4.24657
1842.02	4.67906
1843.51	4.56366
1845.01	4.71619
1846.5	5.2881
1848	5.70793
1849.49	5.2757
1850.99	5.89219
1852.48	5.88628
1853.97	6.19999
1855.47	6.23665
1856.96	6.0546
1858.45	6.1404
1859.94	6.3299
1861.44	6.57129
1862.93	7.4741
1864.42	7.87604
1865.91	8.00155
1867.4	7.95868
1868.89	8.44702
1870.38	9.4438
1871.87	9.75924
1873.36	10.1293
1874.85	10.2788
1876.34	10.9468
1877.83	10.9924
1879.32	11.0726
1880.81	11.0936
1882.3	11.1003
1882.57	10.8111
1884.07	10.7171
1885.56	11.2598
1887.06	11.5434
1888.55	11.3607
1890.04	11.9077
1891.54	11.9757
1893.03	12.4155
1894.52	12.618
1896.02	12.4716
1897.51	12.9235
1899	12.6021
1900.49	12.6379
1901.98	12.4885
1903.47	12.1484
1904.96	11.8758
1906.45	11.2707
1907.94	11.0185
1909.43	10.4899
1910.92	10.5937
1912.41	11.0251
1913.9	10.9302
1915.39	10.545
1916.88	10.0344
1918.37	10.5179
1919.85	10.12
1921.34	10.4876
1922.83	10.4157
1924.32	10.2878
1925.8	10.0785
1927.29	10.0746
1928.78	9.85964
1930.26	9.57588
1931.75	9.51388
1933.23	8.96691
1934.72	8.76125
1936.2	9.12826
1937.69	8.60605
1939.17	8.20171
1940.66	8.38269
1942.14	8.53109
1943.63	8.38517
1945.11	7.94931
1946.59	7.96441
1948.07	7.8471
1949.56	7.98073
1951.04	8.12899
1952.52	8.57709
1954	8.592
1955.48	9.13074
1956.96	9.76329
1958.45	10.3125
1959.93	10.7703
1961.41	10.9668
1962.89	11.0011
1964.37	11.2676
1965.85	10.9996
1967.32	11.6061
1968.8	12.2037
1970.28	12.1197
1971.76	12.5886
1973.24	12.067
1974.72	12.5467
1976.19	12.1155
1977.67	12.2115
1979.15	11.9309
1980.63	11.9561
1982.1	12.2368
1983.58	12.1578
1985.05	12.8851
1986.53	13.3058
1988	13.2564
1989.48	13.2784
1990.95	13.5813
1992.43	13.9884
1993.9	13.4266
1995.38	14.2079
1996.85	13.7262
1998.32	14.0707
1999.8	14.0287
2001.27	14.0847
2002.74	13.6514
2004.22	13.7333
2005.69	13.5735
2007.16	13.2125
2008.63	13.7241
2010.1	13.7131
2011.57	12.9095
2013.04	12.002
2014.51	11.6419
2015.98	11.5674
2017.45	11.4491
2018.92	11.8282
2020.39	11.9809
2021.86	11.8771
2023.33	12.3736
2024.8	12.8719
2026.27	13.3382
2027.74	12.8858
2029.2	12.5719
2030.67	12.5632
2032.14	12.5968
2033.61	12.8096
2035.07	12.9175
2036.54	12.8579
2038.01	13.0308
2039.47	13.8525
2040.94	13.6222
2042.4	13.3338
2043.87	13.3515
2045.33	13.347
2046.8	13.0546
2048.26	13.0891
2049.72	12.514
2051.19	12.5422
2052.65	12.352
2054.12	12.2592
2055.58	12.0914
2057.04	11.976
2058.5	12.4069
2059.97	12.4795
2061.43	12.1386
2062.89	12.4383
2064.35	12.8826
2065.81	13.116
2067.27	13.6326
2068.73	14.5203
2070.19	15.1011
2071.65	15.4299
2073.11	15.5052
2074.57	15.6577
2076.03	15.0647
2077.49	14.7505
2078.95	14.5354
2080.41	14.4327
2081.87	14.861
2083.32	14.6355
2084.78	14.5199
2086.24	14.6352
2087.7	15.4787
2089.15	15.8506
2090.61	15.8445
2092.07	16.3011
2093.52	16.5081
2094.98	16.7526
2096.43	17.0802
2097.89	17.6496
2099.34	17.9833
2100.8	17.936
2102.25	17.9403
2103.71	18.2941
2105.16	18.0437
2106.61	18.1613
2108.07	18.1945
2109.52	18.8681
2110.97	19.3039
2112.43	19.1256
2113.88	18.4581
2115.33	18.1048
2116.78	18.1706
2118.23	17.4665
2119.68	17.3888
2121.13	17.7221
2122.59	17.5602
2124.04	17.8892
2125.49	17.8539
2126.94	18.4572
2128.39	18.8815
2129.83	19.5756
2131.28	20.3552
2132.73	20.6179
2134.18	21.2896
2135.63	22.4756
2137.08	23.2708
2138.53	23.1522
2139.97	23.9633
2141.42	24.6825
2142.87	25.3582
2144.31	25.6642
2145.76	26.919
2147.21	27.4825
2148.65	28.0638
2150.1	28.9438
2151.54	29.7492
2152.99	29.9975
2154.43	30.0214
2155.88	30.7509
2157.32	31.0924
2158.77	31.5689
2160.21	31.5128
2161.65	31.8186
2163.1	32.4678
2164.54	33.3095
2165.98	33.2807
2167.43	33.2721
2168.87	33.3585
2170.31	33.9773
2171.75	33.8351
2173.19	33.6808
2174.64	32.6762
2176.07	32.1974
2177.52	31.6816
2178.96	31.8517
2180.4	32.0308
2181.84	31.8423
2183.28	30.9695
2184.72	29.8544
2186.15	29.72
2187.59	28.9616
2189.03	28.9893
2190.47	28.748
2191.91	28.6345
2193.35	28.4992
2194.78	27.7853
2196.22	27.6147
2197.66	27.1811
2199.09	26.6765
2200.53	25.7237
2201.97	24.6089
2203.4	23.3435
2204.84	22.6614
2206.27	22.006
2207.71	21.5519
2209.14	20.7894
2210.58	20.3457
2212.01	20.0883
2213.45	19.4356
2214.88	19.2317
2216.31	18.9242
2217.75	18.6466
2219.18	17.6883
2220.61	16.9328
2222.05	16.6054
2223.48	15.482
2224.91	15.0537
2226.34	14.934
2227.78	15.6686
2229.21	14.8997
2230.64	14.4364
2232.07	13.8879
2233.5	13.4811
2234.93	13.1462
2236.36	12.6659
2237.79	11.4945
2239.22	11.554
2240.65	11.767
2242.08	12.1846
2243.5	12.5181
2244.93	11.8522
2246.36	11.8416
2247.79	12.029
2249.22	12.1143
2250.64	12.2458
2252.07	12.1447
2253.5	11.966
2254.92	11.9992
2256.35	11.9812
2257.78	12.6263
2259.2	12.4109
2260.63	12.548
2262.05	12.2345
2263.48	12.6201
2264.9	12.8885
2266.33	12.6382
2267.75	12.6036
2269.18	12.2051
2270.6	11.981
2272.02	11.7663
2273.45	11.6449
2274.87	11.603
2276.29	12.2762
2277.71	12.1003
2279.14	12.1568
2280.56	11.5101
2281.98	11.3433
2283.4	10.9991
2284.82	11.4853
2286.24	11.6959
2287.66	11.6734
2289.08	11.4917
2290.5	11.5564
2291.92	11.1033
2293.34	10.8018
2294.76	10.045
2296.18	10.5462
2297.6	10.9747
2299.02	11.0867
2300.44	10.8247
2301.86	10.974
2303.27	10.5487
2304.69	10.4813
2306.11	11.1476
2307.53	11.3008
2308.94	11.9691
2310.36	12.967
2311.78	13.2735
2313.19	13.651
2314.61	13.1706
2316.02	12.4466
2317.44	12.3237
2318.85	11.6366
2320.27	11.1463
2321.68	10.8809
2323.1	10.741
2324.51	10.3737
2325.92	10.3256
2327.34	10.0801
2328.75	9.62213
2330.16	9.44146
2331.58	9.15202
2332.99	8.51541
2334.4	8.67811
2335.81	7.7211
2337.23	7.43213
2338.64	6.98648
2340.05	6.46437
2341.46	6.20573
2342.87	5.34263
2344.28	4.79829
2345.69	4.12927
2347.1	3.70003
2348.51	2.75898
2349.92	2.5841
2351.33	2.34544
2352.74	2.648
2354.15	2.66605
2355.55	2.38137
2356.96	2.24201
2358.37	2.64776
2359.78	2.15373
2361.19	2.59226
2362.59	2.68731
2364	3.6003
2365.41	3.83872
2366.81	4.72403
2368.22	5.02773
2369.62	4.90768
2371.03	5.00223
2372.44	5.25691
2373.84	5.45344
2375.24	5.9224
2376.65	6.27368
2378.05	7.17334
2379.46	7.46148
2380.86	6.95787
2382.26	6.83916
2383.67	7.20213
2385.07	6.70524
2386.47	6.54268
2387.88	6.3757
2389.28	5.92782
2390.68	5.38615
2392.08	5.28922
2393.48	4.70759
2394.89	4.31922
2396.29	4.0589
2397.69	3.48297
2399.09	3.35396
2400.49	3.88205
2401.89	3.37279
2403.29	3.29693
2404.69	3.81043
2406.09	3.28215
2407.48	3.79511
2408.88	3.56341
2410.28	3.25585
2411.68	3.44007
2413.08	3.3556
2414.48	3.72098
2415.87	3.99369
2417.27	3.96717
2418.67	4.4667
2420.06	5.04891
2421.46	4.98089
2422.86	5.23981
2424.25	5.23503
2425.65	5.17671
2427.04	5.90466
2428.44	6.0538
2429.83	5.72561
2431.23	6.31523
2432.62	6.03672
2434.02	5.62957
2435.41	5.04131
2436.81	5.19323
2438.2	5.32486
2439.59	4.55829
2440.99	4.89164
2442.38	4.80334
2443.77	4.7813
2445.16	4.28606
2446.56	4.39124
2447.95	4.73023
2449.34	4.09693
2450.73	3.64078
2452.12	4.01447
2453.51	3.7901
2454.9	3.04586
2456.29	3.14892
2457.68	2.8203
2459.07	2.3726
2460.46	2.41252
2461.85	2.6821
2463.24	2.45847
2464.63	2.99224
2466.02	2.70362
2467.4	3.17988
2468.79	3.47858
2470.18	3.97047
2471.57	3.58552
2472.95	3.41056
2474.34	3.77624
2475.73	3.82347
2477.12	3.88787
2478.5	4.39847
2479.89	4.03741
2481.27	4.29561
2482.66	4.09934
2484.04	3.94331
2485.43	3.79365
2486.81	3.60622
2488.2	3.52585
2489.58	2.9474
2490.97	2.68882
2492.35	2.54286
2493.73	2.38375
2495.12	1.76484
2496.5	1.92462
2497.88	1.51572
2499.27	1.48217
2500.65	1.19762
2502.03	0.774307
2503.41	0.638365
2504.79	1.1715
2506.17	0.98203
2507.56	0.657281
2508.94	0.480075
2510.32	1.47403
2511.7	1.17392
2513.08	1.3503
2514.46	1.56384
2515.84	1.30222
2517.22	1.77459
2518.59	1.48891
2519.97	1.56129
2521.35	2.38792
2522.73	2.6308
2524.11	2.54229
2525.49	3.32269
2526.86	3.70586
2528.24	3.79462
2529.62	4.14108
2530.99	4.30402
2532.37	4.5531
2533.75	4.74876
2535.12	4.1495
2536.5	4.60634
2537.88	5.03933
2539.25	5.01554
2540.63	4.40318
2542	4.60109
2543.38	5.01027
2544.75	4.29796
2546.12	3.67141
2547.5	3.74441
2548.87	2.80357
2550.24	2.73167
2551.62	2.64199
2552.99	2.89657
2554.36	3.02281
2555.74	2.56619
2557.11	2.01701
2558.48	2.21795
2559.85	2.13325
2561.22	1.88939
2562.59	1.97711
2563.96	1.90904
2565.34	2.46208
2566.71	2.2037
2568.08	2.01614
2569.45	1.62848
2570.82	1.61814
2572.18	1.16651
2573.55	1.18059
2574.92	0.368619
2576.29	0.607663
2577.66	1.21059
2579.03	1.20914
2580.4	0.45777
2581.77	0.0626206
2583.13	0.293044
2584.5	-0.412037
2585.87	0.308021
2587.23	-0.370425
2588.6	-0.567437
2589.97	0.0994574
2591.33	0.112595
2592.7	0.426049
2594.06	0.861911
2595.43	0.587374
2596.79	0.208134
2598.16	0.6971
2599.52	0.97935
2600.89	1.3528
2602.25	1.12283
2603.62	0.617177
2604.98	0.746532
2606.34	1.23177
2607.71	1.13359
2609.07	1.45736
2610.43	1.91546
2611.79	1.95721
2613.16	2.24237
2614.52	3.03513
2615.88	3.5237
2617.24	3.59468
2618.6	3.68328
2619.96	3.9768
2621.32	4.07375
2622.68	3.84301
2624.04	3.97989
2625.4	4.42472
2626.76	5.40495
2628.12	5.22014
2629.48	5.35617
2630.84	5.43461
2632.2	4.98106
2633.56	4.82186
2634.92	4.58141
2636.28	4.78813
2637.63	4.71025
2638.99	4.77641
2640.35	4.7219
2641.71	5.3574
2643.06	5.64979
2644.42	5.96066
2645.77	6.18314
2647.13	6.35443
2648.49	5.87269
2649.84	6.79206
2651.2	6.91366
2652.55	6.95727
2653.91	7.70113
2655.26	7.52462
2656.62	8.2081
2657.97	8.62762
2659.33	8.54551
2660.68	8.58928
2662.03	8.32135
2663.39	7.98287
2664.74	8.0023
2666.09	7.5587
2667.44	7.17939
2668.8	6.88193
2670.15	6.39335
2671.5	5.97878
2672.85	6.4955
2674.2	6.98621
2675.55	7.12811
2676.91	6.7693
2678.26	6.89282
2679.61	6.05157
2680.96	5.81535
2682.31	5.43762
2683.66	4.77986
2685	4.37146
2686.35	3.94855
2687.7	3.93591
2689.05	4.23141
2690.4	4.44226
2691.75	4.93369
2693.1	5.4322
2694.44	5.25975
2695.79	4.67271
2697.14	4.75554
2698.49	4.78407
2699.83	4.89899
2701.18	5.22218
2702.52	5.39506
2703.87	5.96342
2705.22	6.14776
2706.56	7.22168
2707.91	7.76438
2709.25	8.51846
2710.6	9.39083
2711.94	9.89987
2713.29	11.0269
2714.63	12.0171
2715.97	12.561
2717.32	13.4839
2718.66	13.8718
2720.01	14.7603
2721.35	15.0145
2722.69	15.0268
2724.03	15.213
2725.38	14.8763
2726.72	15.2238
2728.06	15.2405
2729.4	15.5057
2730.74	14.9873
2732.08	15.0268
2733.42	14.7082
2734.76	14.9178
2736.1	14.7433
2737.44	14.2911
2738.78	14.2804
2740.12	14.4624
2741.46	14.0833
2742.8	13.5411
2744.14	12.9603
2745.48	12.8077
2746.82	11.7582
2748.16	11.8205
2749.49	11.7452
2750.83	11.4201
2752.17	11.4487
2753.51	10.5529
2754.84	10.7546
2756.18	10.2568
2757.52	9.57112
2758.85	9.40523
2760.19	8.68863
2761.53	7.50266
2762.86	7.27706
2764.2	6.59319
2765.53	6.33694
2766.87	6.1816
2768.2	5.75875
2769.54	5.92054
2770.87	6.17381
2772.2	6.74943
2773.54	6.69061
2774.87	6.27039
2776.2	6.73884
2777.54	7.11114
2778.87	7.08189
2780.2	7.46629
2781.53	7.36138
2782.87	7.42672
2784.2	7.80672
2785.53	8.04936
2786.86	7.47502
2788.19	7.47633
2789.52	7.5825
2790.85	7.92783
2792.18	8.5763
2793.51	9.03183
2794.84	9.18047
2796.17	9.65452
2797.5	9.25489
2798.83	9.17352
2800.16	9.39687
2801.49	9.79001
2802.82	9.49859
2804.15	9.7034
2805.47	9.96776
2806.8	9.79789
2808.13	9.75834
2809.46	10.4629
2810.78	10.7553
2812.11	10.2937
2813.44	10.377
2814.76	10.8594
2816.09	11.1362
2817.42	11.5098
2818.74	11.8008
2820.07	12.2636
2821.39	13.5931
2822.72	14.4791
2824.04	15.9327
2825.37	17.9808
2826.69	19.7852
2828.02	22.0257
2829.34	24.1324
2830.66	26.1603
2831.99	29.1068
2833.31	31.5373
2834.63	33.7782
2835.96	36.5941
2837.28	39.5682
2838.6	41.9788
2839.92	44.2963
2841.24	47.6511
2842.57	50.8414
2843.89	53.7904
2845.21	56.8344
2846.53	60.8772
2847.85	64.8943
2849.17	68.9914
2850.49	73.3949
2851.81	77.7351
2853.13	82.5367
2854.45	87.2679
2855.77	91.7408
2857.09	96.2301
2858.41	100.039
2859.72	103.799
2861.04	107.349
2862.36	111.092
2863.68	114.549
2865	117.885
2866.31	121.254
2867.63	124.085
2868.95	126.208
2870.26	128.888
2871.58	131.148
2872.9	133.44
2874.21	136.22
2875.53	138.149
2876.84	139.155
2878.16	141.388
2879.47	143.215
2880.79	144.65
2882.1	146.201
2883.42	148.063
2884.73	149.396
2886.05	152.081
2887.36	154.129
2888.67	156.298
2889.99	158.731
2891.3	161.24
2892.61	163.245
2893.92	164.955
2895.24	167.215
2896.55	169.84
2897.86	172.464
2899.17	174.947
2900.48	176.996
2901.79	180.305
2903.11	183.375
2904.42	186.666
2905.73	190.452
2907.04	194.581
2908.35	199.21
2909.66	204.053
2910.97	209.548
2912.27	214.96
2913.58	220.118
2914.89	224.938
2916.2	230.103
2917.51	234.733
2918.82	238.761
2920.13	241.975
2921.43	245.12
2922.74	247.794
2924.05	250.24
2925.35	252.801
2926.66	254.725
2927.97	256.325
2929.27	257.445
2930.58	257.424
2931.89	257.242
2933.19	256.819
2934.5	255.864
2935.8	254.251
2937.11	252.658
2938.41	250.146
2939.72	247.363
2941.02	244.08
2942.32	241.317
2943.63	238.543
2944.93	234.216
2946.24	230.639
2947.54	226.582
2948.84	222.849
2950.14	218.711
2951.45	215.475
2952.75	211.095
2954.05	207.236
2955.35	203.273
2956.65	198.631
2957.95	194.153
2959.26	189.765
2960.56	185.931
2961.86	181.544
2963.16	177.655
2964.46	173.627
2965.76	169.409
2967.06	165.92
2968.36	161.802
2969.66	158.414
2970.96	155.062
2972.25	151.95
2973.55	148.789
2974.85	144.84
2976.15	141.555
2977.45	138.13
2978.74	134.741
2980.04	130.708
2981.34	126.595
2982.64	122.475
2983.93	118.009
2985.23	113.758
2986.52	109.625
2987.82	105.808
2989.12	101.84
2990.41	98.6812
2991.71	94.8665
2993	90.9906
2994.3	86.437
2995.59	81.9092
2996.89	78.3083
2998.18	74.4222
2999.48	69.9916
3000.77	65.9022
3002.06	63.0688
3003.36	59.3829
3004.65	57.1182
3005.94	54.4788
3007.23	51.4292
3008.53	48.6268
3009.82	46.1485
3011.11	44.0311
3012.4	42.2544
3013.69	40.9625
3014.99	39.5238
3016.28	38.4
3017.57	37.0696
3018.86	35.915
3020.15	34.451
3021.44	33.6283
3022.73	32.4824
3024.02	31.6442
3025.31	30.6289
3026.6	29.8959
3027.89	29.2352
3029.18	28.2671
3030.46	27.751
3031.75	27.236
3033.04	27.1502
3034.33	27.7487
3035.62	27.6003
3036.9	27.5374
3038.19	27.9375
3039.48	28.2169
3040.76	29.163
3042.05	29.699
3043.34	29.5204
3044.62	29.8866
3045.91	29.9219
3047.19	30.0603
3048.48	30.2142
3049.77	30.76
3051.05	30.6626
3052.34	30.8717
3053.62	30.9089
3054.9	31.3003
3056.19	30.5902
3057.47	29.9615
3058.76	29.3532
3060.04	29.4537
3061.32	29.3793
3062.61	28.8446
3063.89	28.3711
3065.17	28.0303
3066.45	27.6244
3067.74	26.7184
3069.02	26.1192
3070.3	25.2198
3071.58	24.4691
3072.86	23.9237
3074.14	23.0007
3075.42	21.729
3076.7	20.6486
3077.99	19.21
3079.26	17.9647
3080.54	16.5406
3081.82	15.2386
3083.1	14.1701
3084.38	12.6119
3085.66	11.603
3086.94	10.249
3088.22	9.56317
3089.5	8.71914
3090.78	8.50606
3092.05	7.63664
3093.33	7.24687
3094.61	7.11866
3095.89	6.74691
3097.16	6.74778
3098.44	6.07749
3099.72	5.18738
3100.99	4.86647
3102.27	4.66828
3103.54	4.41914
3104.82	4.26581
3106.1	4.04006
3107.37	3.76402
3108.65	3.56108
3109.92	3.50316
3111.2	3.47962
3112.47	3.97214
3113.74	3.85198
3115.02	3.77736
3116.29	3.90899
3117.56	4.13152
3118.84	4.2263
3120.11	4.33992
3121.38	4.55265
3122.66	4.97735
3123.93	5.07588
3125.2	5.0626
3126.47	5.00829
3127.74	4.76234
3129.01	4.53718
3130.29	4.52361
3131.56	4.44931
3132.83	4.20834
3134.1	4.14977
3135.37	3.21799
3136.64	2.60898
3137.91	2.13773
3139.18	1.72767
3140.45	1.56511
3141.72	1.2791
3142.99	0.865565
3144.26	0.36273
3145.52	-0.221174
3146.79	-0.965271
3148.06	-1.5513
3149.33	-3.92191
