#Acq. time (s)=	45
#Accumulations=	2
#Range (cm-¹)=	200...3150
#Windows=	2
#Auto scanning=	Off
#Autofocus=	Off
#Macrospot=	Off
#AutoExposure=	Off
#Spike filter=	Multiple accum.
#Delay time (s)=	0
#Binning=	1
#Readout mode=	Signal
#DeNoise=	Off
#ICS correction=	On
#Dark correction=	Off
#Inst. Process=	Off
#Detector Gain=	Best Dynamic Range
#Detector ADC=	20 kHz       
#Detector temperature (°C)=	-69.85
#Instrument=	LabRAM HR Evol
#Detector=	Synapse
#Objective=	x100
#Grating=	600 gr/mm
#ND Filter=	100%
#Laser (nm)=	532 
#Hole=	100.021
#Range=	Auto
#Laser Pol.=	No
#Raman. Pol.=	No
#Laser Pol. (°)=	-0.0007625
#Raman Pol. (°)=	89.9995
#Collection=	Microscope
#StageXY=	Marzhauser
#StageZ=	Marzhauser
#X (µm)=	4719
#Y (µm)=	-7702.5
#Z (µm)=	584.35
#Full time(mm:ss)=	3:18
#Project=	
#Sample=	
#Site=	
#Title=	Thy_30_10_45_2x_45s_532 nm_x100_100%_600 gr_mm
#Remark=	
#Date=	30.06.2022 14:38
#Acquired=	30.06.2022 14:38:40
#Base:Fit=	10.08.2022 09:58:11
#Base:Sub=	10.08.2022 09:58:44
#Filter:Polynom=	16.08.2022 10:22:53
#AxisType[0]=Intens
#AxisUnit[0]=Cnt
#AxisType[1]=Spectr
#AxisUnit[1]=1/cm
200.533	1.64566
202.348	5.50237
204.162	7.12073
205.976	8.02308
207.792	8.25116
209.605	8.32154
211.418	8.51303
213.23	8.78177
215.044	9.13427
216.856	8.98557
218.667	9.12416
220.478	8.76665
222.289	8.177
224.102	8.36971
225.912	8.31239
227.721	9.63773
229.531	8.66885
231.34	8.4487
233.148	8.69
234.956	9.22127
236.766	7.66374
238.574	7.83388
240.381	6.86816
242.188	6.41397
243.994	6.4285
245.801	5.92835
247.606	6.07916
249.412	5.67624
251.217	5.26327
253.024	5.29117
254.828	4.13877
256.632	3.55109
258.436	3.04457
260.239	2.48084
262.042	1.48808
263.845	1.63597
265.647	1.54503
267.449	1.12258
269.25	1.70498
271.052	1.50017
272.852	0.79127
274.653	1.16424
276.453	1.29685
278.253	2.28537
280.052	3.16477
281.852	4.51017
283.65	4.12608
285.449	5.2297
287.247	6.54558
289.044	5.99565
290.842	5.38699
292.639	4.50727
294.436	5.42658
296.232	6.52447
298.028	7.77118
299.821	8.26472
301.617	9.45311
303.412	9.45658
305.206	10.3527
307	10.5479
308.794	11.1164
310.588	11.8598
312.381	12.8514
314.172	13.5939
315.964	14.206
317.756	15.0509
319.548	14.5336
321.34	16.5935
323.131	16.6547
324.921	15.9942
326.71	15.8962
328.5	16.3337
330.29	16.136
332.079	16.2299
333.868	16.3579
335.654	15.866
337.443	16.5864
339.231	16.0078
341.018	15.8088
342.804	15.5367
344.591	14.6665
346.377	14.6781
348.163	14.1151
349.947	13.5449
351.733	13.9525
353.518	14.559
355.303	13.6707
357.085	13.0669
358.869	12.5594
360.653	12.2264
362.435	11.6689
364.218	11.8992
366.001	11.3281
367.781	10.8748
369.563	9.98388
371.345	9.34035
373.124	8.55822
374.905	7.90272
376.686	6.66345
378.464	5.27891
380.244	4.95976
382.022	4.27797
383.801	5.35488
385.58	5.24712
387.357	5.02199
389.135	4.19474
390.911	3.68314
392.689	3.45326
394.466	3.21137
396.241	2.70526
398.018	2.84189
399.792	3.41714
401.568	3.01129
403.341	3.15124
405.117	2.76083
406.889	2.69109
408.664	1.98381
410.436	2.94146
412.21	1.32187
413.981	1.83851
415.755	2.74799
417.525	2.61362
419.298	4.0051
421.068	4.29234
422.84	5.65249
424.609	5.86912
426.38	7.15483
428.149	7.48137
429.919	7.63778
431.688	7.63505
433.455	7.94846
435.225	7.96716
436.992	7.81775
438.76	7.78988
440.527	7.64253
442.293	6.85278
444.06	7.2977
445.826	6.51237
447.593	6.79341
449.357	7.19174
451.122	6.7808
452.888	6.54432
454.651	5.55359
456.415	5.24997
458.18	5.12727
459.942	5.51016
461.705	6.14517
463.469	7.2742
465.23	7.57984
466.991	7.99209
468.752	8.7738
470.515	8.57338
472.275	9.90813
474.035	10.1793
475.797	10.454
477.556	9.91996
479.315	10.6669
481.073	11.625
482.834	11.6346
484.592	12.671
486.349	13.0144
488.106	13.224
489.863	13.0217
491.622	13.3711
493.378	13.0789
495.134	14.8977
496.889	16.1169
498.645	18.1836
500.401	18.3862
502.156	19.5947
503.91	20.8632
505.664	21.8702
507.417	22.5409
509.171	23.116
510.923	24.2145
512.678	24.6882
514.43	25.464
516.182	25.1423
517.933	25.7516
519.684	25.4769
521.435	25.55
523.186	25.1407
524.936	25.154
526.686	24.3279
528.435	23.3722
530.184	22.7666
531.933	22.4893
533.682	21.45
535.43	21.4372
537.18	21.5936
538.927	21.7975
540.674	20.6753
542.421	20.0772
544.167	19.5981
545.913	19.6147
547.659	20.0231
549.403	19.3462
551.148	18.7194
552.893	16.9241
554.637	15.8079
556.381	15.1578
558.125	14.8006
559.868	14.6188
561.611	13.4442
563.354	12.1437
565.097	11.3728
566.839	10.9496
568.581	9.75261
570.322	8.49783
572.063	7.48391
573.802	6.18429
575.542	5.66741
577.283	5.42266
579.022	5.09485
580.762	4.85542
582.501	5.04334
584.24	4.15964
585.976	3.4557
587.714	2.97976
589.452	2.44421
591.19	1.74105
592.927	1.47048
594.663	1.4932
596.398	2.28635
598.134	1.1813
599.87	1.49381
601.605	0.998507
603.338	1.3937
605.073	1.64424
606.808	1.02733
608.542	1.43242
610.274	0.802787
612.007	0.879004
613.74	0.977234
615.473	1.30471
617.204	2.12131
618.936	2.91865
620.668	4.19096
622.397	5.52669
624.128	6.21115
625.859	6.30699
627.588	6.02431
629.318	8.05538
631.048	8.78995
632.775	9.22359
634.505	8.73644
636.233	8.90142
637.96	10.5475
639.688	11.2735
641.416	12.6534
643.142	14.1675
644.869	15.6561
646.594	16.5695
648.32	17.0451
650.045	17.8653
651.771	18.8677
653.496	19.3309
655.219	19.5756
656.944	20.1966
658.667	20.5486
660.391	21.053
662.113	22.0414
663.837	22.1154
665.558	21.7567
667.281	21.6086
669.002	22.4211
670.724	22.5245
672.444	23.9582
674.166	23.9379
675.885	24.0803
677.606	24.7071
679.325	26.3838
681.045	26.9631
682.763	27.1458
684.483	27.4744
686.2	29.6738
687.917	30.5358
689.636	31.6994
691.352	32.4129
693.07	33.231
694.786	33.0687
696.501	33.0442
698.219	33.9266
699.933	33.7869
701.65	34.2057
703.364	34.0709
705.078	35.3551
706.793	35.5652
708.506	35.4512
710.219	34.8641
711.934	35.6679
713.646	36.7052
715.358	37.4484
717.071	36.9777
718.782	37.9745
720.493	38.4066
722.204	39.9314
723.916	40.8833
725.626	40.6827
727.336	41.5606
729.045	42.5288
730.756	43.1991
732.464	42.9883
734.173	43.7778
735.881	44.6064
737.59	45.653
739.297	46.1924
741.004	47.1384
742.711	49.144
744.417	50.3567
746.125	51.8695
747.831	53.0296
749.537	54.26
751.242	54.6599
752.946	56.6117
754.651	58.6495
756.357	59.4635
758.061	61.4435
759.764	61.846
761.467	64.0715
763.17	66.606
764.872	68.2927
766.575	69.8013
768.276	71.693
769.978	73.3679
771.679	75.7113
773.382	76.1999
775.083	76.6772
776.783	77.2882
778.483	77.583
780.182	78.0193
781.882	78.1586
783.581	77.8153
785.279	77.4502
786.978	78.5064
788.676	79.099
790.373	80.4091
792.071	79.7905
793.768	79.8955
795.464	80.6127
797.161	80.6927
798.857	81.472
800.552	82.3453
802.248	82.9128
803.941	83.4306
805.636	83.8306
807.33	84.478
809.024	85.2577
810.718	85.6144
812.412	86.8747
814.105	86.5573
815.798	86.8975
817.49	87.7872
819.183	90.0863
820.873	89.7753
822.564	89.6547
824.256	90.4168
825.947	90.4123
827.637	91.1695
829.328	90.2106
831.016	89.0947
832.705	88.0109
834.395	87.4015
836.084	85.8876
837.772	86.2825
839.459	85.5486
841.147	84.7137
842.835	84.1223
844.522	83.5051
846.209	82.8564
847.894	82.2079
849.581	80.6121
851.267	79.2774
852.953	77.8933
854.637	76.4235
856.322	75.9808
858.007	73.5234
859.689	72.2756
861.374	71.2297
863.058	69.4775
864.739	67.4105
866.423	65.8345
868.106	64.9646
869.787	64.7612
871.469	64.8329
873.151	64.3972
874.831	63.6969
876.512	61.9597
878.193	61.5075
879.872	61.1283
881.553	60.7886
883.231	62.3307
884.911	62.2968
886.591	62.2518
888.268	61.7039
889.947	62.0084
891.623	61.7902
893.302	62.6873
894.978	62.5217
896.656	62.4134
898.331	61.3665
900.008	62.5646
901.683	63.178
903.359	63.4681
905.033	62.1025
906.709	61.3318
908.383	62.3866
910.058	61.588
911.731	62.4679
913.405	61.865
915.078	61.2703
916.752	61.2486
918.423	61.155
920.096	60.517
921.768	60.8786
923.438	60.5121
925.111	60.37
926.781	58.9628
928.452	58.9356
930.122	57.6189
931.791	56.9051
933.462	56.4023
935.13	55.0015
936.799	54.3996
938.468	53.4019
940.136	51.8746
941.803	50.3563
943.472	48.3535
945.139	46.4409
946.805	44.442
948.473	43.8549
950.139	44.7877
951.804	45.425
953.471	45.6461
955.136	45.9353
956.801	45.5572
958.465	44.5142
960.131	43.4074
961.794	43.5376
963.458	42.7562
965.12	44.2155
966.785	46.2206
968.447	47.1426
970.109	47.1929
971.771	47.8867
973.432	49.0745
975.095	49.9247
976.756	51.3513
978.417	51.6786
980.077	52.5144
981.737	53.7399
983.396	55.707
985.057	56.4662
986.716	57.4122
988.375	57.725
990.033	58.567
991.691	60.1045
993.349	60.0289
995.006	61.1266
996.663	61.5918
998.32	61.5508
999.976	61.993
1001.63	62.3541
1003.29	62.6052
1004.95	62.8433
1006.6	61.6069
1008.26	60.7554
1009.91	59.2356
1011.56	59.6641
1013.22	58.8544
1014.87	58.1312
1016.53	57.312
1018.18	55.7404
1019.83	55.4181
1021.48	53.4446
1023.14	52.4446
1024.79	51.659
1026.44	50.2537
1028.09	50.6629
1029.74	51.3936
1031.39	51.4188
1033.04	50.6637
1034.69	49.4691
1036.34	48.2402
1037.99	46.5972
1039.64	44.8131
1041.29	44.2048
1042.94	43.8068
1044.58	43.4518
1046.23	43.9725
1047.88	43.8523
1049.52	43.6249
1051.17	41.9563
1052.82	40.1647
1054.46	40.4001
1056.11	39.107
1057.75	38.4858
1059.4	37.9945
1061.04	36.957
1062.69	35.7054
1064.33	34.9791
1065.98	34.6668
1067.62	34.1323
1069.26	33.9419
1070.9	32.8657
1072.55	32.3703
1074.19	31.9487
1075.83	31.5629
1077.47	32.9557
1079.11	33.1611
1080.76	33.8147
1082.4	34.0135
1084.04	34.1546
1085.68	33.9973
1087.32	34.2378
1088.95	34.4897
1090.59	35.5993
1092.23	36.2845
1093.87	37.4681
1095.51	37.1301
1097.15	37.2431
1098.78	38.0713
1100.42	39.1719
1102.06	38.8868
1103.69	38.0045
1105.33	38.9193
1106.97	39.2994
1108.6	39.0696
1110.24	38.6075
1111.87	37.5694
1113.51	36.312
1115.14	36.52
1116.77	37.2198
1118.41	37.0887
1120.04	36.2382
1121.67	35.7579
1123.31	35.4914
1124.94	33.5251
1126.57	31.7902
1128.2	30.0446
1129.83	28.1805
1131.47	27.19
1133.1	24.6289
1134.72	23.5736
1136.36	22.2279
1137.98	20.9047
1139.62	19.9128
1141.24	18.5929
1142.87	17.9192
1144.5	16.7148
1146.13	16.428
1147.76	16.4004
1149.38	14.6938
1151.01	13.0558
1152.64	12.1689
1154.27	11.3641
1155.89	10.4566
1157.52	10.0734
1159.14	10.9111
1160.77	9.95292
1162.39	9.22773
1164.02	8.47155
1165.64	8.6629
1167.27	9.22465
1168.89	10.5579
1170.51	11.089
1172.14	11.4122
1173.76	11.7432
1175.38	12.6403
1177	13.0042
1178.63	14.3835
1180.25	15.5304
1181.87	16.2702
1183.49	16.0413
1185.11	17.3502
1186.73	19.0295
1188.35	20.6856
1189.97	21.2402
1191.59	22.373
1193.21	23.4642
1194.83	24.8821
1196.45	26.7411
1198.07	28.0498
1199.68	29.0392
1201.3	29.7607
1202.92	30.689
1204.53	32.8872
1206.15	34.2738
1207.77	36.7403
1209.38	38.7546
1211	41.0713
1212.62	43.5257
1214.23	46.2242
1215.84	48.7015
1217.46	49.6329
1219.07	52.1672
1220.69	53.4222
1222.3	54.8872
1223.91	56.611
1225.53	57.8787
1227.14	59.1755
1228.75	60.867
1230.36	61.1279
1231.97	63.1278
1233.59	64.4023
1235.2	65.2678
1236.81	66.4832
1238.42	68.2389
1240.03	69.907
1241.64	70.5582
1243.25	73.0369
1244.85	74.949
1246.46	76.5928
1248.07	77.7311
1249.68	79.1986
1251.29	79.6507
1252.9	81.4096
1254.5	83.1202
1256.11	84.0732
1257.72	84.2356
1259.32	85.8752
1260.93	86.6627
1262.54	86.819
1264.14	88.3354
1265.75	89.803
1267.35	91.2228
1268.96	91.6166
1270.56	91.8745
1272.16	92.1563
1273.77	93.4182
1275.37	95.807
1276.97	96.9902
1278.57	98.1687
1280.18	99.432
1281.78	100.318
1283.38	102.694
1284.98	104.32
1286.58	104.096
1288.18	104.418
1289.78	104.782
1291.38	104.644
1292.99	105.165
1294.58	105.621
1296.18	105.341
1297.78	105.392
1299.38	105.742
1300.98	105.823
1302.58	105.967
1304.17	106.873
1305.77	107.912
1307.37	108.2
1308.97	108.366
1310.56	107.605
1312.16	108.377
1313.76	107.921
1315.35	108.002
1316.95	107.903
1318.54	108.067
1320.14	108.026
1321.73	107.66
1323.32	108.246
1324.92	107.208
1326.51	107.133
1328.1	105.867
1329.7	105.713
1331.29	104.801
1332.88	104.621
1334.47	103.199
1336.07	101.977
1337.66	100.82
1339.25	100.629
1340.84	98.5631
1342.43	97.0322
1344.02	95.8245
1345.61	93.0843
1347.2	91.1401
1348.79	88.6651
1350.37	87.3937
1351.96	85.7946
1353.55	85.5451
1355.14	83.5412
1356.73	80.3653
1358.31	78.9149
1359.9	77.4667
1361.49	75.6594
1363.07	74.4298
1364.66	71.1439
1366.25	68.8313
1367.83	67.6541
1369.42	66.9433
1371	65.2075
1372.59	64.8451
1374.17	64.2472
1375.75	61.8664
1377.34	60.3502
1378.92	60.1269
1380.5	59.9638
1382.09	59.5145
1383.67	59.2635
1385.25	58.7951
1386.83	57.1825
1388.42	56.3536
1390	55.8948
1391.58	55.1146
1393.16	54.3443
1394.74	52.9587
1396.32	52.4026
1397.9	51.4351
1399.48	50.7146
1401.06	50.8531
1402.64	51.0811
1404.21	50.9743
1405.79	50.0527
1407.37	49.4567
1408.95	50.05
1410.53	50.0256
1412.1	50.7945
1413.68	51.5847
1415.26	51.938
1416.83	52.2064
1418.41	53.4022
1419.98	54.3177
1421.56	55.9534
1423.13	57.4072
1424.71	59.7858
1426.28	62.4999
1427.86	65.1647
1429.43	68.6292
1431	71.6376
1432.58	74.8852
1434.15	76.7933
1435.72	80.4342
1437.29	83.7111
1438.87	85.1881
1440.44	87.806
1442.01	89.8996
1443.58	91.4494
1445.15	94.0993
1446.72	95.8774
1448.29	97.0703
1449.86	97.0454
1451.43	97.5978
1453	97.9497
1454.57	97.1908
1456.14	97.834
1457.71	97.3575
1459.27	95.6428
1460.84	94.481
1462.41	92.7092
1463.98	90.0624
1465.54	87.1218
1467.11	84.2441
1468.67	80.4868
1470.24	76.9762
1471.81	73.8849
1473.37	69.7785
1474.94	67.0657
1476.5	63.6918
1478.07	61.022
1479.63	57.0023
1481.19	53.0118
1482.76	49.6709
1484.32	45.9477
1485.88	43.4559
1487.45	40.5104
1489.01	38.0553
1490.57	36.1119
1492.13	34.0442
1493.69	31.2813
1495.26	30.6297
1496.82	29.0143
1498.38	28.8383
1499.94	28.552
1501.5	28.0527
1503.06	27.9848
1504.62	27.8186
1506.17	27.3012
1507.73	27.2812
1509.29	26.9593
1510.85	27.0315
1512.41	26.6901
1513.97	27.3842
1515.52	26.8415
1517.08	26.7311
1518.64	27.3966
1520.19	27.3512
1521.75	27.7716
1523.31	28.0981
1524.86	28.814
1526.42	28.9949
1527.97	29.076
1529.52	29.4814
1531.08	30.5525
1532.63	30.4597
1534.19	31.0979
1535.74	31.4235
1537.29	31.5866
1538.85	33.016
1540.4	33.945
1541.95	34.0328
1543.5	35.4248
1545.06	36.4151
1546.61	38.0903
1548.16	40.2959
1549.71	41.0987
1551.26	42.5454
1552.81	45.1345
1554.36	45.8336
1555.91	47.8653
1557.46	49.2501
1559.01	51.9565
1560.56	54.0566
1562.11	55.9248
1563.65	57.7568
1565.2	59.7701
1566.75	62.5497
1568.29	64.4996
1569.84	66.284
1571.39	68.4303
1572.94	71.2035
1574.48	72.4978
1576.03	74.9534
1577.57	75.9146
1579.12	77.4029
1580.66	78.4303
1582.21	79.8646
1583.75	80.1446
1585.3	81.3621
1586.84	81.7878
1588.38	83.0259
1589.93	83.9417
1591.47	84.9046
1593.01	85.0419
1594.55	84.7799
1596.1	84.7653
1597.64	85.1782
1599.18	85.4323
1600.72	85.3487
1602.26	85.211
1603.8	84.1381
1605.34	83.6249
1606.88	82.7853
1608.42	82.3708
1609.96	81.6562
1611.5	82.0425
1613.04	82.9582
1614.58	82.614
1616.12	83.5178
1617.65	82.9516
1619.19	83.4302
1620.73	84.124
1622.27	85.0269
1623.8	85.9353
1625.34	86.7163
1626.87	87.5414
1628.41	89.1536
1629.95	90.6598
1631.48	91.7526
1633.02	93.7638
1634.55	95.085
1636.09	97.0238
1637.62	98.6459
1639.15	100.569
1640.69	102.918
1642.22	104.785
1643.76	107.229
1645.29	109.025
1646.82	111.174
1648.35	113.386
1649.88	115.936
1651.42	117.264
1652.95	119.007
1654.48	120.345
1656.01	121.999
1657.54	122.456
1659.07	122.43
1660.6	122.077
1662.13	122.861
1663.66	122.458
1665.19	122.504
1666.72	121.158
1668.24	119.392
1669.77	117.359
1671.3	115.234
1672.83	113.099
1674.35	110.524
1675.88	107.838
1677.41	104.316
1678.93	100.817
1680.46	97.5525
1681.99	93.6177
1683.51	89.6628
1685.04	86.3454
1686.56	83.4254
1688.09	80.0433
1689.61	75.5644
1691.13	71.1087
1692.66	67.4355
1694.18	63.1845
1695.71	59.6506
1697.23	55.0304
1698.75	51.516
1700.27	47.8809
1701.8	44.5692
1703.32	41.3114
1704.84	37.7461
1706.36	34.7294
1707.88	31.9051
1709.4	28.9913
1710.92	27.0918
1712.44	25.402
1713.96	23.0557
1715.48	21.5147
1717	20.448
1718.52	18.6757
1720.04	17.9042
1721.56	16.7455
1723.07	15.6118
1724.59	14.7567
1726.11	13.9464
1727.63	12.8018
1729.14	12.1139
1730.66	11.2762
1732.18	10.5978
1733.69	9.45176
1735.21	9.05472
1736.72	9.35221
1738.24	9.72931
1739.75	8.88702
1741.27	8.51768
1742.78	7.94579
1744.3	8.26697
1745.81	8.72092
1747.32	8.82402
1748.84	8.66761
1750.35	8.21298
1751.86	8.15491
1753.37	8.15597
1754.89	8.1807
1756.4	8.37447
1757.91	8.19208
1759.42	8.53255
1760.93	8.98602
1762.44	9.41429
1763.95	8.81027
1765.46	8.14822
1766.97	8.33627
1768.48	7.5338
1769.99	6.63394
1771.5	6.21635
1773.01	6.14545
1774.52	6.37788
1776.03	6.46804
1777.53	6.11094
1779.04	5.85871
1780.55	5.27307
1782.06	4.80647
1783.56	4.38574
1785.07	4.07109
1786.57	3.96389
1788.08	3.52068
1789.59	2.83217
1791.09	2.80961
1792.6	2.43876
1794.1	1.85276
1795.6	1.9484
1797.11	1.48162
1798.61	1.41572
1800.12	0.997959
1801.62	0.569751
1803.12	0.345797
1804.63	-0.131232
1806.13	-0.403922
1807.63	-0.415322
1809.13	-0.153985
1810.63	0.275692
1812.14	-0.0264491
1813.64	0.18285
1815.14	-0.106618
1816.64	-0.144896
1818.14	0.0314742
1819.64	0.84995
1821.14	1.00609
1822.64	0.721351
1824.14	0.57135
1825.63	0.523567
1827.13	1.33698
1828.63	1.52541
1830.13	1.59668
1831.63	2.05074
1833.12	1.83164
1834.62	1.54757
1836.12	1.45576
1837.62	1.04559
1839.11	0.429711
1840.61	0.183738
1842.1	0.762754
1843.6	0.504122
1845.09	1.37362
1846.59	2.17224
1848.08	2.59892
1849.58	2.51195
1851.07	2.44806
1852.57	1.92542
1854.06	1.87058
1855.55	1.52409
1857.04	1.40259
1858.54	1.88095
1860.03	2.07343
1861.52	2.53114
1863.01	2.6566
1864.5	3.13813
1866	3.63959
1867.49	3.99289
1868.98	4.46412
1870.47	4.69482
1871.96	4.61046
1873.45	5.24306
1874.94	5.07943
1876.43	5.00975
1877.92	5.11041
1879.41	5.56917
1880.89	5.85349
1882.38	5.93635
1882.48	6.09831
1883.97	6.34999
1885.47	6.53184
1886.96	6.96879
1888.46	7.23313
1889.95	7.23392
1891.44	7.9084
1892.94	8.54413
1894.43	8.68325
1895.92	8.40011
1897.41	8.31144
1898.9	7.65819
1900.4	6.9086
1901.89	6.29607
1903.38	5.73989
1904.87	5.36174
1906.36	5.197
1907.85	5.04644
1909.34	5.5671
1910.83	5.87031
1912.32	5.80223
1913.81	6.43284
1915.29	6.23856
1916.78	5.98206
1918.27	6.24202
1919.76	5.60206
1921.25	4.76409
1922.74	4.38845
1924.22	3.93953
1925.71	3.87117
1927.2	4.22254
1928.68	4.13732
1930.17	4.254
1931.65	4.66529
1933.14	4.38524
1934.63	4.66919
1936.11	4.4921
1937.59	5.38329
1939.08	4.98331
1940.56	5.30564
1942.05	4.81333
1943.53	4.90248
1945.01	5.127
1946.5	5.48901
1947.98	5.16358
1949.46	5.36929
1950.94	6.01314
1952.43	6.42176
1953.91	6.69572
1955.39	6.85929
1956.87	7.4354
1958.35	7.44589
1959.83	7.844
1961.31	8.04636
1962.79	8.1131
1964.27	7.62764
1965.75	7.46813
1967.23	7.03792
1968.71	6.97697
1970.19	6.10358
1971.67	5.72447
1973.14	5.52086
1974.62	5.55837
1976.1	5.51526
1977.58	5.3805
1979.05	5.50527
1980.53	5.74183
1982.01	5.30653
1983.48	5.69059
1984.96	5.19285
1986.43	4.74174
1987.91	4.61381
1989.38	3.71804
1990.86	3.82469
1992.33	4.03138
1993.81	3.40546
1995.28	3.63332
1996.76	3.2927
1998.23	2.77671
1999.7	2.86913
2001.18	2.55421
2002.65	2.44579
2004.12	1.93482
2005.59	2.01015
2007.06	1.11337
2008.54	1.08185
2010.01	1.18064
2011.48	1.16735
2012.95	0.789031
2014.42	1.15892
2015.89	1.91898
2017.36	2.61344
2018.83	3.22298
2020.3	3.6175
2021.77	3.93694
2023.24	4.46796
2024.71	4.19315
2026.17	4.65833
2027.64	4.84585
2029.11	5.27901
2030.58	5.54323
2032.04	6.13418
2033.51	6.78372
2034.98	6.72468
2036.45	6.64165
2037.91	7.17884
2039.38	7.55162
2040.84	8.36373
2042.31	9.13957
2043.77	9.3957
2045.24	9.81586
2046.7	10.3606
2048.17	10.6149
2049.63	10.8764
2051.1	11.8264
2052.56	12.199
2054.02	12.8187
2055.48	13.4135
2056.95	14.3318
2058.41	14.4733
2059.87	14.3227
2061.33	14.4825
2062.8	14.464
2064.26	15.1706
2065.72	15.7755
2067.18	15.8315
2068.64	16.41
2070.1	16.1141
2071.56	16.8996
2073.02	16.9599
2074.48	17.0562
2075.94	17.3917
2077.4	17.7773
2078.86	18.5519
2080.31	18.8019
2081.77	19.7018
2083.23	20.6053
2084.69	21.2321
2086.14	21.634
2087.6	22.6166
2089.06	23.3758
2090.52	23.42
2091.97	23.8244
2093.43	23.6583
2094.88	23.9656
2096.34	23.725
2097.79	23.9948
2099.25	25.1708
2100.7	25.4762
2102.16	26.2558
2103.61	27.0347
2105.07	28.4362
2106.52	29.1412
2107.97	30.3459
2109.43	31.5537
2110.88	33.3981
2112.33	34.7445
2113.78	36.2323
2115.24	37.9451
2116.69	39.1804
2118.14	40.8264
2119.59	42.9216
2121.04	44.4962
2122.49	46.6155
2123.94	48.9942
2125.39	51.1546
2126.84	53.9282
2128.29	56.2954
2129.74	58.2677
2131.19	60.6869
2132.64	63.4422
2134.09	66.0688
2135.54	68.6602
2136.98	71.359
2138.43	73.984
2139.88	76.2034
2141.33	77.8863
2142.77	80.4012
2144.22	82.9946
2145.67	84.2507
2147.11	86.8607
2148.56	89.2395
2150.01	90.5794
2151.45	92.4059
2152.9	94.7703
2154.34	96.8479
2155.79	98.5244
2157.23	99.7577
2158.67	101.024
2160.12	102.743
2161.56	103.376
2163	104.234
2164.45	104.915
2165.89	105.983
2167.33	107.044
2168.78	107.564
2170.22	108.434
2171.66	108.515
2173.1	107.951
2174.54	107.619
2175.98	107.493
2177.42	106.667
2178.86	105.508
2180.3	105.237
2181.74	103.957
2183.18	103.453
2184.62	101.862
2186.06	101.015
2187.5	99.9343
2188.94	98.6001
2190.38	97.4313
2191.82	96.6681
2193.25	94.9992
2194.69	93.5572
2196.13	91.8708
2197.57	89.8553
2199	88.2082
2200.44	85.4872
2201.88	83.3495
2203.31	81.2345
2204.75	78.8056
2206.18	75.8689
2207.62	73.5457
2209.05	71.4156
2210.49	69.1404
2211.92	66.2808
2213.36	64.2142
2214.79	62.6707
2216.22	59.7431
2217.66	57.7776
2219.09	55.8914
2220.52	54.403
2221.96	52.5105
2223.39	51.3193
2224.82	50.2148
2226.25	48.2899
2227.68	46.4934
2229.11	45.7199
2230.55	44.331
2231.98	42.5794
2233.41	41.0306
2234.84	39.3169
2236.27	38.8225
2237.7	37.677
2239.12	36.0299
2240.55	34.7348
2241.98	33.2491
2243.41	31.6214
2244.84	30.4846
2246.27	29.3823
2247.7	28.7415
2249.12	28.043
2250.55	27.3451
2251.98	26.5256
2253.41	26.0913
2254.83	26.0114
2256.26	25.2001
2257.68	25.1523
2259.11	24.1905
2260.54	24.4691
2261.96	24.2051
2263.39	24.2671
2264.81	23.7574
2266.24	23.1971
2267.66	22.6203
2269.08	22.0944
2270.51	21.4531
2271.93	20.2624
2273.35	20.1102
2274.78	19.5731
2276.2	19.2602
2277.62	18.9387
2279.04	18.601
2280.47	18.6903
2281.89	17.6073
2283.31	16.7439
2284.73	16.4157
2286.15	15.7318
2287.57	15.2362
2288.99	15.1234
2290.41	13.6336
2291.83	12.741
2293.25	11.4763
2294.67	10.6785
2296.09	10.8244
2297.51	10.2089
2298.93	10.1465
2300.35	10.9064
2301.76	9.85088
2303.18	9.71538
2304.6	9.60427
2306.02	9.65455
2307.44	9.96172
2308.85	9.21374
2310.27	8.76102
2311.69	8.1884
2313.1	7.70893
2314.52	7.36968
2315.93	6.89712
2317.35	6.71982
2318.76	6.7338
2320.18	6.75643
2321.59	6.27235
2323.01	6.42365
2324.42	6.70221
2325.83	5.97659
2327.25	6.25501
2328.66	6.00932
2330.07	6.17484
2331.49	6.41091
2332.9	5.82292
2334.31	5.89689
2335.72	5.51878
2337.13	4.73744
2338.55	4.94417
2339.96	4.4316
2341.37	3.9789
2342.78	3.76943
2344.19	3.17175
2345.6	2.98369
2347.01	2.95535
2348.42	2.9108
2349.83	2.35262
2351.24	2.05378
2352.65	1.40572
2354.05	1.20309
2355.46	1.17881
2356.87	1.10746
2358.28	0.581243
2359.69	-0.137453
2361.09	-0.706257
2362.5	-0.470707
2363.91	0.233612
2365.31	0.205535
2366.72	0.812543
2368.13	0.692747
2369.53	0.843818
2370.94	0.786561
2372.34	0.54376
2373.75	1.03135
2375.15	0.395604
2376.56	-0.236931
2377.96	-0.843456
2379.37	-0.618094
2380.77	-0.180675
2382.17	0.179533
2383.58	0.880453
2384.98	1.01111
2386.38	1.25616
2387.79	1.69165
2389.19	2.26249
2390.59	2.45484
2391.99	2.29867
2393.39	2.00057
2394.8	1.89645
2396.2	2.1063
2397.6	2.67304
2399	2.79869
2400.4	3.19014
2401.8	3.19265
2403.2	3.58647
2404.6	4.08196
2406	4.09407
2407.4	3.95292
2408.79	4.40388
2410.19	4.03994
2411.59	4.8436
2412.99	4.89997
2414.39	5.05649
2415.78	5.94615
2417.18	6.04386
2418.58	6.33505
2419.98	6.20712
2421.37	6.17183
2422.77	6.39961
2424.16	6.72903
2425.56	6.7868
2426.96	6.94811
2428.35	6.36344
2429.74	6.14435
2431.14	5.69644
2432.53	5.53765
2433.93	5.05663
2435.32	4.32567
2436.72	4.35252
2438.11	4.19126
2439.5	3.8309
2440.9	4.10144
2442.29	4.06125
2443.68	3.97924
2445.07	2.76087
2446.47	2.62817
2447.86	3.32213
2449.25	4.35931
2450.64	4.83483
2452.03	4.79393
2453.42	4.47354
2454.81	4.09865
2456.2	3.9732
2457.59	3.67938
2458.98	3.75769
2460.37	3.76722
2461.76	3.67739
2463.15	3.37408
2464.54	3.51099
2465.93	3.7089
2467.32	3.64758
2468.7	3.79371
2470.09	3.45884
2471.48	3.22878
2472.87	3.69731
2474.25	3.84936
2475.64	4.316
2477.03	4.28809
2478.41	4.55347
2479.8	4.47253
2481.18	3.84978
2482.57	3.08937
2483.95	2.95907
2485.34	2.85017
2486.72	2.64601
2488.11	2.44494
2489.49	2.09046
2490.88	2.02259
2492.26	2.13674
2493.65	1.88051
2495.03	1.37383
2496.41	1.35241
2497.79	0.58879
2499.18	0.32377
2500.56	-0.0472475
2501.94	-0.619381
2503.32	-0.765324
2504.7	-1.01114
2506.09	-1.08315
2507.47	-1.05204
2508.85	-1.4446
2510.23	-0.603397
2511.61	-0.822081
2512.99	-0.187188
2514.37	-0.645162
2515.75	0.286837
2517.13	1.03992
2518.51	0.934731
2519.89	0.619299
2521.26	0.298009
2522.64	0.222823
2524.02	0.445595
2525.4	0.467353
2526.78	1.25903
2528.15	1.40213
2529.53	1.44446
2530.91	1.52147
2532.28	1.64487
2533.66	1.6283
2535.04	2.1775
2536.41	2.43461
2537.79	2.93019
2539.16	2.83346
2540.54	3.18715
2541.91	3.9688
2543.29	4.01413
2544.66	3.84632
2546.04	3.18611
2547.41	2.9868
2548.78	3.02477
2550.16	2.92598
2551.53	3.65779
2552.9	3.75798
2554.27	3.88428
2555.65	3.81647
2557.02	3.70819
2558.39	3.64262
2559.76	4.03868
2561.13	4.33784
2562.51	4.7977
2563.88	4.77088
2565.25	4.76182
2566.62	4.22868
2567.99	4.4404
2569.36	4.52169
2570.73	4.55458
2572.1	5.20228
2573.47	4.98727
2574.84	5.24136
2576.2	5.5665
2577.57	5.84051
2578.94	6.4996
2580.31	6.19186
2581.68	6.42902
2583.05	6.48891
2584.41	7.07457
2585.78	7.27837
2587.15	7.02369
2588.51	7.47825
2589.88	7.44715
2591.24	7.46516
2592.61	7.42978
2593.98	7.14205
2595.34	6.60163
2596.71	6.0936
2598.07	6.17835
2599.44	6.2778
2600.8	5.63325
2602.16	5.36735
2603.53	5.45885
2604.89	5.14488
2606.26	5.04045
2607.62	5.28569
2608.98	5.5662
2610.34	5.03656
2611.71	4.32069
2613.07	3.83699
2614.43	3.40593
2615.79	3.71063
2617.15	4.0002
2618.52	3.91796
2619.88	3.56447
2621.24	3.93086
2622.6	4.61936
2623.96	4.567
2625.32	4.61165
2626.68	4.97863
2628.04	5.0416
2629.4	5.66836
2630.75	5.85832
2632.11	6.22881
2633.47	6.30821
2634.83	7.03346
2636.19	7.71962
2637.55	7.89041
2638.9	8.57852
2640.26	9.20455
2641.62	9.16282
2642.98	10.1413
2644.33	10.4563
2645.69	10.5802
2647.04	10.5313
2648.4	10.5183
2649.76	11.1478
2651.11	11.3204
2652.47	11.3555
2653.82	11.1316
2655.18	10.349
2656.53	10.0557
2657.88	9.27613
2659.24	8.68594
2660.59	7.96573
2661.95	7.24105
2663.3	6.58016
2664.65	6.69959
2666	6.4279
2667.36	5.97202
2668.71	5.96454
2670.06	6.09166
2671.41	5.78492
2672.76	5.72776
2674.12	5.71856
2675.47	5.20825
2676.82	4.41181
2678.17	4.04023
2679.52	4.2887
2680.87	4.72558
2682.22	5.10994
2683.57	6.06635
2684.92	5.99667
2686.27	6.30761
2687.62	6.67276
2688.97	7.69322
2690.31	8.0029
2691.66	7.97711
2693.01	8.37237
2694.36	9.55207
2695.71	10.5902
2697.05	11.9687
2698.4	12.8346
2699.75	13.6671
2701.09	14.1053
2702.44	15.4098
2703.78	16.4626
2705.13	17.2693
2706.48	17.9439
2707.82	18.7006
2709.17	19.0697
2710.51	19.8595
2711.86	19.6964
2713.2	20.152
2714.54	21.0747
2715.89	21.4596
2717.23	22.1437
2718.57	22.2852
2719.92	22.5981
2721.26	22.826
2722.6	23.4122
2723.95	23.6419
2725.29	24.3916
2726.63	24.8151
2727.97	24.9095
2729.31	25.0894
2730.65	24.9635
2732	25.4306
2733.34	25.2534
2734.68	24.8517
2736.02	24.7339
2737.36	24.7873
2738.7	24.7565
2740.04	25.0317
2741.38	24.5636
2742.72	24.2046
2744.05	24.4611
2745.39	24.2191
2746.73	23.9326
2748.07	23.4612
2749.41	23.456
2750.75	23.3944
2752.08	23.3418
2753.42	23.3541
2754.76	23.2111
2756.09	23.6533
2757.43	23.4705
2758.77	23.2122
2760.1	23.1052
2761.44	23.5052
2762.78	23.2271
2764.11	22.6706
2765.44	22.5547
2766.78	22.1893
2768.11	21.8806
2769.45	21.3796
2770.78	21.3535
2772.12	21.0698
2773.45	20.1892
2774.78	20.0832
2776.12	19.5602
2777.45	19.2845
2778.78	19.0438
2780.12	19.469
2781.45	19.4112
2782.78	19.2326
2784.11	19.6639
2785.44	19.747
2786.78	19.941
2788.11	20.024
2789.44	19.8901
2790.77	19.1471
2792.1	19.0359
2793.43	18.7378
2794.76	18.6737
2796.09	18.9324
2797.42	18.7995
2798.75	18.7888
2800.08	18.8771
2801.4	19.2866
2802.73	20.0126
2804.06	20.7277
2805.39	21.1995
2806.72	21.4431
2808.05	21.6531
2809.37	22.2108
2810.7	22.5416
2812.03	22.4104
2813.35	23.061
2814.68	23.7308
2816.01	24.3141
2817.33	25.1781
2818.66	25.975
2819.98	27.1242
2821.31	28.9316
2822.63	30.9083
2823.96	32.8611
2825.28	34.8214
2826.61	36.9336
2827.93	39.4638
2829.25	41.7843
2830.58	44.519
2831.9	47.5806
2833.23	50.3964
2834.55	52.9204
2835.87	55.3525
2837.19	58.78
2838.52	62.0291
2839.84	65.239
2841.16	69.8668
2842.48	73.6294
2843.8	77.7992
2845.12	82.5529
2846.44	87.6398
2847.77	93.3193
2849.08	98.8794
2850.4	104.679
2851.73	110.786
2853.05	117.514
2854.36	123.464
2855.68	130.137
2857	136.729
2858.32	142.719
2859.64	149.431
2860.96	155.09
2862.28	161.582
2863.59	167.414
2864.91	172.843
2866.23	179.058
2867.55	184.312
2868.86	189.332
2870.18	193.766
2871.5	197.977
2872.81	201.842
2874.13	205.493
2875.44	209.011
2876.76	211.942
2878.07	215.434
2879.39	218.668
2880.7	221.956
2882.02	224.708
2883.33	228.273
2884.65	231.425
2885.96	235.22
2887.28	238.192
2888.59	241.282
2889.9	244.581
2891.21	247.844
2892.53	251.305
2893.84	254.906
2895.15	257.747
2896.46	261.101
2897.78	264.995
2899.09	269.116
2900.4	273.079
2901.71	278.017
2903.02	284.082
2904.33	289.628
2905.64	295.737
2906.95	303.063
2908.26	310.888
2909.57	319.284
2910.88	327.568
2912.19	336.303
2913.5	345.42
2914.81	353.817
2916.12	363.085
2917.43	371.602
2918.73	379.313
2920.04	386.246
2921.35	392.913
2922.66	399.01
2923.96	404.563
2925.27	410.668
2926.58	415.023
2927.88	418.723
2929.19	421.641
2930.5	423.629
2931.8	425.46
2933.11	425.983
2934.41	424.999
2935.72	424.275
2937.02	422.134
2938.33	420.44
2939.63	417.007
2940.94	413.105
2942.24	408.532
2943.54	403.434
2944.85	397.786
2946.15	391.903
2947.45	385.524
2948.76	379.041
2950.06	372.486
2951.36	365.603
2952.66	358.622
2953.97	351.221
2955.27	343.745
2956.57	336.02
2957.87	328.005
2959.17	319.809
2960.47	311.75
2961.77	304.497
2963.07	297.562
2964.37	290.266
2965.67	283.11
2966.97	276.709
2968.27	270.299
2969.57	263.77
2970.87	258.241
2972.17	252.802
2973.47	246.523
2974.77	239.458
2976.07	233.702
2977.36	228.333
2978.66	222.933
2979.96	217.417
2981.26	211.176
2982.55	204.571
2983.85	198.158
2985.15	192.18
2986.44	185.846
2987.74	179.961
2989.03	173.784
2990.33	167.335
2991.63	160.247
2992.92	153.626
2994.21	148.376
2995.51	141.645
2996.8	135.263
2998.1	129.214
2999.39	123.026
3000.69	117.7
3001.98	112.024
3003.27	107.033
3004.57	101.376
3005.86	96.7905
3007.15	92.5885
3008.44	88.2865
3009.74	84.9915
3011.03	81.0538
3012.32	77.5
3013.61	74.0374
3014.9	71.4178
3016.19	68.9298
3017.48	66.9623
3018.78	63.9107
3020.07	61.8136
3021.36	59.6756
3022.65	57.8198
3023.94	56.2059
3025.23	55.3933
3026.51	54.0909
3027.8	53.7607
3029.09	52.7913
3030.38	52.4008
3031.67	51.8033
3032.96	51.6983
3034.24	51.3327
3035.53	51.6199
3036.82	52.094
3038.11	52.6198
3039.39	52.5112
3040.68	53.6014
3041.97	54.523
3043.25	55.0359
3044.54	55.62
3045.83	55.7622
3047.11	56.7
3048.4	57.3669
3049.68	57.7695
3050.97	58.1981
3052.25	58.3621
3053.54	58.4702
3054.82	58.2013
3056.11	58.0252
3057.39	57.8736
3058.67	57.6605
3059.96	56.7138
3061.24	56.1529
3062.52	55.9348
3063.81	54.8997
3065.09	53.8791
3066.37	52.5399
3067.65	51.5348
3068.94	50.6796
3070.22	49.5383
3071.5	48.0737
3072.78	46.1998
3074.06	44.2925
3075.34	42.3343
3076.62	41.2724
3077.9	39.9849
3079.18	38.5923
3080.46	37.1635
3081.74	35.1802
3083.02	33.0498
3084.3	31.4701
3085.58	29.9413
3086.86	28.5913
3088.14	26.9666
3089.42	25.6725
3090.69	24.0454
3091.97	22.7436
3093.25	21.3214
3094.53	20.9246
3095.8	19.6263
3097.08	18.8106
3098.36	18.1832
3099.63	17.6929
3100.91	16.9344
3102.19	15.9704
3103.46	15.0421
3104.74	15.6239
3106.01	15.1459
3107.29	14.3118
3108.56	14.0895
3109.84	13.4077
3111.11	12.9637
3112.39	11.955
3113.66	11.3018
3114.94	10.9168
3116.21	10.3209
3117.48	9.5594
3118.76	8.83245
3120.03	8.16849
3121.3	7.64453
3122.57	7.21203
3123.85	6.7668
3125.12	6.24208
3126.39	5.68824
3127.66	4.81613
3128.93	4.55132
3130.21	4.00231
3131.48	4.0671
3132.75	3.29604
3134.02	2.5291
3135.29	1.7622
3136.56	1.37671
3137.83	1.29861
3139.1	1.58819
3140.37	1.58982
3141.64	1.1164
3142.91	1.03881
3144.17	1.0586
3145.44	1.25791
3146.71	1.38923
3147.98	2.03186
3149.25	2.71373
