#Acq. time (s)=	45
#Accumulations=	2
#Range (cm-¹)=	200...3150
#Windows=	2
#Auto scanning=	Off
#Autofocus=	Off
#Macrospot=	Off
#AutoExposure=	Off
#Spike filter=	Multiple accum.
#Delay time (s)=	0
#Binning=	1
#Readout mode=	Signal
#DeNoise=	Off
#ICS correction=	On
#Dark correction=	Off
#Inst. Process=	Off
#Detector Gain=	Best Dynamic Range
#Detector ADC=	20 kHz       
#Detector temperature (°C)=	-69.85
#Instrument=	LabRAM HR Evol
#Detector=	Synapse
#Objective=	x100
#Grating=	600 gr/mm
#ND Filter=	100%
#Laser (nm)=	532 
#Hole=	100.021
#Range=	Auto
#Laser Pol.=	No
#Raman. Pol.=	No
#Laser Pol. (°)=	-0.0007625
#Raman Pol. (°)=	89.9995
#Collection=	Microscope
#StageXY=	Marzhauser
#StageZ=	Marzhauser
#X (µm)=	1961.9
#Y (µm)=	-59.5
#Z (µm)=	425.3
#Full time(mm:ss)=	3:18
#Project=	
#Sample=	
#Site=	
#Title=	Thy_40_11_13_2x_45s_532 nm_x100_100%_600 gr_mm
#Remark=	
#Date=	05.07.2022 10:47
#Acquired=	05.07.2022 10:47:53
#Base:Fit=	10.08.2022 10:01:35
#Base:Sub=	10.08.2022 10:01:52
#Filter:Polynom=	16.08.2022 10:21:53
#AxisType[0]=Intens
#AxisUnit[0]=Cnt
#AxisType[1]=Spectr
#AxisUnit[1]=1/cm
200.43	24.6204
202.244	20.5091
204.059	18.4035
205.873	15.5983
207.688	13.8288
209.501	12.2508
211.314	10.8856
213.127	9.76998
214.941	8.89215
216.753	7.78293
218.564	6.46963
220.375	5.22869
222.186	4.81724
223.999	5.61218
225.809	4.24636
227.618	3.4538
229.428	3.31589
231.236	2.32658
233.045	2.60072
234.855	1.91801
236.663	0.73652
238.471	0.527132
240.278	-0.078261
242.085	-0.445121
243.891	-0.0340017
245.698	0.335634
247.503	1.09437
249.309	1.20328
251.116	1.80958
252.921	2.84651
254.725	2.56211
256.529	2.61214
258.333	4.36015
260.136	4.21825
261.939	3.94869
263.742	4.18935
265.544	3.89249
267.346	3.99505
269.148	4.16948
270.949	4.87567
272.75	4.2827
274.55	4.74126
276.351	5.22572
278.15	5.98005
279.95	5.61592
281.749	5.335
283.548	5.69352
285.346	6.3227
287.144	5.84669
288.942	6.35654
290.739	5.64368
292.536	6.61115
294.333	7.06645
296.129	7.91916
297.925	7.99398
299.721	9.4505
301.514	9.61501
303.309	9.93133
305.104	10.9706
306.898	11.1475
308.692	12.3654
310.486	13.5447
312.279	14.3898
314.072	14.3541
315.862	13.9305
317.654	14.7424
319.446	14.8994
321.238	14.8158
323.029	15.3886
324.819	14.9311
326.608	14.5359
328.398	15.0433
330.188	15.3571
331.977	16.3359
333.766	17.1868
335.553	17.8774
337.341	17.4722
339.129	17.6118
340.917	17.9936
342.704	18.294
344.489	19.089
346.275	18.8544
348.062	19.9291
349.845	18.6713
351.631	17.6307
353.416	18.1013
355.201	17.0824
356.984	16.1774
358.768	16.7942
360.552	16.1977
362.333	15.0944
364.116	15.5714
365.899	15.293
367.68	14.4822
369.462	13.9632
371.243	13.5462
373.023	13.5354
374.804	13.0321
376.585	11.9554
378.363	12.3946
380.143	12.1378
381.923	12.6728
383.7	12.5928
385.479	12.4372
387.256	12.1553
389.034	12.4337
390.812	12.6162
392.588	12.593
394.365	13.2918
396.14	12.6052
397.916	13.1719
399.691	12.6037
401.467	11.4683
403.24	10.4081
405.015	9.69766
406.788	9.19448
408.563	8.47164
410.335	8.60671
412.109	8.17006
413.88	7.50098
415.654	7.29613
417.424	7.26264
419.197	8.02734
420.967	8.26574
422.739	7.55635
424.508	8.04249
426.279	6.50827
428.048	6.06304
429.819	5.64206
431.587	5.9668
433.356	5.45598
435.124	4.37756
436.891	4.88925
438.66	3.15065
440.426	3.05156
442.194	3.42104
443.96	3.30442
445.725	4.58219
447.492	4.54594
449.257	3.7785
451.021	3.52493
452.787	4.17311
454.551	3.98095
456.314	3.55631
458.079	4.99605
459.842	5.12809
461.604	5.72665
463.368	5.57038
465.13	5.94906
466.891	7.30743
468.654	7.61996
470.415	9.33083
472.175	9.70917
473.935	11.0332
475.696	12.2281
477.456	13.2623
479.215	14.1902
480.973	14.2876
482.733	15.0506
484.491	15.6696
486.249	15.9932
488.006	16.38
489.765	16.1279
491.522	17.4979
493.278	18.1655
495.034	20.0378
496.789	21.1026
498.544	21.9672
500.301	22.6773
502.056	22.9354
503.81	23.5376
505.564	23.5599
507.317	24.2782
509.071	24.0728
510.825	23.07
512.578	24.2749
514.33	24.0001
516.082	24.311
517.833	24.9971
519.585	24.575
521.335	24.1939
523.086	23.5503
524.836	23.5164
526.586	22.5867
528.335	21.6815
530.085	21.466
531.835	20.29
533.584	19.6986
535.332	17.8968
537.08	16.4839
538.827	15.789
540.574	15.3436
542.321	14.1495
544.068	13.1815
545.814	11.9224
547.56	11.6917
549.305	11.5638
551.05	10.242
552.795	8.91344
554.54	8.4624
556.282	7.9097
558.025	8.06019
559.769	7.43748
561.512	6.54633
563.255	5.88594
564.997	4.92643
566.739	4.52158
568.481	4.15181
570.223	4.19594
571.964	4.18544
573.705	3.27023
575.443	3.14045
577.183	3.14406
578.923	3.42772
580.663	3.53914
582.402	3.98941
584.141	3.86655
585.879	3.40321
587.615	2.86935
589.353	1.70304
591.09	1.75174
592.828	2.20221
594.564	3.27648
596.299	2.86559
598.035	3.12822
599.771	4.63994
601.506	4.27206
603.242	4.19716
604.974	5.10865
606.709	5.26335
608.443	5.65781
610.177	5.29483
611.908	6.33274
613.642	6.7196
615.374	6.64245
617.105	7.84593
618.837	7.3518
620.569	8.56546
622.3	7.89749
624.03	7.98644
625.761	8.96403
627.491	9.97468
629.219	9.74148
630.949	10.0832
632.677	10.8301
634.406	12.6267
636.135	11.9171
637.861	12.3423
639.59	13.583
641.318	15.7589
643.043	17.1236
644.77	18.2826
646.495	18.9715
648.222	18.256
649.948	20.1101
651.672	21.506
653.398	22.2439
655.121	23.4538
656.846	24.6572
658.569	24.4899
660.293	24.298
662.015	24.5407
663.738	26.2102
665.46	25.6995
667.183	25.4314
668.903	24.8246
670.626	25.0777
672.346	25.7336
674.067	25.4747
675.787	25.7418
677.508	27.3029
679.226	28.6697
680.947	29.9446
682.665	30.4892
684.385	32.4941
686.102	32.9182
687.821	33.1278
689.538	34.7676
691.254	34.8368
692.972	34.4984
694.688	34.6747
696.406	35.1004
698.121	36.5841
699.835	37.738
701.552	37.7866
703.266	38.4591
704.98	37.9191
706.695	38.8227
708.409	38.5931
710.121	39.5992
711.836	40.4716
713.548	40.9083
715.26	41.0052
716.973	41.969
718.685	42.6305
720.396	43.4385
722.108	43.7116
723.818	44.6721
725.528	45.5099
727.238	46.3728
728.949	47.1697
730.658	48.258
732.367	49.1348
734.075	50.0837
735.785	51.4752
737.493	52.4183
739.2	53.1989
740.907	54.064
742.614	54.4823
744.322	54.7882
746.028	55.7415
747.734	56.6194
749.439	58.8098
751.144	58.9956
752.849	61.1191
754.555	62.5796
756.26	64.3192
757.963	66.4642
759.667	67.3918
761.37	70.0801
763.073	72.3331
764.775	72.9603
766.477	73.0272
768.179	73.3339
769.883	73.5792
771.584	74.3737
773.285	76.0087
774.986	77.5076
776.686	77.6116
778.386	78.4835
780.085	79.6858
781.785	80.7839
783.484	82.0692
785.182	82.4842
786.881	82.2122
788.579	81.8507
790.276	81.7862
791.974	82.0212
793.671	83.0747
795.367	83.6233
797.064	84.188
798.76	83.7834
800.456	84.1642
802.151	84.4858
803.846	84.9447
805.541	85.5277
807.234	85.4559
808.928	85.7523
810.622	86.1167
812.315	87.1227
814.008	87.6707
815.701	88.4986
817.394	87.4633
819.086	87.3543
820.778	87.447
822.468	88.2611
824.159	88.2154
825.85	88.2149
827.541	88.0052
829.231	88.8885
830.921	88.5612
832.609	88.9635
834.298	88.324
835.987	86.9995
837.676	87.1816
839.364	84.8175
841.051	84.0552
842.738	83.1469
844.426	81.5405
846.113	79.6414
847.798	77.1147
849.484	75.8216
851.171	74.923
852.857	75.1008
854.54	75.8224
856.226	75.5053
857.911	73.7514
859.593	72.0941
861.278	70.1709
862.961	68.4192
864.645	66.8198
866.327	64.9799
868.01	63.9366
869.692	63.1517
871.373	61.4966
873.055	61.0868
874.735	60.5672
876.416	59.9735
878.097	60.4115
879.776	59.8125
881.457	59.1953
883.135	58.0483
884.815	57.1007
886.495	56.4483
888.172	55.6726
889.851	55.0032
891.528	53.9227
893.206	54.4771
894.882	54.9113
896.56	54.3344
898.237	53.173
899.912	52.7714
901.589	52.0213
903.263	53.1801
904.94	53.285
906.614	52.7403
908.289	53.0149
909.962	52.408
911.635	51.6203
913.31	51.5475
914.982	50.1505
916.656	48.8129
918.328	47.2711
920.001	47.3314
921.672	46.9476
923.345	44.5984
925.015	45.9182
926.685	46.8974
928.357	46.7799
930.026	47.0185
931.698	47.6265
933.366	48.1056
935.035	46.3741
936.705	46.2226
938.373	46.2146
940.041	45.2115
941.71	43.3651
943.377	42.0148
945.044	41.7004
946.712	41.9043
948.378	42.2302
950.044	43.1802
951.709	44.4331
953.376	44.9782
955.041	44.3845
956.706	43.7423
958.372	41.888
960.036	42.155
961.699	41.6064
963.362	41.7943
965.027	41.9079
966.69	41.9286
968.352	42.2558
970.014	43.415
971.676	44.1948
973.339	44.7627
975	44.588
976.661	45.5138
978.322	45.8008
979.982	45.9836
981.642	47.6563
983.303	48.3476
984.962	49.3752
986.621	49.2299
988.28	48.5182
989.938	48.4831
991.596	48.7024
993.254	48.0306
994.911	48.2933
996.57	48.3157
998.227	48.5086
999.884	48.4699
1001.54	48.7608
1003.2	49.1936
1004.85	48.8805
1006.51	49.4762
1008.16	51.2119
1009.82	50.7882
1011.47	50.1903
1013.12	49.8783
1014.78	49.0257
1016.43	49.0302
1018.08	48.8436
1019.74	49.4514
1021.39	50.7293
1023.04	50.4104
1024.69	50.2339
1026.34	51.3602
1028	53.0212
1029.65	52.4612
1031.3	52.0557
1032.95	51.666
1034.6	49.9613
1036.25	47.9077
1037.9	46.4358
1039.54	45.1915
1041.19	44.1075
1042.84	44.6014
1044.49	44.8056
1046.14	45.6266
1047.78	45.1245
1049.43	43.9403
1051.08	42.9156
1052.72	41.7186
1054.37	40.3046
1056.02	39.5333
1057.66	38.286
1059.31	38.387
1060.95	37.1313
1062.6	36.9403
1064.24	36.2008
1065.88	34.2578
1067.53	34.3789
1069.17	32.8936
1070.81	31.6001
1072.45	31.3349
1074.1	31.5354
1075.74	31.1008
1077.38	30.4412
1079.02	30.1984
1080.66	29.4902
1082.3	29.5464
1083.94	28.9399
1085.58	29.8486
1087.22	30.0204
1088.86	30.7396
1090.5	31.4286
1092.14	31.7717
1093.78	32.1034
1095.42	32.0649
1097.05	33.1326
1098.69	34.0269
1100.33	34.4345
1101.96	33.916
1103.6	34.3895
1105.24	33.7739
1106.87	33.9422
1108.51	33.0448
1110.14	32.9063
1111.78	31.7436
1113.41	31.0365
1115.05	30.5117
1116.68	28.527
1118.31	27.4898
1119.95	26.7406
1121.58	26.0717
1123.21	25.6788
1124.85	25.6717
1126.48	24.8933
1128.11	23.7926
1129.74	21.8273
1131.37	20.7304
1133	18.9011
1134.63	18.4567
1136.26	17.2941
1137.89	17.2113
1139.52	17.0313
1141.15	17.159
1142.78	15.8092
1144.41	15.3829
1146.04	14.5336
1147.66	13.6102
1149.29	13.3181
1150.92	11.7769
1152.55	11.5408
1154.17	11.092
1155.8	10.2106
1157.43	8.5053
1159.05	7.45528
1160.68	6.9197
1162.3	6.47558
1163.93	6.1105
1165.55	4.89446
1167.17	4.58599
1168.8	4.11787
1170.42	5.0612
1172.05	5.59186
1173.67	5.76012
1175.29	5.99732
1176.91	6.40998
1178.54	6.7669
1180.16	7.11998
1181.78	7.86708
1183.4	7.3562
1185.02	7.96689
1186.64	9.58026
1188.26	9.77105
1189.88	10.6657
1191.5	12.1166
1193.12	12.1659
1194.74	12.7638
1196.36	14.252
1197.97	14.4377
1199.59	15.9813
1201.21	17.8604
1202.83	18.969
1204.44	19.9484
1206.06	21.4311
1207.68	21.9912
1209.29	23.5222
1210.91	24.934
1212.52	26.6632
1214.14	28.2775
1215.75	30.8143
1217.37	32.7993
1218.98	35.6735
1220.59	37.8215
1222.21	38.9663
1223.82	40.0738
1225.43	42.1195
1227.05	43.4988
1228.66	44.9341
1230.27	46.1457
1231.88	46.9509
1233.49	47.974
1235.1	48.7518
1236.72	51.0491
1238.33	52.4671
1239.94	54.0604
1241.55	54.7206
1243.16	55.8487
1244.76	56.7615
1246.37	58.3761
1247.98	59.8254
1249.59	62.4406
1251.2	64.5178
1252.8	64.6619
1254.41	66.1918
1256.02	66.2129
1257.62	67.1364
1259.23	67.7174
1260.84	69.0691
1262.44	69.1376
1264.05	69.8707
1265.66	70.5242
1267.26	71.7562
1268.86	72.3078
1270.47	73.5393
1272.07	74.7996
1273.67	74.6141
1275.28	75.0124
1276.88	75.9638
1278.48	75.8146
1280.09	76.7548
1281.69	76.5729
1283.29	77.0469
1284.89	78.7026
1286.49	79.3377
1288.09	80.2272
1289.69	80.7691
1291.29	81.1819
1292.89	81.8801
1294.49	82.6413
1296.09	83.7538
1297.69	85.068
1299.29	85.3395
1300.89	86.0358
1302.49	86.487
1304.08	87.3857
1305.68	88.1752
1307.28	88.425
1308.88	89.5865
1310.47	90.2322
1312.07	91.3809
1313.66	93.0483
1315.26	93.5453
1316.85	93.426
1318.45	93.0958
1320.04	92.3437
1321.64	91.8142
1323.23	92.0112
1324.83	92.361
1326.42	92.1811
1328.01	91.0387
1329.61	90.2254
1331.2	87.9697
1332.79	85.8513
1334.38	84.6883
1335.97	82.3699
1337.56	82.0268
1339.16	80.5035
1340.75	79.1578
1342.34	78.1645
1343.93	77.4224
1345.52	74.9604
1347.11	73.4936
1348.7	71.807
1350.29	69.7015
1351.87	67.8446
1353.46	65.5458
1355.05	64.1185
1356.64	63.856
1358.22	61.7457
1359.81	60.3713
1361.4	58.5541
1362.98	57.097
1364.57	55.6559
1366.16	53.9773
1367.74	52.7955
1369.33	51.0537
1370.91	50.8617
1372.5	49.3906
1374.08	48.1067
1375.67	48.1579
1377.25	47.5559
1378.83	47.5023
1380.41	47.9647
1382	47.6432
1383.58	47.5173
1385.16	47.2843
1386.74	46.2458
1388.33	46.4745
1389.91	46.4291
1391.49	46.586
1393.07	47.1201
1394.65	45.9725
1396.23	45.815
1397.81	45.8276
1399.39	45.6094
1400.97	45.3321
1402.55	45.0562
1404.13	44.4826
1405.7	43.1367
1407.28	42.5295
1408.86	42.9054
1410.44	43.6077
1412.01	43.9927
1413.59	44.936
1415.17	45.7231
1416.74	47.7319
1418.32	49.001
1419.89	50.7293
1421.47	51.9305
1423.04	53.2526
1424.62	55.0841
1426.19	57.9817
1427.77	59.9773
1429.34	62.557
1430.91	65.6653
1432.49	68.7342
1434.06	71.5695
1435.63	74.6616
1437.2	75.969
1438.78	78.2332
1440.35	80.0599
1441.92	81.2768
1443.49	83.3445
1445.06	84.4185
1446.63	84.9238
1448.2	85.7358
1449.77	85.8199
1451.34	86.7198
1452.91	87.3202
1454.48	87.7115
1456.05	87.0152
1457.62	86.229
1459.18	84.9671
1460.75	83.4662
1462.32	82.0896
1463.89	80.0518
1465.45	77.6676
1467.02	76.2838
1468.59	73.7108
1470.15	71.4786
1471.72	68.4707
1473.28	64.4677
1474.85	60.9305
1476.41	57.5207
1477.98	54.0461
1479.54	49.3683
1481.1	46.7946
1482.67	43.3953
1484.23	40.6059
1485.79	38.1322
1487.36	34.7012
1488.92	31.1415
1490.48	27.8461
1492.04	25.8288
1493.61	24.0294
1495.17	22.8127
1496.73	21.7559
1498.29	20.3623
1499.85	18.5058
1501.41	17.6259
1502.97	17.4568
1504.53	17.2624
1506.09	16.9574
1507.65	18.2664
1509.2	18.6475
1510.76	18.1051
1512.32	17.6979
1513.88	18.9182
1515.43	18.2084
1516.99	17.7811
1518.55	18.2709
1520.1	18.1952
1521.66	19.4018
1523.22	20.5984
1524.77	21.6617
1526.33	22.5726
1527.88	23.7703
1529.44	25.2111
1530.99	24.8455
1532.54	25.7096
1534.1	26.6304
1535.65	28.2181
1537.21	29.0382
1538.76	29.7968
1540.31	31.1867
1541.86	31.6621
1543.42	33.0953
1544.97	34.782
1546.52	37.1101
1548.07	37.9815
1549.62	39.3878
1551.17	40.492
1552.72	41.7182
1554.27	42.9805
1555.82	44.3268
1557.37	45.649
1558.92	48.0812
1560.47	49.3082
1562.02	50.9653
1563.56	51.6108
1565.11	52.6806
1566.66	54.1111
1568.21	56.357
1569.75	57.5318
1571.3	59.7929
1572.85	61.2204
1574.39	62.7802
1575.94	63.9509
1577.49	65.59
1579.03	67.5672
1580.57	70.2971
1582.12	71.95
1583.66	72.6018
1585.21	73.3274
1586.75	73.7649
1588.3	73.5507
1589.84	73.6956
1591.38	73.6843
1592.92	72.0572
1594.47	72.0441
1596.01	72.7357
1597.55	72.5636
1599.09	72.675
1600.63	72.892
1602.17	72.0474
1603.71	70.5505
1605.25	70.2612
1606.79	69.6968
1608.33	68.9036
1609.87	69.1319
1611.41	69.0444
1612.95	69.3109
1614.49	68.5309
1616.03	68.8915
1617.57	69.3439
1619.1	69.1401
1620.64	69.6269
1622.18	70.3425
1623.72	70.9164
1625.25	70.4541
1626.79	71.8395
1628.32	73.0863
1629.86	75.4456
1631.39	76.5792
1632.93	78.7087
1634.46	80.9298
1636	82.6854
1637.53	84.4217
1639.07	85.5243
1640.6	86.8225
1642.13	88.6111
1643.67	90.196
1645.2	92.4866
1646.73	93.8289
1648.26	95.7784
1649.8	96.982
1651.33	98.4314
1652.86	99.9641
1654.39	100.224
1655.92	100.432
1657.45	101.26
1658.98	100.928
1660.51	100.378
1662.04	100.36
1663.57	99.7346
1665.1	97.8038
1666.63	95.8298
1668.16	94.299
1669.68	93.2876
1671.21	91.232
1672.74	89.8519
1674.27	87.0179
1675.79	83.97
1677.32	81.808
1678.85	78.5897
1680.37	75.4504
1681.9	72.5739
1683.42	69.0096
1684.95	65.6502
1686.47	62.5826
1688	58.9907
1689.52	55.3359
1691.05	52.1042
1692.57	48.5469
1694.09	44.3513
1695.62	41.0426
1697.14	37.845
1698.66	34.6688
1700.18	31.3193
1701.71	28.6057
1703.23	26.7018
1704.75	24.1173
1706.27	22.2795
1707.79	19.1463
1709.31	17.89
1710.83	15.7141
1712.35	13.9696
1713.87	12.6047
1715.39	10.5648
1716.91	9.63364
1718.43	8.58018
1719.95	8.28321
1721.47	7.53558
1722.99	6.33342
1724.5	6.53358
1726.02	6.01356
1727.54	5.6274
1729.06	5.61236
1730.57	5.36076
1732.09	6.00096
1733.61	6.47285
1735.12	6.36753
1736.64	7.01391
1738.15	7.10303
1739.67	6.90043
1741.18	6.36396
1742.7	6.00745
1744.21	6.29608
1745.72	6.65073
1747.24	6.81308
1748.75	7.27581
1750.26	7.03223
1751.77	7.46195
1753.29	7.84179
1754.8	7.23324
1756.31	6.61341
1757.82	6.31467
1759.33	6.28534
1760.84	6.03793
1762.36	5.85847
1763.87	5.38723
1765.38	4.35818
1766.89	4.14508
1768.4	2.66063
1769.91	2.25814
1771.41	2.22408
1772.92	1.75688
1774.43	1.024
1775.94	1.23545
1777.45	1.59413
1778.95	1.36367
1780.46	1.08908
1781.97	0.958043
1783.48	0.464838
1784.98	0.947628
1786.49	0.532183
1787.99	0.450732
1789.5	0.26643
1791.01	-0.291555
1792.51	0.329771
1794.01	-0.0432904
1795.52	0.0222553
1797.02	-0.290052
1798.53	-0.241103
1800.03	0.199733
1801.53	-0.0778718
1803.04	0.044326
1804.54	0.398463
1806.04	0.556276
1807.54	0.697794
1809.05	1.04524
1810.55	1.13792
1812.05	0.9335
1813.55	0.361618
1815.05	0.0255674
1816.55	-0.186681
1818.05	0.264253
1819.55	0.768617
1821.05	1.21449
1822.55	1.60021
1824.05	1.19424
1825.55	1.35772
1827.05	1.43857
1828.55	1.33976
1830.04	0.971673
1831.54	0.766103
1833.04	1.27552
1834.54	1.1298
1836.03	0.928607
1837.53	1.40132
1839.03	1.37762
1840.52	1.3498
1842.02	1.74857
1843.51	1.70011
1845.01	2.1047
1846.5	2.16897
1848	2.83435
1849.49	2.62079
1850.99	3.28241
1852.48	3.07539
1853.97	2.7984
1855.47	2.5298
1856.96	2.86588
1858.45	3.44552
1859.94	3.55968
1861.44	3.78376
1862.93	3.32349
1864.42	3.65311
1865.91	3.80288
1867.4	3.60305
1868.89	3.4545
1870.38	4.13913
1871.87	4.47931
1873.36	4.87604
1874.85	5.0574
1876.34	5.43199
1877.83	5.62668
1879.32	5.52736
1880.81	5.37029
1882.3	5.44009
1882.57	5.30428
1884.07	4.64666
1885.56	4.58414
1887.06	4.36818
1888.55	4.67731
1890.04	4.48114
1891.54	4.3961
1893.03	4.25841
1894.52	4.66958
1896.02	4.91812
1897.51	5.06139
1899	5.16209
1900.49	4.96043
1901.98	4.80964
1903.47	4.89316
1904.96	5.59246
1906.45	6.24976
1907.94	6.00329
1909.43	5.41648
1910.92	5.25762
1912.41	4.66253
1913.9	4.72762
1915.39	5.07017
1916.88	5.00674
1918.37	4.97124
1919.85	5.31553
1921.34	5.8814
1922.83	5.37906
1924.32	6.0835
1925.8	5.5131
1927.29	5.35847
1928.78	5.76176
1930.26	6.01068
1931.75	5.81534
1933.23	5.4913
1934.72	5.67079
1936.2	5.47921
1937.69	5.93558
1939.17	5.51732
1940.66	5.0463
1942.14	5.83844
1943.63	5.49247
1945.11	5.45671
1946.59	5.78971
1948.07	5.49949
1949.56	5.40941
1951.04	5.11454
1952.52	4.08702
1954	4.22404
1955.48	3.73956
1956.96	3.45076
1958.45	3.18825
1959.93	3.45931
1961.41	2.92938
1962.89	3.05358
1964.37	2.38045
1965.85	2.80617
1967.32	3.21258
1968.8	3.056
1970.28	2.61729
1971.76	2.30577
1973.24	1.3847
1974.72	1.05407
1976.19	0.766473
1977.67	1.0437
1979.15	0.583052
1980.63	0.187039
1982.1	-0.0843158
1983.58	-0.331449
1985.05	-0.250627
1986.53	-0.43049
1988	-0.00568549
1989.48	-0.0333708
1990.95	-0.0989844
1992.43	0.134979
1993.9	0.545911
1995.38	0.872138
1996.85	0.482589
1998.32	1.18533
1999.8	0.766533
2001.27	0.374241
2002.74	1.05576
2004.22	1.06329
2005.69	1.01055
2007.16	0.640969
2008.63	0.829532
2010.1	1.01306
2011.57	1.04964
2013.04	0.775972
2014.51	0.853024
2015.98	1.39402
2017.45	1.82041
2018.92	3.16778
2020.39	3.99726
2021.86	3.59087
2023.33	3.51511
2024.8	3.77402
2026.27	3.70615
2027.74	4.48471
2029.2	4.27488
2030.67	5.14219
2032.14	5.15528
2033.61	5.1712
2035.07	4.55554
2036.54	4.51894
2038.01	5.02355
2039.47	5.50811
2040.94	5.47866
2042.4	5.7563
2043.87	6.66229
2045.33	6.52901
2046.8	7.21075
2048.26	7.74428
2049.72	8.2894
2051.19	8.42666
2052.65	7.97268
2054.12	8.44685
2055.58	8.64281
2057.04	8.90234
2058.5	8.72053
2059.97	9.82516
2061.43	9.95307
2062.89	10.3246
2064.35	11.0585
2065.81	11.5506
2067.27	12.3693
2068.73	13.0782
2070.19	13.5737
2071.65	14.5479
2073.11	15.0105
2074.57	15.2995
2076.03	16.3975
2077.49	17.0889
2078.95	17.0721
2080.41	18.1244
2081.87	19.4128
2083.32	20.3819
2084.78	21.2036
2086.24	22.1646
2087.7	23.3627
2089.15	25.0953
2090.61	25.9387
2092.07	26.5712
2093.52	27.242
2094.98	27.5977
2096.43	28.998
2097.89	29.7678
2099.34	30.6974
2100.8	31.5758
2102.25	32.7273
2103.71	33.9817
2105.16	34.6005
2106.61	35.5098
2108.07	37.1599
2109.52	38.8954
2110.97	40.9887
2112.43	41.762
2113.88	43.3703
2115.33	45.0123
2116.78	46.52
2118.23	46.934
2119.68	48.8278
2121.13	49.8632
2122.59	50.8567
2124.04	52.2924
2125.49	54.1533
2126.94	56.3075
2128.39	58.043
2129.83	59.7642
2131.28	62.3873
2132.73	64.6386
2134.18	65.6057
2135.63	68.1173
2137.08	69.9663
2138.53	71.7908
2139.97	74.2176
2141.42	76.2726
2142.87	78.4982
2144.31	80.3302
2145.76	82.5048
2147.21	84.1808
2148.65	86.1365
2150.1	89.3576
2151.54	91.4408
2152.99	94.0055
2154.43	96.5197
2155.88	98.2968
2157.32	100.525
2158.77	101.833
2160.21	102.987
2161.65	104.332
2163.1	105.736
2164.54	107.473
2165.98	108.342
2167.43	109.292
2168.87	110.639
2170.31	110.393
2171.75	110.606
2173.19	110.721
2174.64	111.858
2176.07	111.186
2177.52	110.709
2178.96	110.347
2180.4	109.34
2181.84	108.555
2183.28	108.11
2184.72	106.923
2186.15	106.222
2187.59	105.052
2189.03	103.636
2190.47	101.74
2191.91	99.5226
2193.35	97.4327
2194.78	95.8731
2196.22	94.2979
2197.66	92.0494
2199.09	89.8963
2200.53	87.6023
2201.97	85.2423
2203.4	82.9691
2204.84	80.2022
2206.27	77.4656
2207.71	75.7952
2209.14	73.0366
2210.58	70.8925
2212.01	69.2115
2213.45	66.9699
2214.88	64.8842
2216.31	62.5731
2217.75	61.3306
2219.18	59.3513
2220.61	57.7712
2222.05	56.706
2223.48	54.5941
2224.91	52.9418
2226.34	51.509
2227.78	49.5134
2229.21	48.106
2230.64	46.3305
2232.07	44.9761
2233.5	44.1921
2234.93	43.3692
2236.36	41.4624
2237.79	39.6615
2239.22	38.5701
2240.65	37.3427
2242.08	36.4012
2243.5	35.2746
2244.93	34.9112
2246.36	33.9447
2247.79	32.0649
2249.22	31.1427
2250.64	30.0463
2252.07	29.3216
2253.5	29.4028
2254.92	28.9859
2256.35	28.0562
2257.78	27.2438
2259.2	26.8715
2260.63	25.6851
2262.05	24.4161
2263.48	23.7081
2264.9	23.8888
2266.33	23.3135
2267.75	21.9248
2269.18	21.2196
2270.6	21.1235
2272.02	20.3102
2273.45	19.9261
2274.87	19.7063
2276.29	19.4118
2277.71	18.6341
2279.14	18.5664
2280.56	17.7688
2281.98	17.7774
2283.4	17.4972
2284.82	16.9561
2286.24	16.8757
2287.66	16.2472
2289.08	16.1895
2290.5	15.0684
2291.92	14.5944
2293.34	13.9461
2294.76	13.1943
2296.18	12.8557
2297.6	12.416
2299.02	12.6153
2300.44	12.9112
2301.86	12.6601
2303.27	12.6401
2304.69	12.429
2306.11	12.0382
2307.53	11.1986
2308.94	11.434
2310.36	11.2532
2311.78	11.7906
2313.19	12.4691
2314.61	11.4845
2316.02	11.4009
2317.44	10.9642
2318.85	10.4744
2320.27	10.1566
2321.68	10.1139
2323.1	10.474
2324.51	10.5215
2325.92	9.97664
2327.34	9.02502
2328.75	8.52198
2330.16	8.53059
2331.58	7.74491
2332.99	7.16627
2334.4	7.21792
2335.81	6.561
2337.23	5.89327
2338.64	5.17792
2340.05	5.45799
2341.46	5.64797
2342.87	4.7616
2344.28	4.90861
2345.69	4.07479
2347.1	4.22263
2348.51	3.87257
2349.92	3.86645
2351.33	3.59724
2352.74	3.29978
2354.15	2.72496
2355.55	2.46985
2356.96	2.23521
2358.37	1.56494
2359.78	1.72114
2361.19	2.05673
2362.59	2.18274
2364	1.89925
2365.41	2.35421
2366.81	2.99764
2368.22	3.4702
2369.62	3.71031
2371.03	3.23766
2372.44	3.33011
2373.84	3.50759
2375.24	3.07539
2376.65	3.31502
2378.05	3.5985
2379.46	4.38274
2380.86	4.084
2382.26	4.8913
2383.67	5.05971
2385.07	4.66655
2386.47	4.41027
2387.88	4.37494
2389.28	4.30697
2390.68	5.43732
2392.08	5.90678
2393.48	5.91831
2394.89	5.4226
2396.29	5.64212
2397.69	5.86539
2399.09	5.83907
2400.49	5.87157
2401.89	5.35292
2403.29	5.90223
2404.69	6.8222
2406.09	6.42282
2407.48	6.88519
2408.88	7.24332
2410.28	8.11713
2411.68	8.41491
2413.08	7.7286
2414.48	7.58518
2415.87	7.36974
2417.27	8.31346
2418.67	8.05496
2420.06	7.76529
2421.46	7.97822
2422.86	7.90738
2424.25	7.5832
2425.65	7.23084
2427.04	7.467
2428.44	8.10556
2429.83	8.38552
2431.23	7.89925
2432.62	6.83521
2434.02	6.2713
2435.41	5.88706
2436.81	5.14151
2438.2	4.79042
2439.59	4.71747
2440.99	4.91508
2442.38	5.22154
2443.77	4.89612
2445.16	4.64568
2446.56	5.02782
2447.95	4.76258
2449.34	4.38163
2450.73	4.29279
2452.12	4.63087
2453.51	4.43707
2454.9	4.05464
2456.29	3.83309
2457.68	3.91861
2459.07	3.97805
2460.46	4.38907
2461.85	4.16125
2463.24	4.18304
2464.63	4.11533
2466.02	4.18314
2467.4	3.8691
2468.79	3.88823
2470.18	4.51525
2471.57	4.83793
2472.95	5.3145
2474.34	5.39621
2475.73	5.13378
2477.12	5.5988
2478.5	5.44577
2479.89	5.53591
2481.27	5.2029
2482.66	4.28253
2484.04	4.69093
2485.43	4.2439
2486.81	4.26329
2488.2	3.26603
2489.58	2.61553
2490.97	3.11276
2492.35	2.19722
2493.73	1.85935
2495.12	2.04654
2496.5	2.31827
2497.88	1.82996
2499.27	1.11057
2500.65	0.636178
2502.03	0.699041
2503.41	0.0883679
2504.79	0.0455884
2506.17	0.278936
2507.56	0.852073
2508.94	1.38126
2510.32	1.1494
2511.7	0.7149
2513.08	0.450297
2514.46	0.751383
2515.84	0.928408
2517.22	1.05243
2518.59	1.31858
2519.97	1.60614
2521.35	1.11672
2522.73	0.663758
2524.11	0.391421
2525.49	0.762696
2526.86	0.715086
2528.24	0.976492
2529.62	1.66827
2530.99	1.39692
2532.37	1.51202
2533.75	2.08593
2535.12	2.45587
2536.5	2.9539
2537.88	2.99017
2539.25	2.95229
2540.63	3.32012
2542	3.76646
2543.38	4.41815
2544.75	3.89595
2546.12	3.93378
2547.5	4.18331
2548.87	4.07438
2550.24	3.71135
2551.62	3.74251
2552.99	3.77721
2554.36	3.19462
2555.74	3.3621
2557.11	3.63337
2558.48	3.87608
2559.85	4.36835
2561.22	4.58702
2562.59	5.11697
2563.96	5.07818
2565.34	5.01227
2566.71	4.91586
2568.08	5.1262
2569.45	5.12351
2570.82	4.88198
2572.18	4.7173
2573.55	4.82774
2574.92	4.71296
2576.29	5.08792
2577.66	5.35641
2579.03	5.6395
2580.4	5.90268
2581.77	6.6323
2583.13	7.31615
2584.5	7.12069
2585.87	7.02855
2587.23	6.47627
2588.6	5.70829
2589.97	5.348
2591.33	5.47511
2592.7	5.88349
2594.06	6.38466
2595.43	6.33418
2596.79	6.53696
2598.16	6.868
2599.52	6.95643
2600.89	6.90929
2602.25	7.21493
2603.62	6.47664
2604.98	6.28512
2606.34	6.04923
2607.71	5.86157
2609.07	6.3947
2610.43	6.18183
2611.79	5.77873
2613.16	5.48143
2614.52	6.22465
2615.88	6.00742
2617.24	5.87186
2618.6	5.58629
2619.96	6.08752
2621.32	5.48598
2622.68	5.43161
2624.04	5.87505
2625.4	6.31147
2626.76	6.05625
2628.12	6.46331
2629.48	6.72842
2630.84	6.51888
2632.2	6.54145
2633.56	6.19474
2634.92	5.50365
2636.28	5.70378
2637.63	5.19587
2638.99	5.08612
2640.35	4.98144
2641.71	4.79689
2643.06	5.18517
2644.42	5.0393
2645.77	5.06355
2647.13	4.51397
2648.49	4.23783
2649.84	4.16792
2651.2	3.78726
2652.55	3.10362
2653.91	2.98508
2655.26	3.08291
2656.62	3.66262
2657.97	4.24688
2659.33	4.71786
2660.68	5.11368
2662.03	5.30896
2663.39	5.07582
2664.74	5.06879
2666.09	5.19722
2667.44	5.23695
2668.8	5.13784
2670.15	5.57637
2671.5	5.36949
2672.85	5.88694
2674.2	5.90904
2675.55	5.77518
2676.91	6.81833
2678.26	6.57197
2679.61	6.87991
2680.96	7.43455
2682.31	8.02892
2683.66	8.34625
2685	8.77784
2686.35	8.83964
2687.7	9.1829
2689.05	8.79372
2690.4	9.155
2691.75	9.68709
2693.1	9.81165
2694.44	10.0409
2695.79	10.5557
2697.14	10.6605
2698.49	10.6284
2699.83	11.0473
2701.18	10.392
2702.52	10.5952
2703.87	10.7676
2705.22	10.638
2706.56	10.8596
2707.91	10.5314
2709.25	10.7599
2710.6	11.0249
2711.94	10.5939
2713.29	10.881
2714.63	10.287
2715.97	10.3999
2717.32	10.1926
2718.66	10.6133
2720.01	11.1879
2721.35	11.8525
2722.69	12.9278
2724.03	12.7343
2725.38	12.4206
2726.72	13.0865
2728.06	12.8522
2729.4	12.3774
2730.74	12.5789
2732.08	13.2696
2733.42	13.6062
2734.76	13.6752
2736.1	13.3304
2737.44	13.2234
2738.78	12.8801
2740.12	12.8856
2741.46	12.5753
2742.8	12.5605
2744.14	13.2609
2745.48	12.9202
2746.82	13.0826
2748.16	12.966
2749.49	12.8056
2750.83	12.2217
2752.17	11.2362
2753.51	10.7092
2754.84	10.4904
2756.18	10.2469
2757.52	9.91567
2758.85	10.3779
2760.19	10.0282
2761.53	9.20379
2762.86	8.80308
2764.2	8.38719
2765.53	7.63574
2766.87	7.05443
2768.2	5.63596
2769.54	5.08521
2770.87	4.21099
2772.2	3.96583
2773.54	3.15391
2774.87	2.37255
2776.2	2.51712
2777.54	1.90504
2778.87	1.57706
2780.2	1.07189
2781.53	0.871046
2782.87	1.5408
2784.2	1.9651
2785.53	2.80002
2786.86	3.22788
2788.19	2.68767
2789.52	2.83023
2790.85	2.08174
2792.18	2.8242
2793.51	3.09824
2794.84	3.20241
2796.17	3.7965
2797.5	4.74073
2798.83	5.06499
2800.16	4.95833
2801.49	4.85962
2802.82	4.74434
2804.15	4.9889
2805.47	5.2295
2806.8	5.77278
2808.13	5.43846
2809.46	5.2615
2810.78	5.45673
2812.11	5.53191
2813.44	5.3026
2814.76	5.32005
2816.09	5.45574
2817.42	6.24018
2818.74	6.88115
2820.07	7.95578
2821.39	9.25811
2822.72	10.3379
2824.04	11.8359
2825.37	13.0522
2826.69	13.9058
2828.02	14.8717
2829.34	16.8253
2830.66	18.4149
2831.99	19.9312
2833.31	21.8857
2834.63	23.847
2835.96	25.6323
2837.28	27.9425
2838.6	31.0141
2839.92	33.4108
2841.24	36.8377
2842.57	39.984
2843.89	43.1917
2845.21	47.1296
2846.53	50.555
2847.85	55.2094
2849.17	59.9753
2850.49	64.0583
2851.81	68.8956
2853.13	73.4634
2854.45	77.7835
2855.77	82.5504
2857.09	87.0898
2858.41	91.6553
2859.72	95.9632
2861.04	100.414
2862.36	104.62
2863.68	109.091
2865	112.524
2866.31	115.983
2867.63	119.343
2868.95	122.009
2870.26	124.997
2871.58	127.709
2872.9	130.322
2874.21	133.168
2875.53	136.089
2876.84	138.554
2878.16	140.947
2879.47	144.178
2880.79	146.563
2882.1	148.924
2883.42	151.362
2884.73	153.652
2886.05	156.149
2887.36	158.136
2888.67	160.223
2889.99	162.751
2891.3	164.689
2892.61	166.99
2893.92	168.976
2895.24	171.853
2896.55	174.692
2897.86	177.779
2899.17	181.008
2900.48	184.479
2901.79	188.378
2903.11	193.174
2904.42	197.418
2905.73	202.369
2907.04	208.633
2908.35	213.583
2909.66	219.271
2910.97	224.995
2912.27	231.423
2913.58	238.538
2914.89	246.183
2916.2	252.176
2917.51	258.345
2918.82	264.009
2920.13	269.29
2921.43	274.306
2922.74	279.575
2924.05	283.624
2925.35	287.784
2926.66	290.329
2927.97	293.203
2929.27	295.108
2930.58	295.902
2931.89	296.826
2933.19	297.057
2934.5	296.302
2935.8	295.977
2937.11	295.186
2938.41	293.727
2939.72	291.147
2941.02	288.222
2942.32	285.279
2943.63	281.623
2944.93	277.681
2946.24	272.799
2947.54	267.75
2948.84	263.09
2950.14	258.014
2951.45	252.316
2952.75	246.558
2954.05	241.566
2955.35	235.58
2956.65	228.852
2957.95	222.684
2959.26	216.812
2960.56	211.035
2961.86	204.999
2963.16	198.983
2964.46	193.045
2965.76	187.164
2967.06	181.854
2968.36	176.425
2969.66	171.077
2970.96	166.692
2972.25	161.667
2973.55	156.102
2974.85	151.841
2976.15	147.652
2977.45	143.989
2978.74	140.063
2980.04	135.638
2981.34	130.629
2982.64	126.192
2983.93	121.497
2985.23	117.094
2986.52	112.376
2987.82	107.264
2989.12	101.651
2990.41	96.7246
2991.71	91.1589
2993	86.9862
2994.3	82.2339
2995.59	77.982
2996.89	73.658
2998.18	69.9522
2999.48	65.9987
3000.77	62.8166
3002.06	59.2665
3003.36	55.1462
3004.65	51.9988
3005.94	49.1378
3007.23	46.1237
3008.53	42.6191
3009.82	40.0499
3011.11	37.3052
3012.4	34.4192
3013.69	32.6237
3014.99	30.3699
3016.28	28.1694
3017.57	26.6467
3018.86	24.4368
3020.15	22.1265
3021.44	20.3143
3022.73	19.5019
3024.02	18.0888
3025.31	16.7076
3026.6	15.7451
3027.89	15.0167
3029.18	14.4148
3030.46	13.7478
3031.75	13.5472
3033.04	13.0964
3034.33	13.0358
3035.62	13.5407
3036.9	13.9962
3038.19	14.263
3039.48	15.0408
3040.76	14.8319
3042.05	15.6442
3043.34	16.3206
3044.62	17.0776
3045.91	18.017
3047.19	17.4851
3048.48	17.5315
3049.77	17.5203
3051.05	17.1785
3052.34	16.958
3053.62	16.6835
3054.9	16.7877
3056.19	16.5686
3057.47	17.0871
3058.76	17.1055
3060.04	16.5778
3061.32	16.0655
3062.61	15.9604
3063.89	14.908
3065.17	14.2259
3066.45	13.7784
3067.74	12.9983
3069.02	12.5714
3070.3	11.5064
3071.58	10.471
3072.86	8.94598
3074.14	8.29973
3075.42	7.56577
3076.7	6.68614
3077.99	6.00413
3079.26	5.54657
3080.54	4.5552
3081.82	3.5262
3083.1	2.40077
3084.38	2.08461
3085.66	1.60538
3086.94	1.3279
3088.22	0.0533765
3089.5	-0.0851621
3090.78	-0.205469
3092.05	-0.542498
3093.33	-0.735352
3094.61	-0.521724
3095.89	-0.165801
3097.16	0.28789
3098.44	0.439649
3099.72	0.705854
3100.99	0.592343
3102.27	0.653435
3103.54	0.798467
3104.82	0.294572
3106.1	1.04489
3107.37	0.654215
3108.65	0.448191
3109.92	0.551342
3111.2	-0.0165288
3112.47	0.41534
3113.74	0.231096
3115.02	0.171485
3116.29	0.171267
3117.56	0.675478
3118.84	1.11609
3120.11	1.2558
3121.38	1.54642
3122.66	1.15848
3123.93	0.908411
3125.2	1.47737
3126.47	1.75796
3127.74	1.72759
3129.01	2.2759
3130.29	2.73138
3131.56	2.37573
3132.83	2.49446
3134.1	2.784
3135.37	3.18949
3136.64	3.64207
3137.91	4.62019
3139.18	5.07465
3140.45	5.60503
3141.72	6.46472
3142.99	7.10105
3144.26	7.82788
3145.52	8.83252
3146.79	9.40436
3148.06	10.3396
3149.33	11.6813
