#Acq. time (s)=	45
#Accumulations=	2
#Range (cm-¹)=	200...3150
#Windows=	2
#Auto scanning=	Off
#Autofocus=	Off
#Macrospot=	Off
#AutoExposure=	Off
#Spike filter=	Multiple accum.
#Delay time (s)=	0
#Binning=	1
#Readout mode=	Signal
#DeNoise=	Off
#ICS correction=	On
#Dark correction=	Off
#Inst. Process=	Off
#Detector Gain=	Best Dynamic Range
#Detector ADC=	20 kHz       
#Detector temperature (°C)=	-69.85
#Instrument=	LabRAM HR Evol
#Detector=	Synapse
#Objective=	x100
#Grating=	600 gr/mm
#ND Filter=	100%
#Laser (nm)=	532 
#Hole=	100.021
#Range=	Auto
#Laser Pol.=	No
#Raman. Pol.=	No
#Laser Pol. (°)=	-0.0007625
#Raman Pol. (°)=	89.9995
#Collection=	Microscope
#StageXY=	Marzhauser
#StageZ=	Marzhauser
#X (µm)=	-5916
#Y (µm)=	2885
#Z (µm)=	-223.55
#Full time(mm:ss)=	3:18
#Project=	
#Sample=	
#Site=	
#Title=	Thy_20_09_26_2x_45s_532 nm_x100_100%_600 gr_mm
#Remark=	
#Date=	29.06.2022 12:29
#Acquired=	29.06.2022 12:29:04
#Base:Fit=	10.08.2022 09:52:02
#Base:Fit=	10.08.2022 09:52:12
#Base:Sub=	10.08.2022 09:54:21
#Filter:Polynom=	16.08.2022 10:24:04
#AxisType[0]=Intens
#AxisUnit[0]=Cnt
#AxisType[1]=Spectr
#AxisUnit[1]=1/cm
200.523	7.62435
202.339	10.6615
204.154	11.2822
205.967	11.5254
207.781	11.9751
209.596	12.2549
211.409	12.569
213.222	13.0413
215.034	12.0649
216.848	12.1671
218.659	12.2117
220.47	13.1856
222.281	13.2125
224.091	12.9853
225.903	12.547
227.713	11.692
229.522	11.5939
231.331	11.3491
233.14	10.3977
234.948	10.0369
236.756	9.72731
238.566	9.50881
240.373	8.83061
242.18	8.50984
243.986	9.07858
245.792	9.27269
247.598	9.14752
249.403	9.10338
251.208	9.52418
253.013	9.32227
254.818	8.84423
256.624	8.92123
258.427	8.9376
260.231	10.0323
262.034	11.042
263.836	11.026
265.638	11.7371
267.44	12.2975
269.242	11.7244
271.043	11.3209
272.844	10.2711
274.645	9.89264
276.445	9.45912
278.245	10.4728
280.044	10.7388
281.843	9.95479
283.642	10.4062
285.44	9.6025
287.238	8.96364
289.036	8.4224
290.833	7.91644
292.63	7.18408
294.425	7.69253
296.221	7.26131
298.017	6.4413
299.813	7.05354
301.608	7.18431
303.403	7.46607
305.198	7.24207
306.992	8.06416
308.786	7.4293
310.579	7.29081
312.371	6.61724
314.163	6.2583
315.956	6.51846
317.748	6.49409
319.54	7.20228
321.331	7.68637
323.122	7.31604
324.911	7.68325
326.701	7.63644
328.491	8.06731
330.281	8.6365
332.071	9.11306
333.857	9.3608
335.646	9.52058
337.434	10.0077
339.222	10.2639
341.008	10.6434
342.795	10.5628
344.582	9.45407
346.369	9.06439
348.153	9.94597
349.939	9.66105
351.724	9.08927
353.51	8.43356
355.292	7.98991
357.077	6.87621
358.861	6.28453
360.643	6.49068
362.426	5.74067
364.21	6.27829
365.99	6.27975
367.773	5.28432
369.555	3.92589
371.335	2.86464
373.116	2.0138
374.897	-0.109329
376.676	0.250517
378.456	-0.611426
380.236	-0.767446
382.014	-0.846886
383.793	-0.0122135
385.57	-0.117652
387.349	0.307612
389.127	1.39953
390.903	1.00272
392.681	2.09657
394.456	2.46014
396.233	2.71137
398.007	3.04487
399.784	4.108
401.56	4.45161
403.333	5.12582
405.108	5.68723
406.881	5.85281
408.656	5.94377
410.428	6.11501
412.202	6.25976
413.973	7.45889
415.746	7.93877
417.517	8.68052
419.29	9.67911
421.06	10.0603
422.831	10.795
424.601	12.0558
426.37	12.4956
428.141	12.9254
429.909	13.6963
431.679	13.5703
433.447	12.5627
435.216	12.3499
436.983	12.4117
438.75	12.2052
440.519	10.8807
442.285	10.8749
444.052	10.2725
445.818	10.3016
447.583	11.0296
449.349	11.0858
451.114	11.0914
452.878	10.7556
454.643	10.0772
456.407	8.98838
458.169	9.74264
459.934	9.79511
461.696	9.19613
463.458	8.9928
465.222	9.4006
466.983	8.93026
468.744	9.95934
470.507	9.74803
472.267	9.92452
474.027	9.32425
475.787	9.61301
477.548	9.24504
479.307	10.0988
481.065	11.1042
482.823	10.2746
484.583	9.82311
486.341	9.76347
488.098	9.28774
489.855	9.63884
491.612	10.5073
493.37	10.5642
495.126	11.385
496.881	13.1065
498.636	14.3664
500.391	15.8246
502.148	17.0395
503.902	17.9803
505.656	18.4218
507.409	19.4184
509.162	18.9753
510.915	18.8856
512.668	19.1984
514.42	18.9715
516.174	17.883
517.925	17.1214
519.676	15.8103
521.427	14.9203
523.178	15.1365
524.928	14.8725
526.678	14.7096
528.427	13.9195
530.176	14.4534
531.925	14.3914
533.673	14.6554
535.422	14.3427
537.169	12.6394
538.917	11.5735
540.664	10.9333
542.411	10.5986
544.157	10.3707
545.903	10.312
547.649	9.64511
549.395	9.05149
551.14	9.02665
552.884	8.96178
554.629	8.56604
556.373	7.56077
558.117	6.78578
559.86	7.05989
561.603	6.87542
563.346	7.25359
565.089	7.01857
566.831	7.46629
568.573	6.41786
570.314	5.94354
572.053	6.14162
573.794	6.39775
575.534	6.46861
577.274	7.11206
579.014	7.95108
580.754	7.94226
582.493	8.65663
584.23	9.53813
585.968	9.11644
587.706	9.74842
589.444	9.46552
591.181	8.39357
592.919	7.20063
594.653	7.73
596.39	6.97218
598.126	6.88906
599.862	6.24654
601.595	5.69105
603.33	4.66998
605.065	4.99787
606.8	5.06143
608.532	4.93782
610.266	5.53994
611.999	4.95732
613.732	5.56403
615.463	4.87683
617.196	4.10988
618.928	4.40454
620.66	4.49536
622.389	3.79331
624.12	4.54198
625.851	4.63794
627.58	6.44863
629.31	6.57273
631.04	7.44958
632.767	7.48704
634.497	7.3764
636.223	8.14433
637.952	8.12577
639.68	8.78352
641.406	9.26456
643.134	10.062
644.861	11.3293
646.586	11.7662
648.312	13.0182
650.037	14.1197
651.762	14.6448
653.486	15.6988
655.211	16.9236
656.936	18.5935
658.659	19.4672
660.383	19.9622
662.105	20.8421
663.829	22.0254
665.55	22.5471
667.273	22.8776
668.994	23.842
670.716	24.391
672.436	25.4393
674.158	24.8989
675.877	24.9525
677.598	25.3218
679.317	26.0548
681.035	27.9165
682.755	27.7587
684.473	28.4747
686.192	28.5561
687.909	28.9561
689.628	29.6464
691.344	30.8125
693.06	31.975
694.778	31.7517
696.493	33.3407
698.211	33.6662
699.925	34.2766
701.64	34.3352
703.356	34.8638
705.07	36.4393
706.783	36.4977
708.498	36.451
710.211	37.0895
711.924	36.0634
713.638	36.5099
715.35	35.8639
717.061	36.4602
718.774	36.3676
720.485	37.74
722.196	38.3231
723.906	38.1606
725.618	38.7804
727.328	39.5125
729.037	38.8324
730.746	39.2332
732.456	39.847
734.165	42.1662
735.873	42.8012
737.58	43.0906
739.289	43.8197
740.997	44.5404
742.703	45.5723
744.41	45.1884
746.116	46.8702
747.823	48.3504
749.529	49.4466
751.234	50.2409
752.938	51.3868
754.643	52.3962
756.347	53.6118
758.051	54.8448
759.756	54.5588
761.459	56.662
763.162	57.9499
764.865	59.6641
766.567	61.028
768.269	61.9884
769.97	63.698
771.671	64.4518
773.372	66.0679
775.073	67.3889
776.773	68.0958
778.473	68.5498
780.174	69.2315
781.874	71.2485
783.573	71.0972
785.271	71.7906
786.97	72.3006
788.668	72.8757
790.365	73.4871
792.063	74.2613
793.76	75.3641
795.456	76.0762
797.153	76.4005
798.847	76.9974
800.543	77.9739
802.238	78.8809
803.933	78.1108
805.628	78.5709
807.322	77.3335
809.017	77.1583
810.71	77.4124
812.404	77.8876
814.097	77.4588
815.79	78.8396
817.483	78.834
819.173	79.2101
820.865	78.0433
822.556	78.0173
824.248	77.9199
825.939	77.9003
827.629	77.2984
829.318	76.0353
831.008	75.7412
832.697	74.3868
834.387	73.4309
836.076	71.9553
837.765	70.0973
839.451	70.39
841.139	69.0434
842.827	67.6993
844.514	66.139
846.2	64.7309
847.886	63.1895
849.573	62.0817
851.259	60.539
852.943	60.3105
854.629	58.5915
856.314	56.6146
857.997	55.759
859.682	54.2338
861.366	53.5985
863.05	52.9236
864.732	52.3467
866.415	51.6208
868.098	50.823
869.779	50.8802
871.461	50.5164
873.141	51.646
874.823	52.4126
876.505	52.1135
878.184	51.0317
879.865	50.9274
881.545	50.1343
883.223	50.5676
884.903	50.5087
886.581	50.6525
888.26	49.6361
889.937	49.6483
891.616	49.601
893.294	50.2783
894.97	50.0334
896.648	50.3565
898.323	49.9002
900	48.9406
901.675	47.2311
903.351	46.4725
905.026	44.905
906.701	45.1311
908.375	43.8468
910.05	43.3938
911.723	42.4705
913.398	41.5517
915.07	41.4829
916.742	40.886
918.415	40.7283
920.087	39.7657
921.76	40.3961
923.43	41.3653
925.103	39.433
926.773	38.5435
928.443	37.9396
930.114	38.7468
931.783	39.7184
933.454	39.6174
935.123	39.925
936.791	40.2471
938.461	39.1469
940.128	37.8502
941.796	37.4144
943.464	35.6896
945.131	34.3088
946.797	34.0363
948.465	33.6014
950.131	33.502
951.797	33.5068
953.462	33.747
955.128	33.4495
956.793	32.5209
958.457	29.3126
960.121	27.0995
961.786	27.7764
963.45	29.1213
965.113	29.5199
966.775	30.6163
968.44	30.5052
970.102	31.6144
971.763	32.049
973.425	33.1934
975.086	33.4883
976.748	34.3759
978.409	33.7727
980.069	34.5838
981.729	34.1103
983.388	33.5522
985.048	32.9696
986.708	33.4364
988.367	33.5536
990.025	34.6919
991.683	34.7112
993.341	35.3073
994.998	34.8676
996.655	34.9044
998.312	35.3228
999.969	35.0485
1001.62	35.2477
1003.28	34.4253
1004.94	34.3547
1006.59	33.1846
1008.25	32.0247
1009.9	31.8198
1011.56	31.5762
1013.21	31.0668
1014.86	29.7855
1016.52	28.1784
1018.17	27.5398
1019.82	25.1243
1021.48	23.075
1023.13	21.4351
1024.78	20.0742
1026.43	19.1345
1028.08	19.1548
1029.73	19.4776
1031.38	17.5664
1033.03	16.8932
1034.68	16.4327
1036.33	14.7687
1037.98	13.2783
1039.63	12.4366
1041.28	13.3002
1042.93	15.1908
1044.57	16.9058
1046.22	17.3724
1047.87	16.7311
1049.52	16.1898
1051.16	16.2151
1052.81	16.5758
1054.45	16.2308
1056.1	16.2366
1057.75	15.7301
1059.39	17.0691
1061.04	16.038
1062.68	16.4485
1064.32	16.1589
1065.97	15.5648
1067.61	15.5257
1069.25	15.5663
1070.9	15.4906
1072.54	16.1204
1074.18	15.786
1075.82	14.7825
1077.47	13.787
1079.11	13.6063
1080.75	13.1969
1082.39	11.9495
1084.03	11.6901
1085.67	11.0051
1087.31	11.079
1088.95	11.2654
1090.59	11.9584
1092.22	11.9382
1093.86	12.6206
1095.5	13.2287
1097.14	13.5723
1098.78	14.0791
1100.41	14.1822
1102.05	13.7439
1103.69	14.116
1105.32	14.4422
1106.96	14.4089
1108.59	14.9917
1110.23	15.404
1111.86	14.6686
1113.5	14.9708
1115.13	15.1151
1116.77	15.4345
1118.4	14.747
1120.03	14.9356
1121.67	14.2539
1123.3	14.1275
1124.93	13.098
1126.56	12.3114
1128.19	11.5098
1129.83	10.5017
1131.46	10.1681
1133.09	10.8059
1134.72	9.90912
1136.35	9.58349
1137.98	9.47499
1139.61	8.93359
1141.24	8.88379
1142.86	7.64824
1144.49	7.90481
1146.12	7.17643
1147.75	7.00563
1149.38	6.12972
1151	5.76493
1152.63	5.03138
1154.26	4.00567
1155.88	2.77642
1157.51	2.03615
1159.14	1.83439
1160.76	1.23436
1162.39	0.468315
1164.01	-0.0364614
1165.63	0.27803
1167.26	0.267978
1168.88	0.975405
1170.51	1.65014
1172.13	2.95626
1173.75	2.58045
1175.38	3.21252
1177	3.14626
1178.62	4.30518
1180.24	4.38752
1181.86	4.09309
1183.48	3.94661
1185.1	4.65475
1186.72	5.51304
1188.34	5.74693
1189.96	6.77102
1191.58	7.95786
1193.2	9.04482
1194.82	10.4765
1196.44	10.8119
1198.06	12.1911
1199.68	12.3798
1201.29	13.0259
1202.91	14.6573
1204.53	16.751
1206.14	18.7548
1207.76	19.894
1209.38	21.5782
1210.99	24.1547
1212.61	26.6448
1214.22	28.9695
1215.84	29.8621
1217.45	32.4298
1219.07	34.9744
1220.68	36.9103
1222.29	38.9984
1223.91	40.8355
1225.52	42.3777
1227.13	44.0145
1228.74	45.9696
1230.36	47.2444
1231.97	49.6086
1233.58	50.0473
1235.19	50.6633
1236.8	51.8541
1238.41	52.9249
1240.02	52.8021
1241.63	52.3773
1243.24	53.442
1244.85	54.1413
1246.46	55.11
1248.07	56.0182
1249.67	56.9526
1251.28	57.6772
1252.89	58.0903
1254.5	58.3178
1256.1	60.0388
1257.71	60.2199
1259.32	61.6485
1260.92	60.7417
1262.53	60.9165
1264.13	61.6161
1265.74	62.3436
1267.34	62.4404
1268.95	63.0324
1270.55	64.2465
1272.15	65.2174
1273.76	65.5302
1275.36	65.4902
1276.97	66.1796
1278.57	67.1095
1280.17	67.9957
1281.77	70.0338
1283.37	71.5663
1284.97	72.0336
1286.58	73.8512
1288.18	74.6935
1289.78	75.9938
1291.38	76.9998
1292.98	77.4542
1294.58	78.0726
1296.18	78.6883
1297.78	79.6717
1299.37	81.0075
1300.97	81.9168
1302.57	82.7451
1304.17	84.2476
1305.77	85.8901
1307.36	87.7009
1308.96	89.1132
1310.55	89.6718
1312.15	89.3609
1313.75	88.7305
1315.34	88.6706
1316.94	89.0635
1318.53	89.0674
1320.13	88.3279
1321.72	88.435
1323.32	89.3849
1324.91	90.1518
1326.5	91.171
1328.1	91.4227
1329.69	91.8758
1331.28	91.5085
1332.87	91.6674
1334.47	91.6858
1336.06	90.714
1337.65	89.429
1339.24	88.812
1340.83	87.306
1342.42	86.1219
1344.01	85.4825
1345.6	84.5745
1347.19	83.4604
1348.78	82.2008
1350.37	81.2551
1351.96	79.8723
1353.54	78.3409
1355.13	77.9836
1356.72	76.7419
1358.31	75.3798
1359.89	73.6328
1361.48	72.7286
1363.07	70.5003
1364.65	69.4168
1366.24	68.0895
1367.82	66.0063
1369.41	64.119
1370.99	63.2534
1372.58	62.0483
1374.16	60.968
1375.75	59.7959
1377.33	58.8232
1378.91	58.6853
1380.5	58.1012
1382.08	57.1157
1383.66	57.4086
1385.25	56.813
1386.83	55.735
1388.41	54.0676
1389.99	52.4691
1391.57	51.114
1393.15	49.8996
1394.73	49.0213
1396.31	48.0866
1397.89	47.3442
1399.47	47.6986
1401.05	47.9245
1402.63	48.4462
1404.21	48.6525
1405.78	48.3445
1407.36	48.4704
1408.94	48.8366
1410.52	49.1258
1412.1	48.8896
1413.67	49.7556
1415.25	50.9764
1416.82	52.691
1418.4	54.7392
1419.98	57.05
1421.55	58.6461
1423.13	61.5647
1424.7	64.7638
1426.28	66.5948
1427.85	69.6901
1429.42	72.5718
1431	75.2939
1432.57	77.8643
1434.14	80.1189
1435.71	81.5574
1437.29	82.7682
1438.86	85.3898
1440.43	87.4912
1442	89.1416
1443.57	90.0807
1445.14	89.8458
1446.71	90.8894
1448.28	91.42
1449.85	91.8887
1451.42	91.4306
1452.99	91.5603
1454.56	90.9804
1456.13	90.0469
1457.7	89.5424
1459.26	87.8951
1460.83	86.0057
1462.4	83.7724
1463.97	80.7849
1465.54	78.2488
1467.1	75.0029
1468.67	72.4943
1470.23	69.3853
1471.8	66.8212
1473.36	63.8805
1474.93	60.8419
1476.49	57.8314
1478.06	55.5098
1479.62	51.7828
1481.19	49.2939
1482.75	46.3571
1484.31	43.9481
1485.88	41.5894
1487.44	38.3489
1489	36.1636
1490.56	33.9228
1492.13	33.3865
1493.69	31.8917
1495.25	30.5126
1496.81	29.7275
1498.37	28.5349
1499.93	27.5553
1501.49	27.5781
1503.05	27.337
1504.61	25.986
1506.17	26.2794
1507.73	26.6785
1509.28	26.7825
1510.84	26.101
1512.4	26.4626
1513.96	27.4215
1515.52	28.6252
1517.07	30.2833
1518.63	30.5746
1520.19	31.7637
1521.74	32.3557
1523.3	32.9162
1524.85	34.304
1526.41	35.162
1527.96	36.0172
1529.52	37.056
1531.07	38.4014
1532.63	39.7802
1534.18	40.6423
1535.73	42.2938
1537.29	43.4016
1538.84	45.0034
1540.39	46.0901
1541.94	47.9023
1543.5	49.1304
1545.05	50.5012
1546.6	52.5798
1548.15	54.7643
1549.7	56.3508
1551.25	57.6611
1552.8	59.1063
1554.35	61.0613
1555.9	62.6491
1557.45	63.9206
1559	66.3792
1560.55	67.6196
1562.1	69.4128
1563.65	70.1616
1565.19	71.5427
1566.74	73.5268
1568.29	74.4514
1569.83	76.2349
1571.38	77.2275
1572.93	78.4
1574.47	80.3104
1576.02	81.1292
1577.56	82.7765
1579.11	83.7876
1580.66	84.9145
1582.2	86.0519
1583.74	87.3903
1585.29	87.8814
1586.83	88.0545
1588.38	88.6534
1589.92	90.1853
1591.46	90.2948
1593.01	89.9443
1594.55	88.9927
1596.09	88.9005
1597.63	88.2896
1599.17	87.2073
1600.71	86.4364
1602.25	85.7749
1603.79	84.6417
1605.34	84.4766
1606.88	83.8701
1608.41	82.3506
1609.95	81.5256
1611.49	80.1608
1613.03	79.7881
1614.57	78.8103
1616.11	77.6566
1617.65	77.0704
1619.18	77.0197
1620.72	76.3695
1622.26	77.2844
1623.79	76.9799
1625.33	77.1305
1626.87	77.3315
1628.4	78.487
1629.94	78.8752
1631.48	79.6969
1633.01	80.1624
1634.55	80.926
1636.08	81.7237
1637.61	82.4638
1639.15	82.8469
1640.68	83.5862
1642.21	85.1325
1643.75	86.2242
1645.28	86.7687
1646.81	88.461
1648.34	88.739
1649.88	89.9835
1651.41	90.6822
1652.94	90.5858
1654.47	91.1943
1656	91.4143
1657.53	91.6555
1659.06	91.2541
1660.59	90.4628
1662.12	90.3031
1663.65	89.8604
1665.18	89.5659
1666.71	88.497
1668.24	86.2328
1669.76	84.6803
1671.29	83.0315
1672.82	81.3708
1674.35	77.9095
1675.87	75.7358
1677.4	73.2821
1678.93	69.7612
1680.45	67.1613
1681.98	65.0479
1683.5	60.936
1685.03	57.6883
1686.55	55.0634
1688.08	51.7103
1689.6	48.3519
1691.13	45.1338
1692.65	42.4624
1694.17	40.2344
1695.7	37.4344
1697.22	34.4887
1698.74	32.5646
1700.27	30.0515
1701.79	28.7181
1703.31	27.0193
1704.83	24.6917
1706.35	22.6555
1707.87	20.6419
1709.39	19.2396
1710.91	17.6842
1712.43	16.3715
1713.95	15.3873
1715.47	14.2113
1716.99	13.6844
1718.51	13.0277
1720.03	12.5531
1721.55	11.6846
1723.07	11.0254
1724.58	9.79335
1726.1	9.69216
1727.62	8.46382
1729.13	8.59262
1730.65	8.91807
1732.17	8.78442
1733.68	8.72098
1735.2	8.59497
1736.72	9.18958
1738.23	9.16386
1739.74	9.16632
1741.26	9.73326
1742.77	9.1657
1744.29	9.07673
1745.8	9.55198
1747.32	8.85178
1748.83	7.9042
1750.34	7.30295
1751.85	8.07654
1753.37	7.99448
1754.88	7.30073
1756.39	7.56511
1757.9	7.16297
1759.41	6.53375
1760.92	6.46058
1762.44	5.8679
1763.95	5.27721
1765.46	5.42565
1766.96	5.93756
1768.47	6.30704
1769.98	6.20831
1771.49	6.09068
1773	6.17914
1774.51	6.34443
1776.02	6.5343
1777.53	7.22444
1779.03	7.28545
1780.54	7.18984
1782.05	7.44499
1783.55	7.14694
1785.06	7.24163
1786.57	6.73098
1788.07	6.54405
1789.58	6.61149
1791.08	6.69406
1792.59	6.2099
1794.09	5.89331
1795.6	5.53783
1797.1	4.36522
1798.61	3.67015
1800.11	3.50095
1801.61	3.59481
1803.12	3.3637
1804.62	4.3324
1806.12	4.19632
1807.62	4.08425
1809.12	4.49929
1810.63	4.34573
1812.13	4.86683
1813.63	4.28779
1815.13	4.85879
1816.63	5.29166
1818.13	5.3441
1819.63	5.16668
1821.13	4.91836
1822.63	4.16651
1824.13	4.35706
1825.63	4.85201
1827.13	5.0204
1828.62	5.19594
1830.12	5.3609
1831.62	5.64417
1833.12	5.60598
1834.61	5.50211
1836.11	5.11584
1837.61	5.38663
1839.1	5.08482
1840.6	5.15466
1842.09	5.2212
1843.59	5.37718
1845.09	4.97745
1846.58	4.97814
1848.08	4.75854
1849.57	4.9277
1851.06	4.98889
1852.56	5.72329
1854.05	5.16418
1855.54	5.10335
1857.04	4.83926
1858.53	5.16991
1860.02	4.74991
1861.51	4.49772
1863.01	4.33899
1864.5	4.28455
1865.99	4.13083
1867.48	3.96729
1868.97	4.29855
1870.46	3.8879
1871.95	3.75163
1873.44	3.69873
1874.93	4.1665
1876.42	5.04613
1877.91	4.89918
1879.4	4.92948
1880.89	4.93431
1882.37	5.42261
1882.46	5.8845
1883.95	6.01902
1885.45	6.27237
1886.94	6.31181
1888.43	6.99642
1889.93	7.09716
1891.42	7.11544
1892.91	7.09252
1894.41	7.19254
1895.9	7.34984
1897.39	8.00921
1898.88	7.95062
1900.37	7.73412
1901.86	7.63603
1903.36	7.66609
1904.85	6.87922
1906.34	7.05656
1907.83	6.68163
1909.32	6.71557
1910.81	6.62988
1912.29	6.54186
1913.78	6.42269
1915.27	7.08311
1916.76	6.49951
1918.25	5.93857
1919.74	6.11648
1921.23	5.97867
1922.71	6.48922
1924.2	6.45515
1925.69	6.74409
1927.17	6.24998
1928.66	6.80605
1930.15	6.35572
1931.63	6.9338
1933.12	6.82596
1934.6	7.24164
1936.09	7.53606
1937.57	8.08503
1939.06	7.88603
1940.54	7.45269
1942.02	7.30049
1943.51	6.60247
1944.99	6.44463
1946.47	5.68542
1947.96	5.75572
1949.44	6.10109
1950.92	5.46892
1952.4	5.71737
1953.88	6.29644
1955.37	6.41453
1956.85	6.18389
1958.33	5.81125
1959.81	5.20073
1961.29	5.21127
1962.77	5.37194
1964.25	5.07345
1965.73	4.79746
1967.21	4.39619
1968.69	4.29444
1970.16	4.53348
1971.64	4.5166
1973.12	4.40655
1974.6	4.29287
1976.08	4.52989
1977.55	5.11217
1979.03	4.78374
1980.51	4.78303
1981.98	4.44981
1983.46	4.30287
1984.94	4.02048
1986.41	4.00477
1987.89	3.18481
1989.36	3.22925
1990.84	2.87945
1992.31	3.34271
1993.79	3.41035
1995.26	3.33232
1996.73	3.08387
1998.21	3.129
1999.68	3.56727
2001.15	3.63248
2002.63	4.07666
2004.1	3.91556
2005.57	4.1482
2007.04	4.03301
2008.51	4.23829
2009.99	3.81068
2011.46	3.65242
2012.93	2.57492
2014.4	2.59486
2015.87	3.208
2017.34	3.89716
2018.81	4.00833
2020.28	4.70899
2021.75	5.47778
2023.21	6.39178
2024.68	6.07137
2026.15	6.01341
2027.62	5.6171
2029.09	5.23939
2030.56	5.43478
2032.02	5.96139
2033.49	5.06933
2034.96	5.86242
2036.42	5.91674
2037.89	6.01297
2039.36	5.74402
2040.82	6.14686
2042.29	6.53834
2043.75	6.84238
2045.22	6.63911
2046.68	6.81234
2048.14	6.88277
2049.61	7.05932
2051.07	6.93436
2052.54	6.67185
2054	6.30491
2055.46	6.85678
2056.93	6.29057
2058.39	6.47024
2059.85	6.55053
2061.31	6.92063
2062.77	6.97954
2064.23	6.7248
2065.7	6.76054
2067.16	6.58132
2068.62	7.03283
2070.08	6.79773
2071.54	7.30349
2073	7.26315
2074.46	7.04902
2075.92	6.96992
2077.38	7.24042
2078.83	7.09305
2080.29	7.23275
2081.75	7.52308
2083.21	7.37622
2084.67	7.70114
2086.12	7.64312
2087.58	8.64254
2089.04	9.63472
2090.49	9.78258
2091.95	9.02383
2093.41	9.32881
2094.86	9.31317
2096.32	9.10472
2097.77	8.98435
2099.23	9.26454
2100.68	9.78523
2102.14	10.7506
2103.59	11.4567
2105.05	11.7632
2106.5	11.671
2107.95	13.0235
2109.41	12.8896
2110.86	13.1808
2112.31	13.1905
2113.76	14.6958
2115.21	15.0083
2116.67	15.5337
2118.12	16.1308
2119.57	17.4781
2121.02	17.887
2122.47	18.7485
2123.92	19.4722
2125.37	20.8585
2126.82	21.8665
2128.27	23.2672
2129.72	23.942
2131.17	25.0799
2132.62	26.6656
2134.07	27.4011
2135.51	27.8221
2136.96	29.0115
2138.41	30.0462
2139.86	30.342
2141.31	30.331
2142.75	30.8776
2144.2	31.9697
2145.65	32.7035
2147.09	33.5851
2148.54	34.4914
2149.98	35.2815
2151.43	35.704
2152.87	36.5955
2154.32	37.9709
2155.76	38.9822
2157.21	39.7583
2158.65	40.4138
2160.1	41.0633
2161.54	41.698
2162.98	41.9775
2164.43	42.714
2165.87	43.5846
2167.31	44.417
2168.75	44.936
2170.2	45.7162
2171.64	45.4109
2173.08	45.7526
2174.52	46.1379
2175.96	46.5696
2177.4	47.0395
2178.84	47.3667
2180.28	47.0078
2181.72	46.1587
2183.16	46.3392
2184.6	46.5334
2186.04	46.0465
2187.48	44.8958
2188.92	44.2171
2190.36	43.9624
2191.79	43.176
2193.23	42.032
2194.67	41.4548
2196.11	40.5848
2197.54	39.4977
2198.98	38.174
2200.42	36.7535
2201.85	35.7903
2203.29	34.853
2204.72	34.1491
2206.16	32.5239
2207.59	31.8683
2209.03	30.9197
2210.46	29.1946
2211.9	27.7348
2213.33	26.6716
2214.77	26.7342
2216.2	25.6426
2217.63	24.4246
2219.07	23.7813
2220.5	23.3189
2221.93	22.0653
2223.36	21.4593
2224.8	20.5696
2226.23	20.1436
2227.66	18.7116
2229.09	17.2216
2230.52	16.0548
2231.95	15.5051
2233.39	15.538
2234.81	14.9665
2236.25	13.9335
2237.67	13.7397
2239.1	13.4618
2240.53	13.2333
2241.96	13.012
2243.39	13.0208
2244.82	13.4162
2246.25	13.3868
2247.68	12.7247
2249.1	12.2977
2250.53	11.1793
2251.96	10.0339
2253.38	9.8687
2254.81	9.76393
2256.24	9.21804
2257.66	8.51014
2259.09	8.28491
2260.51	7.84201
2261.94	7.42842
2263.36	6.94362
2264.79	6.93925
2266.21	6.46894
2267.64	6.58528
2269.06	5.85485
2270.49	6.43496
2271.91	6.35495
2273.33	7.1751
2274.76	7.53907
2276.18	7.00506
2277.6	6.96474
2279.02	6.74596
2280.44	6.37008
2281.87	5.8059
2283.29	5.81523
2284.71	5.75933
2286.13	6.03076
2287.55	5.54057
2288.97	5.08411
2290.39	4.84648
2291.81	4.44354
2293.23	3.46489
2294.65	3.62516
2296.07	4.04055
2297.49	4.40477
2298.91	4.7701
2300.33	5.34768
2301.74	5.6298
2303.16	6.12062
2304.58	5.84716
2306	5.52042
2307.41	6.12024
2308.83	6.6988
2310.25	6.6386
2311.66	6.73738
2313.08	7.03709
2314.5	7.24279
2315.91	6.564
2317.33	6.14537
2318.74	5.74081
2320.16	6.10394
2321.57	6.17927
2322.98	6.37976
2324.4	6.8328
2325.81	7.08866
2327.23	7.05995
2328.64	7.04591
2330.05	6.71377
2331.46	6.14909
2332.88	5.79996
2334.29	5.87593
2335.7	5.81067
2337.11	4.8203
2338.52	4.73717
2339.94	4.16222
2341.35	4.52921
2342.76	3.7925
2344.17	3.98682
2345.58	3.5281
2346.99	2.97808
2348.4	2.87955
2349.81	2.62438
2351.22	2.62711
2352.62	2.2535
2354.03	2.10182
2355.44	1.91252
2356.85	1.42724
2358.26	0.9065
2359.67	0.577779
2361.07	0.560685
2362.48	0.618461
2363.89	1.42244
2365.29	2.82196
2366.7	3.70307
2368.11	4.13866
2369.51	4.22236
2370.92	3.61396
2372.32	3.35848
2373.73	3.19764
2375.13	3.0986
2376.54	3.20154
2377.94	3.52698
2379.35	3.04207
2380.75	2.84664
2382.15	3.24301
2383.56	3.45859
2384.96	3.37383
2386.36	2.81024
2387.76	2.736
2389.17	2.98957
2390.57	3.3451
2391.97	3.25915
2393.37	3.29304
2394.77	4.02766
2396.17	4.09814
2397.58	3.85925
2398.98	3.66948
2400.38	3.75708
2401.78	3.24226
2403.18	3.44959
2404.58	3.49348
2405.97	3.21848
2407.37	2.81162
2408.77	3.50558
2410.17	3.65416
2411.57	3.66466
2412.97	3.45256
2414.37	3.85443
2415.76	4.26625
2417.16	3.63726
2418.56	3.39321
2419.95	3.47877
2421.35	3.40413
2422.75	3.69765
2424.14	3.87471
2425.54	3.95701
2426.93	3.76324
2428.33	3.92374
2429.72	4.20808
2431.12	4.7664
2432.51	5.06882
2433.91	5.51965
2435.3	5.73884
2436.7	5.16795
2438.09	4.6542
2439.48	3.52715
2440.88	3.44098
2442.27	2.9042
2443.66	2.92042
2445.05	2.9703
2446.44	2.94528
2447.84	2.96395
2449.23	2.17275
2450.62	2.08285
2452.01	1.67472
2453.4	1.66364
2454.79	1.7303
2456.18	1.46954
2457.57	1.3274
2458.96	1.72082
2460.35	1.87243
2461.74	1.93057
2463.13	2.81387
2464.52	2.94076
2465.91	2.26503
2467.29	1.93021
2468.68	1.58935
2470.07	1.38853
2471.46	0.778068
2472.85	1.34487
2474.23	0.502852
2475.62	0.778365
2477.01	0.909338
2478.39	0.498814
2479.78	0.3518
2481.16	0.423019
2482.55	0.0590634
2483.93	-0.0913094
2485.32	-0.362872
2486.7	-0.723372
2488.09	0.042972
2489.47	-0.0106965
2490.86	0.467589
2492.24	1.07646
2493.62	1.29617
2495.01	0.910004
2496.39	0.660424
2497.77	0.717644
2499.15	1.49826
2500.54	1.55379
2501.92	1.20345
2503.3	1.05649
2504.68	1.10618
2506.06	1.16093
2507.45	1.03191
2508.83	1.5925
2510.21	2.22421
2511.59	2.51924
2512.97	2.46647
2514.35	2.43631
2515.73	2.22668
2517.11	2.14728
2518.48	1.94717
2519.86	2.06627
2521.24	2.42119
2522.62	3.62208
2524	3.54562
2525.38	3.8703
2526.75	4.2299
2528.13	4.65715
2529.51	4.90258
2530.89	5.49186
2532.26	5.66277
2533.64	5.36578
2535.02	5.3113
2536.39	5.55325
2537.77	6.19758
2539.14	6.08173
2540.52	6.32906
2541.89	6.35993
2543.27	5.78552
2544.64	6.23643
2546.01	5.36525
2547.39	4.7603
2548.76	5.39193
2550.14	5.22531
2551.51	4.69786
2552.88	4.96927
2554.25	4.93625
2555.63	5.08525
2557	5.59463
2558.37	5.16782
2559.74	5.55232
2561.11	5.71666
2562.49	5.61132
2563.86	5.27934
2565.23	5.54429
2566.6	5.34401
2567.97	5.77625
2569.34	4.56261
2570.71	4.06443
2572.08	4.01812
2573.45	4.07728
2574.82	4.24476
2576.18	4.08376
2577.55	4.82723
2578.92	4.18785
2580.29	4.18738
2581.66	3.82197
2583.02	5.07673
2584.39	4.99691
2585.76	4.79705
2587.13	5.08404
2588.49	5.57529
2589.86	6.24079
2591.22	6.20636
2592.59	6.54149
2593.96	6.56197
2595.32	6.69979
2596.69	6.50221
2598.05	6.38875
2599.42	6.09996
2600.78	5.62597
2602.14	5.60964
2603.51	5.36089
2604.87	5.42641
2606.23	5.62328
2607.6	5.35374
2608.96	5.41624
2610.32	5.43447
2611.69	5.64642
2613.05	5.42432
2614.41	5.18074
2615.77	5.64971
2617.13	5.94382
2618.49	5.35957
2619.86	5.19965
2621.22	5.04539
2622.58	4.57477
2623.94	4.8029
2625.3	5.32176
2626.66	4.28068
2628.02	4.40638
2629.37	4.25515
2630.73	3.66913
2632.09	3.321
2633.45	2.96969
2634.81	2.93218
2636.17	2.97707
2637.53	2.28658
2638.88	2.32127
2640.24	2.48356
2641.6	2.83742
2642.96	3.57084
2644.31	3.5376
2645.67	4.01573
2647.02	3.86404
2648.38	3.75032
2649.74	3.71807
2651.09	3.78915
2652.45	3.32438
2653.8	3.05771
2655.16	3.43571
2656.51	3.82315
2657.86	3.48162
2659.22	3.67955
2660.57	4.00393
2661.93	3.65101
2663.28	3.3461
2664.63	3.12415
2665.98	3.34578
2667.34	3.54995
2668.69	3.82285
2670.04	4.21665
2671.39	5.1714
2672.75	6.00347
2674.09	6.6578
2675.45	6.78756
2676.8	7.16256
2678.15	7.90384
2679.5	8.01765
2680.85	7.89496
2682.2	8.03238
2683.55	8.00228
2684.9	7.76333
2686.25	7.49406
2687.6	7.63798
2688.94	7.47317
2690.29	7.47712
2691.64	7.41635
2692.99	7.88703
2694.34	7.50645
2695.68	7.71097
2697.03	7.48581
2698.38	7.41361
2699.73	6.94096
2701.07	7.25878
2702.42	7.16544
2703.76	6.53264
2705.11	6.46886
2706.45	6.87414
2707.8	7.36788
2709.15	7.43491
2710.49	7.46718
2711.83	7.0334
2713.18	7.54322
2714.52	7.42379
2715.87	7.22336
2717.21	7.23395
2718.55	7.47262
2719.9	8.02908
2721.24	8.15097
2722.58	8.48004
2723.93	8.78324
2725.27	8.04329
2726.61	8.47166
2727.95	7.9817
2729.29	8.02672
2730.63	7.77003
2731.98	8.44688
2733.32	8.46967
2734.66	8.38921
2736	8.83809
2737.34	9.30591
2738.68	9.63967
2740.02	9.2633
2741.36	9.02651
2742.7	8.82336
2744.03	8.81957
2745.37	8.70322
2746.71	8.15372
2748.05	7.58139
2749.39	7.4923
2750.72	7.09279
2752.06	6.93068
2753.4	6.82315
2754.74	6.7452
2756.07	6.74701
2757.41	6.7538
2758.75	6.45677
2760.08	6.61783
2761.42	6.12154
2762.76	6.38514
2764.09	6.07245
2765.42	5.7606
2766.76	5.25275
2768.09	5.48579
2769.43	5.04459
2770.76	4.91618
2772.1	4.95166
2773.43	4.90814
2774.76	4.7011
2776.1	4.30479
2777.43	4.29407
2778.76	4.08212
2780.1	4.29685
2781.43	3.918
2782.76	3.41613
2784.09	2.93429
2785.42	3.04682
2786.75	2.49238
2788.09	1.90137
2789.42	1.15771
2790.75	0.904819
2792.08	0.596408
2793.41	0.721479
2794.74	0.278361
2796.07	0.534628
2797.4	0.162834
2798.73	0.0540336
2800.06	-0.180226
2801.39	-0.213893
2802.71	-0.0677921
2804.04	-0.545021
2805.37	-0.66316
2806.7	-0.459678
2808.03	-0.222706
2809.35	-0.0992675
2810.68	-0.255448
2812.01	-0.0341759
2813.33	-0.198427
2814.66	-0.137378
2815.99	-0.16806
2817.31	0.163692
2818.64	0.569229
2819.96	1.3714
2821.29	2.19789
2822.61	3.38182
2823.94	4.52127
2825.26	6.1883
2826.59	7.68644
2827.91	9.41883
2829.23	10.9492
2830.56	11.4382
2831.88	12.9427
2833.21	14.8763
2834.53	17.0681
2835.85	18.7582
2837.17	20.3695
2838.5	22.5587
2839.82	25.5141
2841.14	27.9552
2842.46	30.8103
2843.78	34.4394
2845.1	37.8549
2846.42	41.3198
2847.74	45.0793
2849.06	48.9652
2850.38	52.9964
2851.71	57.9162
2853.03	62.0037
2854.34	67.3481
2855.66	71.9435
2856.98	76.9003
2858.3	81.9108
2859.62	86.3535
2860.94	90.5554
2862.26	94.8273
2863.57	98.941
2864.89	103.219
2866.21	107.217
2867.53	111.186
2868.84	115.036
2870.16	118.056
2871.48	121.118
2872.79	124.377
2874.11	126.769
2875.42	129.037
2876.74	130.854
2878.05	133.061
2879.37	135.252
2880.68	137.489
2882	139.243
2883.31	141.888
2884.63	143.467
2885.94	145.791
2887.26	148.431
2888.57	150.139
2889.88	152.367
2891.19	153.968
2892.51	154.889
2893.82	157.101
2895.13	159.013
2896.44	160.86
2897.76	163.658
2899.07	166.806
2900.38	169.464
2901.69	172.361
2903	176.718
2904.31	181.789
2905.62	186.612
2906.93	192.405
2908.24	198.704
2909.55	205.086
2910.86	210.262
2912.17	216.351
2913.48	223.28
2914.79	229.281
2916.1	235.341
2917.41	241.145
2918.71	246.115
2920.02	250.88
2921.33	254.75
2922.64	258.551
2923.94	262.529
2925.25	265.192
2926.56	267.314
2927.86	269.934
2929.17	271.467
2930.48	271.792
2931.78	271.789
2933.09	271.193
2934.39	270.043
2935.7	268.094
2937	266.747
2938.31	265.088
2939.61	261.787
2940.92	258.443
2942.22	255.277
2943.53	251.596
2944.83	247.623
2946.13	243.133
2947.43	238.092
2948.74	234.213
2950.04	229.456
2951.34	224.582
2952.64	219.392
2953.95	213.538
2955.25	207.879
2956.55	202.076
2957.85	196.755
2959.15	192.302
2960.45	187.474
2961.75	182.66
2963.05	178.236
2964.35	173.291
2965.65	168.565
2966.95	164.989
2968.25	161.377
2969.55	157.711
2970.85	153.826
2972.15	150.598
2973.45	146.688
2974.75	143.359
2976.05	138.672
2977.34	135.597
2978.64	131.888
2979.94	126.746
2981.24	122.081
2982.53	116.9
2983.83	112.402
2985.13	107.634
2986.42	103.135
2987.72	98.6392
2989.01	94.3258
2990.31	88.9092
2991.61	83.7672
2992.9	79.2844
2994.19	73.9765
2995.49	69.0555
2996.78	64.608
2998.08	60.3359
2999.37	56.4042
3000.67	51.868
3001.96	47.9684
3003.25	44.0318
3004.55	40.2451
3005.84	37.0251
3007.13	34.238
3008.42	31.142
3009.72	28.5723
3011.01	26.2399
3012.3	24.2407
3013.59	22.2103
3014.88	19.2915
3016.17	16.7761
3017.46	14.9687
3018.76	12.8067
3020.05	11.3186
3021.34	10.5657
3022.63	9.71546
3023.92	8.65244
3025.21	7.45077
3026.49	6.63082
3027.78	5.89005
3029.07	5.34857
3030.36	5.43423
3031.65	5.84453
3032.94	5.56897
3034.23	6.26079
3035.51	6.75205
3036.8	7.79076
3038.09	8.98563
3039.38	9.87488
3040.66	10.2661
3041.95	11.4782
3043.23	12.1885
3044.52	12.5194
3045.81	13.44
3047.09	14.3125
3048.38	15.5176
3049.66	16.1733
3050.95	17.1525
3052.23	17.7001
3053.52	18.1847
3054.8	18.0773
3056.09	18.4932
3057.37	19.1252
3058.65	19.2864
3059.94	19.2148
3061.22	19.3141
3062.5	18.77
3063.79	18.3314
3065.07	17.9168
3066.35	18.0518
3067.63	17.8142
3068.92	17.2727
3070.2	16.4811
3071.48	16.1612
3072.76	15.6709
3074.04	14.7755
3075.32	14.1082
3076.6	13.1263
3077.88	11.4225
3079.16	10.2569
3080.44	8.99497
3081.72	7.56389
3083	5.9656
3084.28	5.07333
3085.56	3.76613
3086.84	2.99146
3088.12	1.73705
3089.4	1.17735
3090.67	0.837831
3091.95	-0.0844686
3093.23	-0.0487934
3094.51	0.113184
3095.78	0.13362
3097.06	0.0969589
3098.34	0.329197
3099.61	0.48946
3100.89	1.12759
3102.17	1.6973
3103.44	2.11797
3104.72	2.26553
3105.99	2.46971
3107.27	2.54463
3108.54	2.57571
3109.82	3.25474
3111.09	4.33061
3112.37	5.07593
3113.64	5.90638
3114.92	6.53383
3116.19	7.05385
3117.46	7.90229
3118.74	8.55424
3120.01	9.59949
3121.28	10.5301
3122.55	11.1732
3123.83	11.8709
3125.1	12.6646
3126.37	13.2522
3127.64	14.6356
3128.91	15.614
3130.19	16.463
3131.46	17.0235
3132.73	18.1239
3134	19.0361
3135.27	20.1142
3136.54	20.8368
3137.81	21.3373
3139.08	21.9065
3140.35	22.2829
3141.62	22.7046
3142.89	23.4275
3144.16	24.3655
3145.42	25.5469
3146.69	26.6433
3147.96	27.3339
3149.23	28.0055
