#Acq. time (s)=	45
#Accumulations=	2
#Range (cm-¹)=	200...3150
#Windows=	2
#Auto scanning=	Off
#Autofocus=	Off
#Macrospot=	Off
#AutoExposure=	Off
#Spike filter=	Multiple accum.
#Delay time (s)=	0
#Binning=	1
#Readout mode=	Signal
#DeNoise=	Off
#ICS correction=	On
#Dark correction=	Off
#Inst. Process=	Off
#Detector Gain=	Best Dynamic Range
#Detector ADC=	20 kHz       
#Detector temperature (°C)=	-69.85
#Instrument=	LabRAM HR Evol
#Detector=	Synapse
#Objective=	x100
#Grating=	600 gr/mm
#ND Filter=	100%
#Laser (nm)=	532 
#Hole=	100.021
#Range=	Auto
#Laser Pol.=	No
#Raman. Pol.=	No
#Laser Pol. (°)=	-0.0007625
#Raman Pol. (°)=	89.9995
#Collection=	Microscope
#StageXY=	Marzhauser
#StageZ=	Marzhauser
#X (µm)=	1977.6
#Y (µm)=	-87.2
#Z (µm)=	425.85
#Full time(mm:ss)=	3:18
#Project=	
#Sample=	
#Site=	
#Title=	Thy_40_11_05_2x_45s_532 nm_x100_100%_600 gr_mm
#Remark=	
#Date=	05.07.2022 10:13
#Acquired=	05.07.2022 10:13:13
#Base:Fit=	10.08.2022 10:00:48
#Base:Fit=	10.08.2022 10:01:07
#Base:Fit=	10.08.2022 10:01:15
#Base:Fit=	10.08.2022 10:01:35
#Base:Sub=	10.08.2022 10:01:52
#Filter:Polynom=	16.08.2022 10:21:53
#AxisType[0]=Intens
#AxisUnit[0]=Cnt
#AxisType[1]=Spectr
#AxisUnit[1]=1/cm
200.43	-1.38941
202.244	2.07501
204.059	5.29025
205.873	7.47263
207.688	9.37953
209.501	10.5496
211.314	11.0478
213.127	11.3799
214.941	12.2248
216.753	11.8357
218.564	11.1195
220.375	11.4729
222.186	12.5407
223.999	13.1061
225.809	12.949
227.618	12.5877
229.428	12.5014
231.236	12.5516
233.045	12.7411
234.855	12.4803
236.663	12.4458
238.471	12.2861
240.278	11.7614
242.085	11.2483
243.891	11.6705
245.698	11.7308
247.503	11.3782
249.309	10.4301
251.116	9.92932
252.921	8.88221
254.725	7.62323
256.529	6.61571
258.333	6.28854
260.136	6.14052
261.939	5.26513
263.742	5.96093
265.544	6.32599
267.346	5.60601
269.148	4.65744
270.949	3.49413
272.75	2.68183
274.55	2.82236
276.351	1.77768
278.15	2.909
279.95	3.69596
281.749	4.56543
283.548	4.58464
285.346	4.36007
287.144	4.69394
288.942	4.3653
290.739	3.7806
292.536	3.41572
294.333	3.71747
296.129	3.7204
297.925	3.82913
299.721	5.93332
301.514	6.78477
303.309	7.82392
305.104	9.36619
306.898	9.66759
308.692	11.2925
310.486	13.5748
312.279	14.0998
314.072	13.3423
315.862	13.8508
317.654	14.3293
319.446	14.6978
321.238	15.1604
323.029	15.752
324.819	15.6102
326.608	14.9472
328.398	15.5355
330.188	15.9184
331.977	16.1815
333.766	15.721
335.553	15.0292
337.341	14.5619
339.129	13.9236
340.917	13.717
342.704	12.785
344.489	12.3662
346.275	12.6383
348.062	12.8167
349.845	11.3982
351.631	10.3528
353.416	9.04446
355.201	8.69725
356.984	7.25236
358.768	6.30363
360.552	5.17418
362.333	5.0787
364.116	4.8873
365.899	4.75643
367.68	5.78011
369.462	5.16885
371.243	4.42869
373.023	3.223
374.804	2.80082
376.585	3.02596
378.363	2.90687
380.143	3.75829
381.923	4.08324
383.7	5.20715
385.479	5.42887
387.256	6.3297
389.034	7.49076
390.812	7.47991
392.588	7.29757
394.365	7.05163
396.14	6.7644
397.916	6.89037
399.691	6.15991
401.467	5.45534
403.24	5.53952
405.015	6.52378
406.788	5.68911
408.563	6.0121
410.335	6.71087
412.109	6.01754
413.88	5.74932
415.654	5.14605
417.424	5.81741
419.197	6.26358
420.967	5.38212
422.739	4.84813
424.508	5.9208
426.279	6.20156
428.048	6.16517
429.819	5.79888
431.587	4.94808
433.356	4.28947
435.124	3.9636
436.891	2.95942
438.66	2.42627
440.426	2.87421
442.194	3.18555
443.96	3.51802
445.725	4.08259
447.492	5.09348
449.257	5.95443
451.021	7.17954
452.787	7.53028
454.551	8.46041
456.314	8.87166
458.079	8.96932
459.842	9.3568
461.604	10.1435
463.368	11.4888
465.13	11.9786
466.891	13.3824
468.654	14.1842
470.415	15.3233
472.175	16.6972
473.935	16.8415
475.696	17.7982
477.456	19.8118
479.215	20.2127
480.973	20.9727
482.733	22.2721
484.491	23.4651
486.249	23.8436
488.006	24.6934
489.765	26.3435
491.522	26.1529
493.278	26.4233
495.034	26.4156
496.789	27.707
498.544	26.825
500.301	26.761
502.056	27.0822
503.81	27.8537
505.564	28.8029
507.317	28.9758
509.071	27.911
510.825	27.5406
512.578	27.9236
514.33	27.9
516.082	27.7061
517.833	27.0207
519.585	26.8056
521.335	27.0682
523.086	26.3382
524.836	26.3306
526.586	26.5517
528.335	26.6456
530.085	25.9029
531.835	25.4405
533.584	25.3104
535.332	24.1643
537.08	22.9195
538.827	22.2251
540.574	21.2145
542.321	20.0369
544.068	19.4288
545.814	19.3196
547.56	19.4504
549.305	19.2314
551.05	19.3311
552.795	18.2828
554.54	18.2493
556.282	17.2523
558.025	17.2994
559.769	16.7601
561.512	16.8513
563.255	17.661
564.997	18.2662
566.739	17.4519
568.481	17.1153
570.223	16.3937
571.964	15.6405
573.705	14.4907
575.443	14.074
577.183	14.0315
578.923	13.2494
580.663	13.8779
582.402	13.8313
584.141	13.7867
585.879	13.9158
587.615	14.6291
589.353	13.3037
591.09	12.6105
592.828	11.1231
594.564	10.2583
596.299	9.5265
598.035	9.23423
599.771	9.17325
601.506	10.1203
603.242	9.67379
604.974	9.43747
606.709	9.43316
608.443	8.91099
610.177	8.46521
611.908	9.39895
613.642	9.3876
615.374	9.29078
617.105	9.39434
618.837	9.03388
620.569	10.1792
622.3	9.59967
624.03	9.32933
625.761	9.85407
627.491	9.77155
629.219	10.613
630.949	12.2461
632.677	12.6939
634.406	12.5414
636.135	12.9632
637.861	13.2959
639.59	13.7616
641.318	14.104
643.043	15.6588
644.77	17.5746
646.495	19.5098
648.222	20.8898
649.948	22.2825
651.672	23.1156
653.398	24.3994
655.121	25.9479
656.846	26.6593
658.569	27.9902
660.293	29.573
662.015	31.6274
663.738	33.5276
665.46	34.1061
667.183	34.9634
668.903	35.979
670.626	36.9839
672.346	37.7278
674.067	37.213
675.787	36.8817
677.508	37.8148
679.226	38.4404
680.947	39.4967
682.665	41.0096
684.385	42.1902
686.102	43.7168
687.821	45.8132
689.538	45.9903
691.254	46.76
692.972	47.2439
694.688	48.5223
696.406	49.2268
698.121	49.9875
699.835	51.01
701.552	51.7932
703.266	52.3827
704.98	52.7002
706.695	54.0166
708.409	52.9559
710.121	52.8691
711.836	54.6402
713.548	55.8733
715.26	56.6848
716.973	57.1936
718.685	56.5061
720.396	57.2334
722.108	58.5584
723.818	58.7452
725.528	60.0997
727.238	60.1159
728.949	61.724
730.658	61.4454
732.367	60.9694
734.075	61.1889
735.785	61.9717
737.493	62.2212
739.2	62.8746
740.907	63.0689
742.614	63.7015
744.322	65.2611
746.028	66.3195
747.734	66.23
749.439	66.6317
751.144	67.542
752.849	68.8262
754.555	70.1085
756.26	71.0556
757.963	71.5266
759.667	71.9376
761.37	73.1853
763.073	74.6288
764.775	76.0935
766.477	77.8553
768.179	79.1272
769.883	79.8175
771.584	80.7828
773.285	80.8611
774.986	81.3415
776.686	82.4266
778.386	83.5869
780.085	84.7204
781.785	84.5329
783.484	86.18
785.182	87.2601
786.881	87.3434
788.579	88.1094
790.276	88.2704
791.974	88.4932
793.671	89.4132
795.367	89.9754
797.064	91.2312
798.76	91.1918
800.456	91.0581
802.151	90.4114
803.846	90.269
805.541	90.1146
807.234	88.8711
808.928	88.1421
810.622	88.5015
812.315	87.8948
814.008	87.757
815.701	88.4417
817.394	88.553
819.086	88.662
820.778	88.393
822.468	88.9098
824.159	89.5696
825.85	90.4811
827.541	91.572
829.231	90.7527
830.921	90.8463
832.609	90.8062
834.298	90.4543
835.987	90.4069
837.676	89.4831
839.364	88.8661
841.051	88.1212
842.738	86.8454
844.426	86.0892
846.113	85.3524
847.798	84.2803
849.484	83.9729
851.171	82.6987
852.857	81.9574
854.54	80.7644
856.226	78.8278
857.911	77.0475
859.593	75.9866
861.278	75.0806
862.961	72.6035
864.645	70.6635
866.327	69.2859
868.01	68.921
869.692	67.6233
871.373	65.8886
873.055	64.8634
874.735	63.4689
876.416	63.3986
878.097	62.5404
879.776	60.3789
881.457	60.5333
883.135	59.2817
884.815	57.3945
886.495	56.5878
888.172	55.8956
889.851	55.34
891.528	55.7718
893.206	55.8169
894.882	56.0907
896.56	55.502
898.237	54.5788
899.912	53.8625
901.589	52.685
903.263	51.5127
904.94	51.3937
906.614	51.2782
908.289	51.3174
909.962	50.5507
911.635	49.6036
913.31	48.9602
914.982	47.3091
916.656	46.164
918.328	45.9142
920.001	45.3649
921.672	45.2862
923.345	45.4508
925.015	44.5109
926.685	44.1803
928.357	43.8379
930.026	43.3729
931.698	43.0289
933.366	42.3725
935.035	41.6483
936.705	40.0564
938.373	38.6565
940.041	37.7383
941.71	36.6812
943.377	36.2595
945.044	35.3277
946.712	34.8659
948.378	35.0918
950.044	36.6001
951.709	36.9015
953.376	37
955.041	36.7261
956.706	36.5564
958.372	36.0403
960.036	35.1564
961.699	33.7603
963.362	32.5676
965.027	32.8675
966.69	31.826
968.352	32.4951
970.014	32.4893
971.676	33.1551
973.339	33.6924
975	33.2994
976.661	31.7339
978.322	31.9635
979.982	31.8795
981.642	30.8613
983.303	31.2492
984.962	31.4496
986.621	31.3109
988.28	32.3786
989.938	33.2445
991.596	32.98
993.254	32.2019
994.911	31.679
996.57	31.651
998.227	30.9186
999.884	31.8626
1001.54	31.828
1003.2	31.6926
1004.85	31.7043
1006.51	30.1063
1008.16	28.7949
1009.82	28.6684
1011.47	28.3268
1013.12	28.2957
1014.78	27.9272
1016.43	28.3155
1018.08	28.6007
1019.74	27.7408
1021.39	27.7474
1023.04	28.728
1024.69	28.0223
1026.34	28.5343
1028	28.4195
1029.65	29.1514
1031.3	29.1665
1032.95	29.5975
1034.6	28.8979
1036.25	27.9992
1037.9	26.7632
1039.54	25.7556
1041.19	25.4567
1042.84	24.7893
1044.49	23.8998
1046.14	23.4464
1047.78	25.2166
1049.43	25.5519
1051.08	25.4584
1052.72	25.0528
1054.37	25.8051
1056.02	24.097
1057.66	24.3233
1059.31	23.4336
1060.95	23.8571
1062.6	23.4519
1064.24	23.4838
1065.88	23.5645
1067.53	23.7828
1069.17	23.5773
1070.81	22.6525
1072.45	22.4835
1074.1	21.1047
1075.74	20.3487
1077.38	19.8647
1079.02	20.2192
1080.66	21.2404
1082.3	21.17
1083.94	21.5243
1085.58	21.0185
1087.22	20.1358
1088.86	18.9629
1090.5	19.1682
1092.14	19.3779
1093.78	18.6603
1095.42	18.4658
1097.05	18.239
1098.69	19.0643
1100.33	19.3733
1101.96	20.1687
1103.6	20.5324
1105.24	20.9501
1106.87	20.4264
1108.51	19.5944
1110.14	19.2303
1111.78	18.852
1113.41	18.5843
1115.05	18.1465
1116.68	18.4152
1118.31	17.9417
1119.95	18.0312
1121.58	16.9684
1123.21	16.3352
1124.85	15.2374
1126.48	14.2306
1128.11	13.9682
1129.74	14.2418
1131.37	12.7641
1133	11.5286
1134.63	11.3867
1136.26	11.1497
1137.89	10.8126
1139.52	11.0648
1141.15	9.95092
1142.78	9.65852
1144.41	9.62386
1146.04	9.59121
1147.66	8.64894
1149.29	8.91633
1150.92	7.628
1152.55	7.9224
1154.17	7.38291
1155.8	6.34781
1157.43	6.45718
1159.05	6.63174
1160.68	6.8139
1162.3	6.8686
1163.93	5.40757
1165.55	3.81644
1167.17	2.97137
1168.8	2.293
1170.42	2.18507
1172.05	2.45292
1173.67	3.35996
1175.29	3.47633
1176.91	4.60233
1178.54	4.76739
1180.16	5.71082
1181.78	6.05643
1183.4	6.49757
1185.02	5.56822
1186.64	4.7634
1188.26	4.29871
1189.88	3.86072
1191.5	4.63626
1193.12	5.16307
1194.74	6.51625
1196.36	8.28266
1197.97	8.77222
1199.59	8.60957
1201.21	8.75834
1202.83	9.35743
1204.44	10.39
1206.06	10.9442
1207.68	12.4672
1209.29	14.0029
1210.91	16.5398
1212.52	17.7906
1214.14	20.1963
1215.75	22.1432
1217.37	23.8148
1218.98	25.6549
1220.59	27.8431
1222.21	30.1053
1223.82	33.1231
1225.43	35.6435
1227.05	37.4791
1228.66	39.3743
1230.27	41.8073
1231.88	44.0215
1233.49	46.4656
1235.1	47.5984
1236.72	49.547
1238.33	50.9032
1239.94	52.5375
1241.55	53.5004
1243.16	54.756
1244.76	56.1113
1246.37	57.1383
1247.98	59.1929
1249.59	59.9861
1251.2	61.247
1252.8	62.027
1254.41	63.3803
1256.02	63.1045
1257.62	63.8166
1259.23	64.8997
1260.84	66.3577
1262.44	66.3982
1264.05	66.545
1265.66	67.0196
1267.26	67.4787
1268.86	68.2089
1270.47	69.1927
1272.07	70.3909
1273.67	72.0473
1275.28	71.8635
1276.88	72.8102
1278.48	72.7054
1280.09	74.3107
1281.69	75.9922
1283.29	76.6815
1284.89	76.9654
1286.49	78.6595
1288.09	80.6982
1289.69	81.4581
1291.29	82.7164
1292.89	82.6614
1294.49	84.051
1296.09	83.523
1297.69	84.2644
1299.29	85.1281
1300.89	86.3537
1302.49	87.1215
1304.08	87.7428
1305.68	87.6527
1307.28	87.843
1308.88	89.2507
1310.47	90.3153
1312.07	89.4842
1313.66	88.6115
1315.26	88.0681
1316.85	88.2453
1318.45	88.0461
1320.04	87.9377
1321.64	86.6483
1323.23	86.5551
1324.83	86.3655
1326.42	85.2
1328.01	84.9536
1329.61	83.0935
1331.2	83.2406
1332.79	83.052
1334.38	82.4716
1335.97	82.1036
1337.56	80.8333
1339.16	78.9252
1340.75	77.2807
1342.34	75.1947
1343.93	74.2052
1345.52	74.0269
1347.11	72.9502
1348.7	71.8458
1350.29	70.6903
1351.87	69.4972
1353.46	68.1714
1355.05	67.0487
1356.64	66.6116
1358.22	66.1525
1359.81	65.5156
1361.4	63.4393
1362.98	62.4153
1364.57	62.0654
1366.16	61.6688
1367.74	60.2908
1369.33	58.2585
1370.91	57.7989
1372.5	56.1866
1374.08	55.3937
1375.67	53.9388
1377.25	53.5794
1378.83	54.0865
1380.41	54.0504
1382	53.5264
1383.58	52.8345
1385.16	53.2025
1386.74	53.105
1388.33	51.9399
1389.91	49.8668
1391.49	48.6531
1393.07	49.3723
1394.65	49.7255
1396.23	49.4317
1397.81	47.5724
1399.39	47.0118
1400.97	46.1221
1402.55	46.6609
1404.13	47.0175
1405.7	46.0409
1407.28	45.0031
1408.86	44.3034
1410.44	44.9059
1412.01	44.4566
1413.59	45.445
1415.17	45.7
1416.74	45.6485
1418.32	47.9503
1419.89	49.8614
1421.47	51.2161
1423.04	54.1635
1424.62	56.6898
1426.19	57.562
1427.77	59.4874
1429.34	61.9729
1430.91	64.6204
1432.49	68.712
1434.06	71.5122
1435.63	73.8594
1437.2	76.9646
1438.78	77.5431
1440.35	79.6163
1441.92	82.1152
1443.49	82.9325
1445.06	84.2036
1446.63	85.0379
1448.2	86.1907
1449.77	87.1419
1451.34	86.3503
1452.91	85.7006
1454.48	84.672
1456.05	83.8376
1457.62	84.0487
1459.18	82.5798
1460.75	80.5387
1462.32	79.3126
1463.89	77.7588
1465.45	74.2977
1467.02	71.4345
1468.59	68.8687
1470.15	65.8381
1471.72	62.2925
1473.28	58.9908
1474.85	54.7462
1476.41	51.3398
1477.98	48.6648
1479.54	44.2639
1481.1	41.3499
1482.67	37.7274
1484.23	33.7082
1485.79	30.8113
1487.36	28.4852
1488.92	26.3174
1490.48	23.632
1492.04	21.5265
1493.61	19.0931
1495.17	18.572
1496.73	17.1454
1498.29	15.5505
1499.85	14.8695
1501.41	14.6684
1502.97	13.5544
1504.53	12.686
1506.09	13.5751
1507.65	13.5082
1509.2	14.5115
1510.76	15.4586
1512.32	15.1678
1513.88	15.7756
1515.43	15.7707
1516.99	16.249
1518.55	17.6744
1520.1	18.3871
1521.66	19.0759
1523.22	20.5895
1524.77	22.2272
1526.33	23.3147
1527.88	25.2381
1529.44	26.4197
1530.99	28.0971
1532.54	29.2652
1534.1	31.352
1535.65	33.8998
1537.21	35.8661
1538.76	38.2508
1540.31	40.8346
1541.86	41.9085
1543.42	43.2996
1544.97	46.7683
1546.52	49.0082
1548.07	51.6891
1549.62	55.4836
1551.17	58.7971
1552.72	61.4709
1554.27	64.5643
1555.82	66.6242
1557.37	69.5888
1558.92	72.5665
1560.47	75.758
1562.02	77.7269
1563.56	80.2346
1565.11	82.9951
1566.66	85.431
1568.21	87.6016
1569.75	90.6443
1571.3	93.7528
1572.85	95.3484
1574.39	97.4152
1575.94	100.147
1577.49	101.731
1579.03	103.128
1580.57	103.862
1582.12	105.033
1583.66	106.55
1585.21	107.511
1586.75	108.712
1588.3	107.913
1589.84	107.617
1591.38	107.501
1592.92	106.506
1594.47	106.277
1596.01	105.422
1597.55	105.006
1599.09	102.913
1600.63	102.196
1602.17	100.957
1603.71	99.0477
1605.25	97.757
1606.79	95.8508
1608.33	95.0371
1609.87	93.2049
1611.41	93.1126
1612.95	92.7314
1614.49	91.9715
1616.03	90.2587
1617.57	88.836
1619.1	87.3523
1620.64	87.4749
1622.18	87.7187
1623.72	87.2092
1625.25	87.1496
1626.79	87.3286
1628.32	87.6421
1629.86	88.5986
1631.39	88.9977
1632.93	89.8927
1634.46	91.1841
1636	91.9105
1637.53	94.2046
1639.07	94.967
1640.6	96.7339
1642.13	97.9268
1643.67	98.1949
1645.2	99.6783
1646.73	100.501
1648.26	102.486
1649.8	103.987
1651.33	105.576
1652.86	106.042
1654.39	104.837
1655.92	105.094
1657.45	104.079
1658.98	104.333
1660.51	103.663
1662.04	102.332
1663.57	100.936
1665.1	99.1403
1666.63	97.2126
1668.16	94.9254
1669.68	92.7682
1671.21	90.6654
1672.74	88.3416
1674.27	85.7413
1675.79	83.2642
1677.32	81.3918
1678.85	78.4998
1680.37	75.8976
1681.9	73.4491
1683.42	70.608
1684.95	67.6494
1686.47	63.8574
1688	60.6113
1689.52	56.4446
1691.05	52.4676
1692.57	48.6602
1694.09	45.4787
1695.62	42.0853
1697.14	38.6756
1698.66	35.6563
1700.18	32.9796
1701.71	30.4526
1703.23	27.9504
1704.75	26.1048
1706.27	24.3441
1707.79	23.0381
1709.31	22.0636
1710.83	19.7546
1712.35	19.4542
1713.87	18.1635
1715.39	16.8536
1716.91	15.8626
1718.43	14.8549
1719.95	13.9974
1721.47	13.8003
1722.99	12.9528
1724.5	13.3049
1726.02	12.2399
1727.54	10.3986
1729.06	9.65077
1730.57	8.75831
1732.09	9.1223
1733.61	8.01735
1735.12	8.15908
1736.64	6.86707
1738.15	6.53568
1739.67	5.68832
1741.18	5.40101
1742.7	5.55437
1744.21	5.80289
1745.72	6.5009
1747.24	7.08223
1748.75	7.28451
1750.26	6.92381
1751.77	7.0135
1753.29	6.81308
1754.8	6.70769
1756.31	6.62509
1757.82	6.43371
1759.33	5.7455
1760.84	5.3828
1762.36	4.50949
1763.87	3.83494
1765.38	3.11995
1766.89	2.92126
1768.4	2.52255
1769.91	1.97698
1771.41	1.13172
1772.92	0.432678
1774.43	1.1011
1775.94	1.23376
1777.45	1.72302
1778.95	2.21697
1780.46	2.21479
1781.97	2.29824
1783.48	2.36352
1784.98	2.3788
1786.49	2.04309
1787.99	2.70521
1789.5	1.93927
1791.01	1.86095
1792.51	1.18027
1794.01	0.684564
1795.52	0.999822
1797.02	1.28776
1798.53	1.14431
1800.03	1.02387
1801.53	0.409656
1803.04	-0.176936
1804.54	-0.240665
1806.04	-0.114418
1807.54	0.169873
1809.05	0.165156
1810.55	-0.188552
1812.05	-0.287914
1813.55	-0.445681
1815.05	-0.540883
1816.55	0.217946
1818.05	0.537714
1819.55	-0.185917
1821.05	-0.0169136
1822.55	0.357739
1824.05	-0.119073
1825.55	-0.16374
1827.05	0.20098
1828.55	0.14048
1830.04	-0.117177
1831.54	-0.281613
1833.04	0.0391833
1834.54	0.0730311
1836.03	0.282731
1837.53	0.273765
1839.03	-0.282348
1840.52	-1.07597
1842.02	-0.763864
1843.51	-0.42951
1845.01	-0.786588
1846.5	-1.07114
1848	-0.581042
1849.49	-0.113915
1850.99	0.537538
1852.48	0.531419
1853.97	0.589932
1855.47	0.0462065
1856.96	0.113059
1858.45	0.929404
1859.94	1.05955
1861.44	1.06085
1862.93	0.658641
1864.42	0.630554
1865.91	0.512303
1867.4	1.04175
1868.89	1.40771
1870.38	2.22227
1871.87	2.01749
1873.36	1.99134
1874.85	2.24357
1876.34	2.43162
1877.83	2.67549
1879.32	3.45719
1880.81	4.05854
1882.3	4.21719
1882.57	4.2321
1884.07	4.31131
1885.56	5.20612
1887.06	5.71335
1888.55	6.21208
1890.04	6.32761
1891.54	6.21496
1893.03	6.61665
1894.52	7.27992
1896.02	7.63046
1897.51	7.8737
1899	8.38316
1900.49	9.16852
1901.98	9.65817
1903.47	10.5341
1904.96	11.539
1906.45	12.2105
1907.94	11.9288
1909.43	11.8318
1910.92	11.5401
1912.41	11.4661
1913.9	11.6405
1915.39	12.548
1916.88	12.38
1918.37	12.2684
1919.85	11.6384
1921.34	11.5086
1922.83	10.8106
1924.32	10.0319
1925.8	9.41252
1927.29	8.81609
1928.78	8.2015
1930.26	8.06167
1931.75	8.22375
1933.23	7.96673
1934.72	7.58655
1936.2	7.04556
1937.69	6.56028
1939.17	6.16468
1940.66	5.66056
1942.14	5.6338
1943.63	5.55331
1945.11	5.2241
1946.59	5.32108
1948.07	5.20887
1949.56	5.55809
1951.04	5.78868
1952.52	5.74021
1954	5.75273
1955.48	5.9355
1956.96	6.28443
1958.45	6.10747
1959.93	6.09786
1961.41	5.95337
1962.89	5.22047
1964.37	5.68074
1965.85	5.37115
1967.32	6.0619
1968.8	6.43113
1970.28	6.92633
1971.76	7.74259
1973.24	7.96852
1974.72	8.69022
1976.19	8.76953
1977.67	8.92819
1979.15	9.09549
1980.63	8.82347
1982.1	9.14168
1983.58	9.33406
1985.05	9.9057
1986.53	9.72664
1988	9.68415
1989.48	10.089
1990.95	9.61549
1992.43	9.47999
1993.9	9.0751
1995.38	9.20921
1996.85	9.11027
1998.32	9.2598
1999.8	9.55256
2001.27	9.64833
2002.74	9.87688
2004.22	10.3458
2005.69	10.5888
2007.16	10.5378
2008.63	9.82172
2010.1	9.96282
2011.57	9.77406
2013.04	10.0441
2014.51	9.8944
2015.98	10.2722
2017.45	10.6249
2018.92	11.663
2020.39	12.0464
2021.86	12.5987
2023.33	13.6876
2024.8	13.6345
2026.27	13.1034
2027.74	13.647
2029.2	13.9858
2030.67	13.9748
2032.14	13.4883
2033.61	13.7456
2035.07	14.2079
2036.54	14.107
2038.01	13.7623
2039.47	13.5285
2040.94	13.888
2042.4	14.2872
2043.87	14.6212
2045.33	15.0257
2046.8	15.1846
2048.26	15.5415
2049.72	15.3901
2051.19	15.8215
2052.65	16.5772
2054.12	17.3004
2055.58	17.7239
2057.04	17.6178
2058.5	18.0793
2059.97	17.9991
2061.43	18.6017
2062.89	18.8999
2064.35	18.7351
2065.81	19.1622
2067.27	19.2437
2068.73	20.1154
2070.19	21.0861
2071.65	21.2772
2073.11	21.7572
2074.57	23.0149
2076.03	23.5254
2077.49	24.4161
2078.95	25.0766
2080.41	25.0312
2081.87	25.7869
2083.32	27.1399
2084.78	27.2564
2086.24	28.021
2087.7	28.6888
2089.15	29.8345
2090.61	30.4468
2092.07	31.5426
2093.52	31.4156
2094.98	32.3822
2096.43	33.3699
2097.89	33.2122
2099.34	33.5175
2100.8	35.5421
2102.25	36.009
2103.71	36.5604
2105.16	37.6588
2106.61	38.5473
2108.07	39.3053
2109.52	39.5198
2110.97	40.3557
2112.43	42.3496
2113.88	44.0933
2115.33	45.8247
2116.78	48.0204
2118.23	49.8373
2119.68	50.7774
2121.13	52.4487
2122.59	54.438
2124.04	57.0038
2125.49	59.2758
2126.94	61.3039
2128.39	63.0225
2129.83	66.1904
2131.28	68.73
2132.73	70.5493
2134.18	73.3275
2135.63	74.9744
2137.08	77.749
2138.53	80.3942
2139.97	83.1571
2141.42	85.8074
2142.87	88.0451
2144.31	90.3757
2145.76	94.1153
2147.21	97.0564
2148.65	98.6447
2150.1	100.989
2151.54	103.386
2152.99	105.286
2154.43	107.755
2155.88	109.247
2157.32	110.052
2158.77	111.362
2160.21	112.929
2161.65	113.891
2163.1	115.261
2164.54	116.463
2165.98	117.194
2167.43	118.068
2168.87	118.935
2170.31	119.147
2171.75	119.888
2173.19	120.577
2174.64	120.74
2176.07	120.396
2177.52	119.967
2178.96	118.917
2180.4	119.302
2181.84	118.803
2183.28	118.731
2184.72	117.708
2186.15	116.674
2187.59	115.15
2189.03	114.743
2190.47	112.787
2191.91	110.751
2193.35	109.068
2194.78	107.491
2196.22	106.506
2197.66	104.871
2199.09	102.326
2200.53	100.273
2201.97	98.3672
2203.4	95.2088
2204.84	92.1107
2206.27	89.5155
2207.71	86.3663
2209.14	84.5502
2210.58	82.0171
2212.01	79.8805
2213.45	78.0692
2214.88	76.0617
2216.31	73.4519
2217.75	71.3127
2219.18	67.7104
2220.61	65.8363
2222.05	63.9346
2223.48	61.9854
2224.91	59.6668
2226.34	57.0067
2227.78	54.547
2229.21	52.5165
2230.64	50.6136
2232.07	48.6541
2233.5	46.6677
2234.93	45.1279
2236.36	42.9764
2237.79	41.4623
2239.22	39.5624
2240.65	38.7397
2242.08	37.6065
2243.5	37.1692
2244.93	36.6753
2246.36	35.7939
2247.79	34.803
2249.22	34.2054
2250.64	34.0384
2252.07	34.1985
2253.5	32.9897
2254.92	32.5349
2256.35	32.1525
2257.78	32.0235
2259.2	31.8507
2260.63	31.9582
2262.05	30.8627
2263.48	30.9441
2264.9	30.8521
2266.33	31.3583
2267.75	32.0078
2269.18	30.5741
2270.6	30.3097
2272.02	29.9122
2273.45	29.5446
2274.87	28.9438
2276.29	27.7916
2277.71	27.2779
2279.14	26.7928
2280.56	26.3307
2281.98	26.209
2283.4	25.5978
2284.82	25.3532
2286.24	23.9913
2287.66	23.1994
2289.08	23.0951
2290.5	22.0774
2291.92	21.2752
2293.34	19.4212
2294.76	18.8467
2296.18	17.3349
2297.6	16.9466
2299.02	17.0624
2300.44	16.679
2301.86	16.3942
2303.27	15.6308
2304.69	15.9841
2306.11	15.3999
2307.53	14.92
2308.94	14.3028
2310.36	14.4409
2311.78	14.4087
2313.19	14.1959
2314.61	14.6229
2316.02	14.4184
2317.44	13.6794
2318.85	13.4355
2320.27	13.1411
2321.68	12.8887
2323.1	12.9746
2324.51	12.527
2325.92	12.5
2327.34	12.2757
2328.75	12.0504
2330.16	11.8954
2331.58	11.5736
2332.99	11.5195
2334.4	12.0013
2335.81	11.3954
2337.23	11.2099
2338.64	10.6719
2340.05	9.50655
2341.46	9.43323
2342.87	8.54324
2344.28	8.06591
2345.69	6.99395
2347.1	5.71098
2348.51	4.78343
2349.92	4.8036
2351.33	4.74141
2352.74	4.24981
2354.15	3.4645
2355.55	2.97129
2356.96	2.04879
2358.37	1.57447
2359.78	1.08545
2361.19	0.0509264
2362.59	-0.451863
2364	-0.143414
2365.41	0.34617
2366.81	0.437391
2368.22	1.18862
2369.62	0.742319
2371.03	-0.0509957
2372.44	-0.162371
2373.84	-0.591521
2375.24	-0.277628
2376.65	-0.396506
2378.05	-0.293413
2379.46	-0.234097
2380.86	0.608323
2382.26	0.501511
2383.67	1.08469
2385.07	1.86788
2386.47	1.33224
2387.88	1.29033
2389.28	2.2316
2390.68	2.88741
2392.08	3.40702
2393.48	4.01502
2394.89	3.92927
2396.29	4.50719
2397.69	4.78456
2399.09	4.55034
2400.49	4.2632
2401.89	4.28494
2403.29	5.00614
2404.69	5.2316
2406.09	5.54929
2407.48	6.19289
2408.88	6.23331
2410.28	6.22779
2411.68	6.98744
2413.08	7.75659
2414.48	7.73859
2415.87	7.36811
2417.27	7.34835
2418.67	7.7593
2420.06	8.77003
2421.46	8.27398
2422.86	8.63396
2424.25	8.51143
2425.65	8.53336
2427.04	8.61611
2428.44	8.80566
2429.83	8.347
2431.23	7.68314
2432.62	7.65823
2434.02	7.56881
2435.41	7.6001
2436.81	7.99286
2438.2	8.2245
2439.59	8.04151
2440.99	7.65601
2442.38	7.79693
2443.77	7.4751
2445.16	8.20708
2446.56	7.93794
2447.95	8.03081
2449.34	8.34867
2450.73	7.97842
2452.12	7.65525
2453.51	7.35255
2454.9	7.03363
2456.29	6.84576
2457.68	7.51995
2459.07	7.81987
2460.46	6.70951
2461.85	6.19985
2463.24	5.61865
2464.63	6.07544
2466.02	6.26281
2467.4	4.85523
2468.79	4.8083
2470.18	4.55301
2471.57	4.37115
2472.95	5.49238
2474.34	5.92546
2475.73	6.22142
2477.12	5.81611
2478.5	5.47062
2479.89	5.46548
2481.27	6.19194
2482.66	5.66316
2484.04	5.58807
2485.43	5.19886
2486.81	5.40366
2488.2	5.86094
2489.58	6.12045
2490.97	5.45064
2492.35	5.1885
2493.73	4.68787
2495.12	4.96314
2496.5	4.70343
2497.88	3.70199
2499.27	3.06107
2500.65	2.60689
2502.03	2.79892
2503.41	2.79159
2504.79	2.73883
2506.17	2.53092
2507.56	2.27392
2508.94	1.40509
2510.32	0.885145
2511.7	1.331
2513.08	1.35459
2514.46	1.7824
2515.84	0.59082
2517.22	0.554349
2518.59	0.939344
2519.97	0.934728
2521.35	1.53944
2522.73	1.56148
2524.11	1.56183
2525.49	1.78409
2526.86	1.87645
2528.24	1.2355
2529.62	1.23169
2530.99	2.29992
2532.37	2.56781
2533.75	2.41174
2535.12	1.40469
2536.5	1.29645
2537.88	2.50897
2539.25	2.43214
2540.63	3.23454
2542	4.19592
2543.38	3.88562
2544.75	3.66585
2546.12	3.57371
2547.5	4.03192
2548.87	5.02581
2550.24	5.79504
2551.62	5.93285
2552.99	6.09463
2554.36	5.81654
2555.74	5.95697
2557.11	5.98905
2558.48	5.78794
2559.85	5.48521
2561.22	5.33224
2562.59	5.73346
2563.96	5.69774
2565.34	4.98035
2566.71	5.11964
2568.08	5.88025
2569.45	5.47229
2570.82	5.70763
2572.18	5.91209
2573.55	5.81937
2574.92	5.40032
2576.29	5.07057
2577.66	4.40297
2579.03	4.198
2580.4	4.02972
2581.77	3.69241
2583.13	3.37202
2584.5	3.05611
2585.87	3.52509
2587.23	4.20295
2588.6	4.1434
2589.97	3.55433
2591.33	3.00326
2592.7	2.3734
2594.06	2.62107
2595.43	2.55274
2596.79	2.0104
2598.16	1.80663
2599.52	1.52201
2600.89	0.863999
2602.25	0.574731
2603.62	0.661302
2604.98	1.65607
2606.34	1.23317
2607.71	0.988455
2609.07	1.08566
2610.43	0.717807
2611.79	0.808223
2613.16	1.51902
2614.52	1.85475
2615.88	2.13689
2617.24	1.83217
2618.6	1.5948
2619.96	1.33995
2621.32	1.01805
2622.68	1.04779
2624.04	1.33903
2625.4	1.67282
2626.76	1.64917
2628.12	1.77709
2629.48	2.12608
2630.84	2.52464
2632.2	2.82253
2633.56	2.80637
2634.92	3.51429
2636.28	2.90442
2637.63	3.01205
2638.99	3.44177
2640.35	3.93424
2641.71	3.23571
2643.06	3.23464
2644.42	3.66215
2645.77	4.67085
2647.13	5.18506
2648.49	5.44785
2649.84	5.7671
2651.2	6.05292
2652.55	6.21652
2653.91	6.45975
2655.26	7.64203
2656.62	7.93606
2657.97	7.78683
2659.33	8.05446
2660.68	7.97937
2662.03	8.70636
2663.39	8.97919
2664.74	9.26257
2666.09	9.93486
2667.44	10.5392
2668.8	10.7445
2670.15	10.5011
2671.5	10.5143
2672.85	10.4317
2674.2	10.3714
2675.55	10.427
2676.91	10.3259
2678.26	11.2456
2679.61	11.7795
2680.96	11.7443
2682.31	11.1222
2683.66	10.7622
2685	10.8222
2686.35	11.6771
2687.7	11.4532
2689.05	11.1986
2690.4	11.4313
2691.75	11.9514
2693.1	12.3527
2694.44	12.2702
2695.79	12.6113
2697.14	12.8049
2698.49	12.7554
2699.83	12.9477
2701.18	12.673
2702.52	13.2953
2703.87	13.4426
2705.22	14.2101
2706.56	14.4279
2707.91	15.1331
2709.25	15.3789
2710.6	16.1075
2711.94	16.5411
2713.29	17.2075
2714.63	16.9193
2715.97	17.5876
2717.32	17.5508
2718.66	17.7437
2720.01	17.8139
2721.35	17.9391
2722.69	17.739
2724.03	17.0466
2725.38	16.656
2726.72	16.7853
2728.06	17.067
2729.4	17.1624
2730.74	16.6997
2732.08	15.9633
2733.42	15.6337
2734.76	14.896
2736.1	14.456
2737.44	14.1552
2738.78	14.5839
2740.12	14.3643
2741.46	14.2219
2742.8	14.3097
2744.14	14.7993
2745.48	14.4406
2746.82	12.9013
2748.16	12.8032
2749.49	12.1748
2750.83	11.5092
2752.17	10.8003
2753.51	10.1286
2754.84	8.37551
2756.18	7.57712
2757.52	7.56197
2758.85	6.96629
2760.19	6.68549
2761.53	6.38243
2762.86	6.29154
2764.2	5.89768
2765.53	6.01891
2766.87	5.91355
2768.2	6.35908
2769.54	7.05878
2770.87	7.08493
2772.2	7.32392
2773.54	7.61364
2774.87	7.71044
2776.2	7.65264
2777.54	8.06862
2778.87	7.95674
2780.2	8.30528
2781.53	8.06716
2782.87	8.44705
2784.2	8.06278
2785.53	8.09432
2786.86	8.00868
2788.19	7.98368
2789.52	8.84112
2790.85	9.2418
2792.18	10.1652
2793.51	10.7931
2794.84	11.3549
2796.17	11.8391
2797.5	11.8791
2798.83	12.4456
2800.16	13.4674
2801.49	13.9533
2802.82	14.9657
2804.15	15.5855
2805.47	15.8031
2806.8	15.7672
2808.13	16.5024
2809.46	16.9906
2810.78	16.7261
2812.11	15.8861
2813.44	15.8909
2814.76	16.1264
2816.09	15.5063
2817.42	15.5579
2818.74	15.6161
2820.07	16.4943
2821.39	16.7378
2822.72	17.9144
2824.04	19.1729
2825.37	20.4576
2826.69	22.0701
2828.02	23.9682
2829.34	25.4855
2830.66	27.714
2831.99	30.044
2833.31	31.7701
2834.63	34.3034
2835.96	36.2044
2837.28	38.8723
2838.6	41.6065
2839.92	44.3061
2841.24	47.355
2842.57	50.6282
2843.89	54.5477
2845.21	57.7343
2846.53	61.9675
2847.85	65.8147
2849.17	70.3587
2850.49	74.7061
2851.81	79.2634
2853.13	84.5858
2854.45	89.2959
2855.77	94.4337
2857.09	98.7741
2858.41	103.346
2859.72	108.091
2861.04	112.959
2862.36	117.484
2863.68	121.415
2865	126.037
2866.31	129.876
2867.63	134.027
2868.95	137.498
2870.26	140.343
2871.58	143.08
2872.9	146.36
2874.21	149.718
2875.53	151.925
2876.84	153.541
2878.16	155.537
2879.47	158.56
2880.79	160.739
2882.1	162.625
2883.42	164.315
2884.73	166.071
2886.05	167.604
2887.36	168.945
2888.67	171.115
2889.99	173.865
2891.3	176.615
2892.61	179.442
2893.92	182.808
2895.24	185.455
2896.55	188.962
2897.86	192.316
2899.17	195.737
2900.48	200.349
2901.79	204.826
2903.11	210.164
2904.42	214.927
2905.73	219.965
2907.04	225.564
2908.35	231.618
2909.66	238.658
2910.97	244.711
2912.27	251.628
2913.58	258.412
2914.89	264.768
2916.2	270.999
2917.51	277.905
2918.82	283.753
2920.13	289.186
2921.43	295.107
2922.74	299.312
2924.05	303.422
2925.35	307.817
2926.66	310.996
2927.97	313.503
2929.27	315.514
2930.58	316.788
2931.89	317.597
2933.19	318.323
2934.5	318.334
2935.8	318.404
2937.11	317.174
2938.41	315.893
2939.72	313.163
2941.02	309.673
2942.32	305.848
2943.63	302.58
2944.93	298.389
2946.24	293.4
2947.54	288.361
2948.84	283.04
2950.14	277.654
2951.45	272.526
2952.75	267.817
2954.05	262.765
2955.35	257.751
2956.65	252.5
2957.95	247.472
2959.26	241.851
2960.56	236.128
2961.86	231.3
2963.16	226.029
2964.46	220.665
2965.76	215.457
2967.06	209.977
2968.36	204.827
2969.66	199.089
2970.96	194.288
2972.25	189.77
2973.55	184.871
2974.85	180.165
2976.15	174.685
2977.45	169.453
2978.74	164.157
2980.04	158.692
2981.34	153.247
2982.64	148.263
2983.93	142.177
2985.23	137.142
2986.52	131.1
2987.82	125.035
2989.12	119.889
2990.41	114.909
2991.71	109.732
2993	104.47
2994.3	98.8978
2995.59	93.9216
2996.89	89.7367
2998.18	85.3839
2999.48	81.0445
3000.77	76.0155
3002.06	71.3515
3003.36	67.1732
3004.65	62.7016
3005.94	58.4327
3007.23	54.7437
3008.53	51.3244
3009.82	48.2924
3011.11	45.6899
3012.4	42.1717
3013.69	39.6991
3014.99	37.5122
3016.28	35.8727
3017.57	34.0598
3018.86	32.4618
3020.15	30.3083
3021.44	29.2266
3022.73	28.2034
3024.02	27.0264
3025.31	25.8834
3026.6	25.0969
3027.89	23.5691
3029.18	22.8991
3030.46	22.0524
3031.75	21.6988
3033.04	21.5206
3034.33	22.1773
3035.62	22.7238
3036.9	22.8414
3038.19	23.1052
3039.48	23.5118
3040.76	23.7844
3042.05	24.024
3043.34	24.7117
3044.62	24.8311
3045.91	25.2671
3047.19	26.4778
3048.48	26.7704
3049.77	27.4106
3051.05	27.424
3052.34	28.3823
3053.62	28.8693
3054.9	29.2388
3056.19	29.3147
3057.47	29.1422
3058.76	29.0869
3060.04	29.6656
3061.32	29.8213
3062.61	29.2649
3063.89	28.6797
3065.17	27.7583
3066.45	27.1591
3067.74	25.8252
3069.02	25.3592
3070.3	24.1668
3071.58	23.348
3072.86	22.223
3074.14	21.0745
3075.42	19.42
3076.7	17.5092
3077.99	16.7363
3079.26	15.2443
3080.54	14.0382
3081.82	12.9663
3083.1	11.1724
3084.38	9.67158
3085.66	9.43852
3086.94	8.40792
3088.22	7.33435
3089.5	5.61248
3090.78	4.65903
3092.05	3.83542
3093.33	3.8417
3094.61	2.8002
3095.89	2.26297
3097.16	2.05007
3098.44	2.38545
3099.72	1.46229
3100.99	1.50977
3102.27	1.13664
3103.54	0.605048
3104.82	0.775959
3106.1	0.77114
3107.37	1.02325
3108.65	0.971464
3109.92	1.21203
3111.2	1.37014
3112.47	0.883503
3113.74	1.12596
3115.02	1.35037
3116.29	2.19706
3117.56	2.45676
3118.84	2.70366
3120.11	2.94153
3121.38	3.17233
3122.66	3.74456
3123.93	4.044
3125.2	4.32725
3126.47	4.22644
3127.74	4.44489
3129.01	4.36102
3130.29	4.89354
3131.56	5.18064
3132.83	5.50805
3134.1	4.68047
3135.37	4.72407
3136.64	4.95328
3137.91	4.84009
3139.18	4.80467
3140.45	5.06223
3141.72	5.38301
3142.99	5.32931
3144.26	5.27065
3145.52	5.02325
3146.79	5.03703
3148.06	3.87479
3149.33	2.13406
