#Acq. time (s)=	45
#Accumulations=	2
#Range (cm-¹)=	200...3150
#Windows=	2
#Auto scanning=	Off
#Autofocus=	Off
#Macrospot=	Off
#AutoExposure=	Off
#Spike filter=	Multiple accum.
#Delay time (s)=	0
#Binning=	1
#Readout mode=	Signal
#DeNoise=	Off
#ICS correction=	On
#Dark correction=	Off
#Inst. Process=	Off
#Detector Gain=	Best Dynamic Range
#Detector ADC=	20 kHz       
#Detector temperature (°C)=	-69.85
#Instrument=	LabRAM HR Evol
#Detector=	Synapse
#Objective=	x100
#Grating=	600 gr/mm
#ND Filter=	100%
#Laser (nm)=	532 
#Hole=	100.021
#Range=	Auto
#Laser Pol.=	No
#Raman. Pol.=	No
#Laser Pol. (°)=	-0.0007625
#Raman Pol. (°)=	89.9995
#Collection=	Microscope
#StageXY=	Marzhauser
#StageZ=	Marzhauser
#X (µm)=	9026
#Y (µm)=	-3091.3
#Z (µm)=	-55.25
#Full time(mm:ss)=	3:18
#Project=	
#Sample=	
#Site=	
#Title=	Thy_00_07_13_2x_45s_532 nm_x100_100%_600 gr_mm
#Remark=	
#Date=	28.06.2022 11:01
#Acquired=	28.06.2022 11:01:05
#Base:Fit=	10.08.2022 10:06:44
#Base:Fit=	10.08.2022 10:07:16
#Base:Fit=	10.08.2022 10:07:25
#Base:Fit=	10.08.2022 10:07:44
#Base:Fit=	10.08.2022 10:07:56
#Base:Sub=	10.08.2022 10:08:40
#Filter:Polynom=	16.08.2022 10:26:06
#AxisType[0]=Intens
#AxisUnit[0]=Cnt
#AxisType[1]=Spectr
#AxisUnit[1]=1/cm
200.407	4.30302
202.221	4.55216
204.035	6.12723
205.849	6.98206
207.665	7.5182
209.478	8.23296
211.291	8.62781
213.104	9.11989
214.916	10.5069
216.73	11.7419
218.541	11.4772
220.352	11.4421
222.163	11.7945
223.973	11.7108
225.785	11.8737
227.595	11.5082
229.404	10.4012
231.213	11.1632
233.022	11.8155
234.83	11.5824
236.638	10.7022
238.448	10.5329
240.255	10.8279
242.062	10.3219
243.868	10.0753
245.675	10.2084
247.48	10.4768
249.286	10.5227
251.091	10.4951
252.896	11.1358
254.702	11.597
256.506	11.2042
258.31	12.0506
260.113	11.2531
261.916	10.8872
263.719	10.9999
265.521	10.7824
267.323	11.7203
269.125	11.4437
270.926	12.3249
272.727	11.5044
274.527	11.3053
276.328	10.3096
278.127	9.96766
279.927	9.30182
281.726	8.43745
283.525	8.36882
285.323	8.72337
287.121	8.09381
288.919	8.08888
290.716	9.83652
292.513	9.6657
294.31	9.79928
296.104	10.3361
297.9	9.89347
299.696	9.72627
301.491	10.2148
303.286	10.1425
305.081	10.1506
306.875	9.79786
308.669	8.86656
310.463	9.31658
312.256	10.6036
314.047	10.894
315.839	11.0966
317.631	11.3064
319.423	11.8388
321.215	13.0702
323.006	12.2718
324.794	11.8226
326.585	12.0733
328.375	13.1362
330.165	13.5429
331.954	14.2625
333.741	14.0306
335.53	15.2053
337.318	15.1452
339.106	14.8413
340.894	14.7467
342.679	14.0427
344.466	13.1462
346.253	13.5876
348.039	14.1879
349.823	13.1901
351.608	14.3585
353.393	14.4687
355.176	15.1015
356.961	14.4597
358.745	14.3445
360.529	14.3135
362.31	13.4151
364.093	12.7876
365.876	12.7126
367.657	12.5884
369.439	12.6743
371.221	12.4881
373	12.7945
374.781	12.2168
376.56	11.9793
378.34	12.3052
380.12	10.7221
381.898	9.49025
383.677	8.70864
385.456	7.38608
387.233	6.20162
389.011	6.54634
390.787	6.70549
392.565	6.16104
394.34	6.66747
396.117	6.90482
397.894	7.26296
399.668	7.33975
401.444	7.77567
403.217	7.06584
404.993	6.77649
406.766	6.93194
408.54	6.20682
410.312	6.00268
412.086	4.83305
413.858	6.05491
415.631	6.86535
417.402	6.27942
419.174	5.92961
420.944	5.32308
422.716	3.72312
424.486	4.0747
426.257	2.9488
428.025	3.48335
429.794	4.4354
431.564	4.64864
433.332	4.90294
435.101	5.78205
436.868	6.29074
438.637	6.81524
440.403	7.95857
442.169	8.3636
443.937	9.25011
445.703	9.73497
447.468	10.6473
449.234	10.9747
450.999	12.5042
452.765	13.1262
454.528	14.8192
456.292	15.8363
458.057	15.916
459.819	16.1943
461.582	17.1375
463.344	18.0131
465.107	18.0737
466.868	18.6011
468.629	18.6912
470.392	19.9031
472.152	20.2155
473.912	20.6866
475.672	22.1272
477.433	23.2448
479.192	23.8385
480.951	25.4042
482.709	26.2402
484.469	26.1382
486.226	26.7187
487.984	27.3572
489.74	28.5889
491.499	29.5904
493.255	30.2379
495.011	30.4348
496.767	31.5187
498.522	32.6812
500.277	32.3665
502.033	33.2226
503.788	31.9218
505.541	29.8167
507.295	29.6452
509.048	28.538
510.801	28.1549
512.553	28.3648
514.308	28.3587
516.06	28.7891
517.811	29.0091
519.562	28.8795
521.313	28.5191
523.063	28.5255
524.814	28.9295
526.563	28.8523
528.313	28.4751
530.062	28.7526
531.811	28.7935
533.559	28.7399
535.308	28.6201
537.055	28.8382
538.803	29.6431
540.55	28.5586
542.297	28.2112
544.043	27.5631
545.789	26.2848
547.535	26.0695
549.281	25.9683
551.026	25.0791
552.771	24.3178
554.515	23.1254
556.259	22.3359
558.003	20.749
559.747	19.7916
561.49	20.6598
563.233	21.3623
564.975	20.7276
566.717	20.3975
568.459	20.7096
570.2	19.8259
571.942	19.3301
573.68	19.6217
575.421	19.1392
577.161	18.0178
578.901	17.391
580.64	16.2343
582.379	15.1349
584.118	15.4915
585.855	13.814
587.593	12.5107
589.331	11.8457
591.068	11.0793
592.805	11.0363
594.54	11.1066
596.277	10.3949
598.013	10.6732
599.749	10.5523
601.484	10.9198
603.217	11.3734
604.952	11.3857
606.687	11.2505
608.421	11.3476
610.153	12.2809
611.886	12.8631
613.619	13.1485
615.35	13.0609
617.083	13.856
618.815	15.0322
620.547	15.2976
622.276	14.9729
624.008	14.9462
625.738	14.8082
627.467	14.458
629.197	13.8785
630.927	13.0875
632.655	12.4467
634.384	12.4026
636.113	12.2662
637.839	12.0078
639.568	12.2183
641.293	11.1065
643.021	11.2694
644.748	11.179
646.473	12.2867
648.2	12.6865
649.924	13.0127
651.65	13.2801
653.376	12.8912
655.099	13.5481
656.824	13.267
658.546	12.6394
660.271	12.5801
661.993	12.9074
663.716	13.7166
665.438	13.9362
667.161	13.4803
668.881	13.5237
670.604	14.2308
672.324	15.1301
674.045	15.7553
675.765	15.9455
677.486	16.1602
679.204	16.7154
680.925	17.7203
682.643	18.8724
684.361	20.9598
686.08	21.9393
687.797	24.1569
689.516	24.8652
691.232	26.0794
692.95	26.5622
694.666	28.4177
696.382	29.444
698.099	29.901
699.813	31.3984
701.528	33.0549
703.244	33.3915
704.958	33.3985
706.673	32.4823
708.387	31.562
710.099	32.9085
711.814	33.1277
713.526	33.7267
715.238	33.3586
716.949	33.998
718.663	34.4437
720.374	35.6816
722.084	35.7722
723.796	36.4972
725.506	36.5636
727.216	35.9976
728.925	37.3207
730.636	38.3542
732.345	39.0496
734.053	40.1661
735.761	42.1859
737.471	43.2464
739.178	43.4936
740.885	44.8907
742.592	45.04
744.298	47.1311
746.006	49.6087
747.712	51.3697
749.417	52.6451
751.122	54.5043
752.827	56.3298
754.532	59.2965
756.236	62.2923
757.942	63.7052
759.645	64.4392
761.348	65.2293
763.051	66.8894
764.753	68.6336
766.456	70.5698
768.158	71.5124
769.859	73.3983
771.56	74.4264
773.261	75.2673
774.964	75.893
776.664	75.9297
778.364	76.5022
780.064	77.7132
781.763	77.5918
783.462	77.551
785.16	77.6368
786.859	76.8458
788.557	75.8886
790.255	75.5822
791.952	75.3512
793.649	73.3259
795.346	74.2621
797.042	72.7892
798.738	71.8525
800.434	70.9763
802.127	70.6987
803.823	69.1465
805.517	68.5418
807.212	67.1566
808.906	66.5826
810.6	66.2416
812.293	65.986
813.987	66.2031
815.68	65.8696
817.372	66.2211
819.064	67.0088
820.754	67.0723
822.446	67.1937
824.137	66.9632
825.828	67.1556
827.519	67.6929
829.209	68.8118
830.897	70.3183
832.587	70.4962
834.276	70.3521
835.966	69.9789
837.654	69.3836
839.341	68.6497
841.029	67.6355
842.717	65.7594
844.404	64.8352
846.091	62.5401
847.776	62.1786
849.463	61.7526
851.149	61.5751
852.833	60.2346
854.519	59.7251
856.204	58.9706
857.889	57.4524
859.572	56.9706
861.256	54.2829
862.94	54.1727
864.622	53.0348
866.305	52.0029
867.988	50.5069
869.669	49.3804
871.351	48.5012
873.033	47.8974
874.713	46.3758
876.395	44.5543
878.074	42.7813
879.755	42.4181
881.435	41.3101
883.114	41.5435
884.794	41.3415
886.471	40.5124
888.15	39.1819
889.829	38.6088
891.506	37.8504
893.184	37.3052
894.861	37.7484
896.538	38.0729
898.214	38.099
899.891	37.9812
901.566	38.2371
903.242	39.0674
904.916	38.783
906.592	38.5212
908.266	37.9732
909.941	37.8107
911.614	37.662
913.288	37.858
914.961	38.8703
916.635	37.9419
918.306	37.6063
919.979	37.1338
921.651	36.7852
923.321	37.1904
924.994	37.1579
926.664	36.9295
928.336	36.7458
930.005	36.4342
931.674	37.408
933.345	37.7206
935.014	37.4297
936.682	36.7745
938.352	36.7308
940.019	36.1301
941.687	34.8846
943.356	34.231
945.022	32.6068
946.689	33.5832
948.357	33.0132
950.022	31.793
951.688	31.7971
953.355	32.1311
955.02	31.5281
956.684	29.5993
958.348	27.5803
960.014	24.7225
961.678	25.0655
963.341	23.7093
965.004	25.4225
966.669	25.9924
968.331	26.3405
969.993	27.4131
971.655	27.7079
973.316	28.4338
974.979	28.9489
976.64	30.5975
978.3	31.6071
979.961	32.593
981.62	32.1903
983.28	33.5407
984.941	33.356
986.6	33.9724
988.259	33.0089
989.917	32.7832
991.575	33.6682
993.233	34.6011
994.89	35.9449
996.547	38.1877
998.204	38.9032
999.86	40.1307
1001.52	41.6381
1003.17	43.7011
1004.83	45.1407
1006.49	47.3265
1008.14	47.5302
1009.79	47.8612
1011.45	48.435
1013.1	48.4359
1014.76	48.7133
1016.41	49.0272
1018.06	48.1005
1019.72	47.599
1021.37	46.9823
1023.02	46.7454
1024.67	45.9468
1026.32	45.4625
1027.97	44.8178
1029.62	44.2894
1031.27	42.5994
1032.92	40.2864
1034.57	38.3645
1036.22	36.2505
1037.87	34.1263
1039.52	32.4477
1041.17	31.9261
1042.82	31.3762
1044.47	31.4321
1046.11	30.5346
1047.76	29.977
1049.41	28.932
1051.06	27.1916
1052.7	26.6753
1054.35	25.3476
1055.99	24.0369
1057.64	22.872
1059.28	22.1578
1060.93	20.7716
1062.57	19.6089
1064.22	18.2129
1065.86	18.2134
1067.5	17.101
1069.15	16.3429
1070.79	16.3871
1072.43	16.9375
1074.08	17.5737
1075.72	17.6539
1077.36	18.5713
1079	18.6634
1080.64	18.1788
1082.28	19.1583
1083.92	19.5948
1085.56	19.6205
1087.2	18.9731
1088.84	18.8473
1090.48	20.2818
1092.12	20.1148
1093.76	21.092
1095.39	22.1158
1097.03	24.1363
1098.67	26.4801
1100.31	28.091
1101.94	29.4335
1103.58	30.2412
1105.22	31.4771
1106.85	30.7372
1108.49	30.9811
1110.12	30.0927
1111.76	29.1014
1113.39	28.6133
1115.03	28.1645
1116.66	27.6887
1118.29	28.4992
1119.93	28.1336
1121.56	27.3754
1123.19	26.5651
1124.82	26.059
1126.46	25.2191
1128.09	24.9947
1129.72	23.3599
1131.35	23.9304
1132.98	23.3799
1134.61	24.1096
1136.24	23.7276
1137.87	23.7103
1139.5	23.4117
1141.13	24.3595
1142.76	24.0256
1144.39	23.84
1146.01	23.7734
1147.64	23.3854
1149.27	22.4997
1150.9	21.8031
1152.53	22.3456
1154.15	20.8031
1155.78	19.656
1157.4	18.7059
1159.03	18.3235
1160.65	16.5271
1162.28	15.3566
1163.9	14.8828
1165.53	15.1072
1167.15	15.2854
1168.78	16.1305
1170.4	17.2698
1172.02	19.6968
1173.65	19.626
1175.27	21.6113
1176.89	23.3103
1178.51	25.0274
1180.14	25.5279
1181.76	25.1959
1183.38	25.4185
1185	25.3477
1186.62	25.0574
1188.24	24.1374
1189.86	25.6307
1191.48	25.4065
1193.1	26.5143
1194.71	26.6852
1196.33	26.913
1197.95	27.622
1199.57	30.1212
1201.19	30.6284
1202.8	31.5652
1204.42	33.1047
1206.04	34.8396
1207.65	35.647
1209.27	36.3368
1210.88	37.8622
1212.5	39.8305
1214.12	41.2085
1215.73	43.3834
1217.35	45.4487
1218.96	46.5018
1220.57	47.6846
1222.19	49.7291
1223.8	49.4933
1225.41	50.5413
1227.03	51.5366
1228.64	52.2428
1230.25	53.4296
1231.86	53.3542
1233.47	54.0638
1235.08	54.0994
1236.69	54.1247
1238.31	54.4069
1239.92	54.6302
1241.52	54.8919
1243.13	55.5517
1244.74	57.1013
1246.35	57.7479
1247.96	57.8341
1249.57	58.0093
1251.18	57.9133
1252.78	58.0786
1254.39	57.068
1256	56.6402
1257.6	56.543
1259.21	57.1817
1260.82	56.5026
1262.42	56.2987
1264.03	56.5637
1265.63	55.6652
1267.24	56.5015
1268.84	58.1719
1270.45	59.1527
1272.05	57.8501
1273.65	58.476
1275.26	57.8999
1276.86	59.6996
1278.46	62.1089
1280.06	64.5309
1281.67	65.2698
1283.27	67.3368
1284.87	68.7331
1286.47	70.8206
1288.07	71.4393
1289.67	72.375
1291.27	75.0274
1292.87	77.2255
1294.47	79.5992
1296.07	83.2309
1297.67	85.7407
1299.27	88.2779
1300.87	91.7619
1302.47	93.8385
1304.06	95.7132
1305.66	98.1985
1307.26	100.47
1308.85	102.501
1310.45	105.662
1312.05	107.276
1313.64	110.42
1315.24	111.514
1316.83	112.825
1318.43	114.249
1320.02	114.737
1321.62	114.987
1323.21	114.859
1324.8	114.206
1326.4	112.826
1327.99	112.3
1329.59	111.701
1331.18	111.104
1332.77	110.995
1334.36	110.219
1335.95	109.773
1337.54	108.925
1339.14	108.027
1340.73	106.847
1342.32	105.334
1343.91	103.831
1345.5	102.767
1347.09	101.348
1348.67	100.438
1350.26	98.138
1351.85	96.2165
1353.44	95.4805
1355.03	93.4831
1356.62	94.0514
1358.2	93.008
1359.79	92.2249
1361.38	89.7105
1362.96	88.781
1364.55	86.7875
1366.14	86.7697
1367.72	85.5314
1369.31	85.5524
1370.89	85.9394
1372.48	86.1592
1374.06	85.0582
1375.64	85.3892
1377.23	84.9638
1378.81	84.8267
1380.39	84.9057
1381.98	83.1688
1383.56	83.0111
1385.14	82.4564
1386.72	82.5807
1388.3	82.1079
1389.89	81.3018
1391.47	79.5079
1393.05	79.1182
1394.63	76.5835
1396.21	75.3537
1397.79	74.2576
1399.37	72.308
1400.95	72.0709
1402.52	72.4067
1404.1	71.6898
1405.68	72.5918
1407.26	73.9319
1408.84	75.8647
1410.42	76.9422
1411.99	78.7313
1413.57	78.9031
1415.15	80.594
1416.72	81.9975
1418.3	84.232
1419.87	86.4267
1421.45	88.4299
1423.02	91.1311
1424.6	93.4575
1426.17	95.8328
1427.75	99.5366
1429.32	101.576
1430.89	104.313
1432.47	107.139
1434.04	109.674
1435.61	114.001
1437.18	116.308
1438.76	118.183
1440.33	119.163
1441.9	121.355
1443.47	122.323
1445.04	125.184
1446.61	124.821
1448.18	124.434
1449.75	125.269
1451.32	125.282
1452.89	123.973
1454.46	123.855
1456.03	122.703
1457.6	120.196
1459.16	116.821
1460.73	113.236
1462.3	110.634
1463.87	106.759
1465.43	103.428
1467	98.4884
1468.56	94.4861
1470.13	89.7955
1471.7	85.3989
1473.26	80.5847
1474.83	77.9346
1476.39	73.795
1477.96	70.3209
1479.52	67.7686
1481.08	64.0977
1482.65	60.0776
1484.21	57.7136
1485.77	54.5476
1487.34	51.6609
1488.9	48.1499
1490.46	44.7805
1492.02	41.4994
1493.58	39.119
1495.15	36.8952
1496.71	35.6583
1498.27	34.1982
1499.83	32.7962
1501.39	32.4139
1502.95	31.8287
1504.51	31.6366
1506.07	32.3493
1507.63	32.5854
1509.18	33.368
1510.74	32.9756
1512.3	33.5979
1513.86	34.0217
1515.41	33.359
1516.97	33.6202
1518.53	34.6231
1520.08	36.0142
1521.64	35.686
1523.2	36.4696
1524.75	36.0227
1526.31	36.9356
1527.86	38.9333
1529.42	39.8394
1530.97	40.3746
1532.52	42.6296
1534.08	43.7279
1535.63	43.8449
1537.19	45.4253
1538.74	47.4891
1540.29	48.6096
1541.84	49.328
1543.4	51.6578
1544.95	52.1285
1546.5	54.1508
1548.05	56.1685
1549.6	58.8441
1551.15	61.4354
1552.7	63.9286
1554.25	66.0147
1555.8	69.4919
1557.35	71.5968
1558.9	74.3288
1560.45	76.8544
1562	78.6375
1563.54	80.9642
1565.09	83.3995
1566.64	85.5385
1568.19	87.2021
1569.73	90.0755
1571.28	91.9803
1572.83	95.2926
1574.37	97.2466
1575.92	98.2498
1577.47	100.194
1579.01	102.42
1580.56	103.963
1582.1	105.075
1583.64	106.848
1585.19	107.99
1586.73	108.382
1588.28	108.442
1589.82	108.838
1591.36	108.712
1592.9	109.197
1594.45	109.734
1595.99	108.2
1597.53	107.52
1599.07	105.205
1600.61	104.736
1602.15	104.503
1603.69	103.481
1605.23	103.022
1606.77	102.215
1608.31	100.821
1609.85	100.676
1611.39	98.6024
1612.93	97.3355
1614.47	96.8541
1616.01	95.8484
1617.55	95.3983
1619.08	94.5005
1620.62	94.7652
1622.16	93.4707
1623.7	93.6565
1625.23	94.2974
1626.77	94.4304
1628.3	94.7509
1629.84	95.0126
1631.37	95.9308
1632.91	96.1374
1634.44	96.5135
1635.98	96.9598
1637.51	97.564
1639.05	98.533
1640.58	100.094
1642.11	100.205
1643.65	100.233
1645.18	100.611
1646.71	101.448
1648.24	102.109
1649.78	102.238
1651.31	101.639
1652.84	101.31
1654.37	102.314
1655.9	101.854
1657.43	101.885
1658.96	101.088
1660.49	100.771
1662.02	99.3373
1663.55	97.4048
1665.08	96.6328
1666.61	94.4349
1668.14	92.2865
1669.66	90.1975
1671.19	87.821
1672.72	84.6078
1674.25	82.4602
1675.77	79.8496
1677.3	77.4727
1678.83	75.9695
1680.35	72.1295
1681.88	68.4531
1683.4	65.3721
1684.93	62.3049
1686.45	59.7337
1687.98	55.6202
1689.5	52.4575
1691.03	48.955
1692.55	45.8041
1694.07	42.0405
1695.6	38.5605
1697.12	34.9472
1698.64	31.961
1700.17	29.2813
1701.69	26.9543
1703.21	24.0699
1704.73	21.5583
1706.25	19.6938
1707.77	17.9844
1709.29	16.0718
1710.81	15.1269
1712.33	13.6378
1713.85	12.285
1715.37	10.5432
1716.89	9.17772
1718.41	8.52981
1719.93	8.08202
1721.45	7.58675
1722.97	7.54084
1724.49	7.38449
1726	6.44347
1727.52	6.58711
1729.04	7.44184
1730.55	8.06164
1732.07	7.72108
1733.59	8.21867
1735.1	8.16149
1736.62	8.29405
1738.13	8.2192
1739.65	8.88183
1741.16	9.94575
1742.68	9.26944
1744.19	9.52226
1745.7	10.8744
1747.22	10.9595
1748.73	11.3051
1750.24	11.3265
1751.76	11.9755
1753.27	11.8121
1754.78	11.7651
1756.29	9.94212
1757.8	10.114
1759.31	10.6813
1760.83	10.575
1762.34	10.1136
1763.85	9.11863
1765.36	9.23085
1766.87	9.07754
1768.38	8.92915
1769.89	8.65415
1771.39	8.35208
1772.9	7.14311
1774.41	7.5664
1775.92	7.42074
1777.43	6.98713
1778.94	7.33846
1780.44	7.53153
1781.95	7.24111
1783.46	7.31682
1784.96	6.60677
1786.47	6.73483
1787.97	6.67167
1789.48	6.28443
1790.99	6.50723
1792.49	6.83732
1794	7.1283
1795.5	6.54098
1797	6.67617
1798.51	7.54459
1800.01	7.9381
1801.51	7.26547
1803.02	7.0899
1804.52	7.44121
1806.02	6.85922
1807.53	6.97159
1809.03	7.2425
1810.53	7.25863
1812.03	7.15908
1813.53	7.05424
1815.03	6.91715
1816.53	6.95121
1818.03	6.49502
1819.53	6.41791
1821.03	6.70961
1822.53	6.16108
1824.03	6.50082
1825.53	5.73241
1827.03	5.19329
1828.53	5.06585
1830.02	5.15688
1831.52	5.15928
1833.02	5.06766
1834.52	4.66123
1836.01	4.13287
1837.51	3.89488
1839.01	3.87748
1840.5	3.72651
1842	3.73411
1843.49	3.28474
1844.99	2.60461
1846.48	1.81534
1847.98	2.31262
1849.47	3.03899
1850.97	3.55811
1852.46	3.68793
1853.95	3.65363
1855.45	3.48692
1856.94	3.405
1858.43	4.48519
1859.93	4.92059
1861.42	6.03229
1862.91	6.35127
1864.4	6.48239
1865.89	6.85772
1867.38	7.05136
1868.87	7.16904
1870.36	7.01086
1871.85	6.9831
1873.34	6.4943
1874.83	6.08107
1876.32	5.61021
1877.81	5.39017
1879.3	5.71526
1880.79	5.81684
1882.28	5.36923
1882.52	5.31568
1884.02	5.34576
1885.51	5.18619
1887.01	5.2451
1888.5	5.12805
1889.99	5.22355
1891.49	4.79348
1892.98	4.33356
1894.47	4.19682
1895.97	4.71733
1897.46	4.4098
1898.95	3.30823
1900.44	4.00083
1901.93	4.63579
1903.42	4.43882
1904.91	3.84856
1906.4	3.08698
1907.89	3.33412
1909.38	3.1532
1910.87	3.04853
1912.36	2.89747
1913.85	2.52816
1915.34	2.2736
1916.83	1.46051
1918.32	1.18402
1919.8	1.9523
1921.29	1.98629
1922.78	2.02668
1924.27	1.76211
1925.75	1.3631
1927.24	1.45329
1928.73	1.91749
1930.21	2.70051
1931.7	3.09951
1933.18	2.87614
1934.67	2.37174
1936.15	1.85231
1937.64	1.80749
1939.12	1.65708
1940.61	1.67873
1942.09	1.81841
1943.57	1.39055
1945.06	1.50128
1946.54	1.6824
1948.02	2.07522
1949.51	2.75396
1950.99	2.31631
1952.47	2.80476
1953.95	2.57034
1955.43	2.5263
1956.91	2.79169
1958.4	2.54763
1959.88	2.90113
1961.36	3.15336
1962.84	3.2216
1964.32	3.22055
1965.8	2.61837
1967.27	3.59453
1968.75	3.27881
1970.23	3.97693
1971.71	3.43066
1973.19	3.47107
1974.67	4.53286
1976.14	3.77858
1977.62	3.65617
1979.1	4.03602
1980.58	4.22147
1982.05	4.06206
1983.53	3.91306
1985	3.94667
1986.48	4.89602
1987.95	4.99334
1989.43	4.61555
1990.9	4.99157
1992.38	5.55428
1993.85	5.91565
1995.33	5.84719
1996.8	6.64423
1998.27	6.36626
1999.75	6.80786
2001.22	6.80741
2002.69	6.95451
2004.16	7.08695
2005.64	6.48029
2007.11	6.20585
2008.58	5.32501
2010.05	5.57609
2011.52	6.00707
2012.99	6.23206
2014.46	6.46566
2015.93	6.76461
2017.4	6.07168
2018.87	7.08925
2020.34	6.67645
2021.81	6.66082
2023.28	6.11176
2024.75	5.8851
2026.22	6.2723
2027.69	5.98883
2029.15	5.74557
2030.62	4.99373
2032.09	4.77979
2033.56	4.73649
2035.02	4.4457
2036.49	4.69493
2037.96	4.66911
2039.42	4.62439
2040.89	4.75946
2042.35	4.53545
2043.82	5.30646
2045.28	4.88075
2046.75	5.1034
2048.21	5.22578
2049.67	5.38127
2051.14	5.85801
2052.6	6.20275
2054.07	5.69872
2055.53	6.1716
2056.99	6.98481
2058.45	7.11854
2059.92	7.53946
2061.38	7.169
2062.84	6.99188
2064.3	7.42697
2065.76	6.86174
2067.22	7.48098
2068.68	7.24125
2070.14	6.56947
2071.6	5.85362
2073.06	5.41141
2074.52	4.50723
2075.98	4.15072
2077.44	3.34467
2078.9	2.92416
2080.36	2.91998
2081.82	3.10079
2083.27	3.76371
2084.73	3.69417
2086.19	3.87487
2087.65	3.994
2089.1	3.82497
2090.56	3.54408
2092.02	3.68256
2093.47	3.11727
2094.93	2.8776
2096.38	3.32931
2097.84	3.9248
2099.29	3.63842
2100.75	3.30495
2102.2	3.39192
2103.66	3.76607
2105.11	4.81512
2106.56	5.52938
2108.02	6.61886
2109.47	6.38444
2110.92	6.27587
2112.38	6.42789
2113.83	7.19224
2115.28	7.16689
2116.73	7.29451
2118.18	7.19135
2119.63	7.44601
2121.09	7.60296
2122.54	7.85751
2123.99	8.24677
2125.44	8.38939
2126.89	8.76046
2128.34	9.20655
2129.79	8.50858
2131.23	8.6752
2132.68	9.15998
2134.13	9.05921
2135.58	9.12084
2137.03	9.56254
2138.48	8.97166
2139.92	9.33872
2141.37	9.08053
2142.82	8.85031
2144.27	8.89285
2145.71	8.69102
2147.16	8.83274
2148.6	8.38704
2150.05	8.2157
2151.49	8.63932
2152.94	8.65388
2154.38	8.10871
2155.83	8.37158
2157.27	8.22417
2158.72	8.34807
2160.16	8.44172
2161.6	8.62855
2163.05	8.85496
2164.49	8.64086
2165.93	8.96225
2167.38	9.53436
2168.82	10.3297
2170.26	10.3774
2171.7	10.303
2173.14	10.9635
2174.58	11.5823
2176.03	11.5093
2177.47	11.9723
2178.91	11.4744
2180.35	11.819
2181.79	11.4269
2183.23	11.3804
2184.67	11.1022
2186.1	10.9727
2187.54	10.7261
2188.98	11.2519
2190.42	11.3137
2191.86	11.8464
2193.3	11.9179
2194.73	11.8495
2196.17	12.871
2197.61	12.361
2199.05	12.8655
2200.48	12.8967
2201.92	13.1684
2203.35	13.0582
2204.79	12.798
2206.22	12.8613
2207.66	12.2734
2209.1	12.0467
2210.53	11.7517
2211.97	12.325
2213.4	12.5507
2214.83	11.8309
2216.27	11.8954
2217.7	11.6733
2219.13	11.6745
2220.57	11.501
2222	11.7439
2223.43	11.9177
2224.86	12.2808
2226.29	11.8578
2227.72	12.1607
2229.16	11.8801
2230.59	11.7358
2232.02	11.3124
2233.45	11.2438
2234.88	10.8498
2236.31	10.6516
2237.74	10.9091
2239.17	11.3379
2240.6	11.3781
2242.03	11.2668
2243.45	11.3614
2244.88	10.9754
2246.31	11.1637
2247.74	10.7386
2249.17	10.4871
2250.59	9.66317
2252.02	10.5977
2253.45	9.98212
2254.87	10.329
2256.3	10.6886
2257.73	10.6325
2259.15	10.8502
2260.58	10.4459
2262	10.3546
2263.43	10.1812
2264.85	10.3916
2266.28	10.4
2267.7	10.8012
2269.13	9.87543
2270.55	9.70129
2271.97	8.85818
2273.4	8.56864
2274.82	8.04849
2276.24	8.06056
2277.67	7.81006
2279.09	7.28867
2280.51	7.85819
2281.93	7.48854
2283.35	7.45813
2284.77	7.74857
2286.2	7.45344
2287.62	7.31072
2289.04	7.00176
2290.46	7.06514
2291.88	6.26555
2293.3	5.69952
2294.72	6.06347
2296.13	6.76552
2297.55	5.949
2298.97	6.47608
2300.39	6.97768
2301.81	7.29955
2303.23	7.3023
2304.64	8.03035
2306.06	7.75805
2307.48	7.5611
2308.89	8.14243
2310.31	8.1969
2311.73	7.80486
2313.14	7.56859
2314.56	7.55571
2315.98	7.07198
2317.39	8.18119
2318.81	7.57467
2320.22	7.2475
2321.64	7.84132
2323.05	8.14656
2324.46	7.18233
2325.88	7.20044
2327.29	6.62622
2328.7	6.70975
2330.12	6.73091
2331.53	6.94902
2332.94	7.15434
2334.35	7.29271
2335.77	7.46139
2337.18	6.95699
2338.59	6.50193
2340	5.91428
2341.41	5.54489
2342.82	5.11695
2344.23	5.08521
2345.64	4.52673
2347.05	4.18357
2348.46	4.86986
2349.87	4.7103
2351.28	4.77964
2352.69	4.89148
2354.1	4.85026
2355.51	4.36617
2356.91	3.84574
2358.32	3.61666
2359.73	3.58802
2361.14	4.17798
2362.54	4.59716
2363.95	5.65287
2365.36	5.62713
2366.76	5.51891
2368.17	4.73638
2369.58	5.38273
2370.98	5.22261
2372.39	4.14433
2373.79	3.77126
2375.2	3.88411
2376.6	3.65457
2378	3.94316
2379.41	4.29698
2380.81	3.68015
2382.22	3.01319
2383.62	2.64223
2385.02	2.09299
2386.43	1.90793
2387.83	2.08583
2389.23	1.48159
2390.63	1.31271
2392.03	1.44492
2393.44	0.737454
2394.84	1.14988
2396.24	1.84311
2397.64	1.98378
2399.04	1.75692
2400.44	1.53529
2401.84	1.88154
2403.24	1.93516
2404.64	1.75412
2406.04	2.23127
2407.44	2.66521
2408.84	2.96471
2410.23	3.36772
2411.63	3.40488
2413.03	4.00009
2414.43	4.80288
2415.83	5.27271
2417.22	6.08952
2418.62	6.7306
2420.02	6.33033
2421.41	7.40424
2422.81	7.52037
2424.21	7.99075
2425.6	8.92747
2427	9.27294
2428.39	9.40066
2429.79	9.08873
2431.18	9.59006
2432.58	9.73423
2433.97	9.06253
2435.36	8.26986
2436.76	8.4836
2438.15	8.79088
2439.54	8.87718
2440.94	8.06539
2442.33	7.33915
2443.72	7.99094
2445.12	8.12374
2446.51	7.84774
2447.9	6.75051
2449.29	5.73132
2450.68	4.93289
2452.07	4.03389
2453.46	3.83264
2454.85	3.09084
2456.24	3.22916
2457.64	2.78322
2459.02	2.57516
2460.41	3.05917
2461.8	2.74221
2463.19	2.27902
2464.58	2.74083
2465.97	2.21517
2467.36	1.88281
2468.75	1.79083
2470.13	1.77777
2471.52	1.73138
2472.91	1.91552
2474.3	1.72431
2475.68	2.18801
2477.07	1.97447
2478.45	1.19508
2479.84	0.963064
2481.23	0.912547
2482.61	1.80005
2484	1.65121
2485.38	2.0752
2486.77	2.68098
2488.15	2.81209
2489.54	3.40046
2490.92	4.69419
2492.3	4.92114
2493.69	5.22958
2495.07	5.44009
2496.45	4.50013
2497.84	4.69501
2499.22	4.50385
2500.6	4.5823
2501.98	4.4906
2503.36	4.24181
2504.75	4.13315
2506.13	3.9508
2507.51	4.2695
2508.89	3.89775
2510.27	4.30659
2511.65	4.1844
2513.03	4.53345
2514.41	4.51927
2515.79	3.39216
2517.17	3.16352
2518.55	3.07676
2519.93	3.46454
2521.3	3.76021
2522.68	3.285
2524.06	2.85965
2525.44	3.00278
2526.82	3.55844
2528.19	4.418
2529.57	4.50213
2530.95	3.72732
2532.32	3.4321
2533.7	4.0599
2535.08	3.83412
2536.45	3.32427
2537.83	2.30284
2539.2	1.69796
2540.58	1.9997
2541.95	2.24708
2543.33	2.63758
2544.7	2.82283
2546.08	3.04841
2547.45	3.64903
2548.82	4.37238
2550.2	4.51061
2551.57	4.96368
2552.94	4.58906
2554.32	5.07549
2555.69	5.19895
2557.06	5.32948
2558.43	5.45053
2559.8	5.04016
2561.18	4.30656
2562.55	4.6173
2563.92	4.9343
2565.29	4.69395
2566.66	5.29754
2568.03	4.56748
2569.4	5.11423
2570.77	5.61506
2572.14	5.38887
2573.51	4.85442
2574.88	4.73486
2576.25	5.31083
2577.61	4.72338
2578.98	4.67246
2580.35	4.52876
2581.72	5.27498
2583.09	5.14324
2584.45	5.08891
2585.82	5.07668
2587.19	4.75917
2588.55	4.56395
2589.92	3.97917
2591.29	3.07537
2592.65	2.94603
2594.02	2.922
2595.38	3.67031
2596.75	3.07073
2598.11	2.65997
2599.48	2.46641
2600.84	2.88322
2602.21	3.38582
2603.57	3.00506
2604.93	1.84159
2606.3	2.28011
2607.66	2.67768
2609.02	3.2427
2610.39	3.39974
2611.75	3.64914
2613.11	3.31015
2614.47	3.54011
2615.83	3.38177
2617.19	3.46656
2618.56	3.47027
2619.92	3.6347
2621.28	3.06015
2622.64	2.99225
2624	2.94193
2625.36	3.55857
2626.72	3.25183
2628.08	3.4303
2629.44	4.10995
2630.8	4.54442
2632.15	4.21378
2633.51	4.24365
2634.87	3.94096
2636.23	3.56308
2637.59	4.1474
2638.94	3.56593
2640.3	2.84628
2641.66	3.31456
2643.02	3.90565
2644.37	3.97264
2645.73	3.73091
2647.09	4.44076
2648.44	4.55737
2649.8	4.33688
2651.15	3.9353
2652.51	3.84108
2653.86	3.01773
2655.22	2.92385
2656.57	2.46579
2657.93	2.00844
2659.28	1.93481
2660.63	1.87508
2661.99	2.19598
2663.34	2.08268
2664.69	2.08791
2666.05	2.4363
2667.4	2.44432
2668.75	3.12884
2670.1	2.83373
2671.45	2.71339
2672.81	2.60104
2674.16	2.94824
2675.51	3.14047
2676.86	3.57472
2678.21	4.286
2679.56	4.77124
2680.91	4.66686
2682.26	5.76926
2683.61	5.96972
2684.96	6.3689
2686.31	6.67249
2687.66	7.01577
2689	7.30621
2690.35	8.14658
2691.7	8.27301
2693.05	8.68627
2694.4	8.07538
2695.74	8.37012
2697.09	8.65439
2698.44	9.02743
2699.79	9.17151
2701.13	9.69796
2702.48	10.5205
2703.83	10.5816
2705.17	10.8598
2706.52	11.2137
2707.86	11.6957
2709.21	12.7711
2710.55	12.389
2711.9	12.636
2713.24	12.8806
2714.58	12.8671
2715.93	13.2427
2717.27	13.6644
2718.62	13.3932
2719.96	12.5578
2721.3	11.8565
2722.65	11.5582
2723.99	10.7723
2725.33	9.99946
2726.67	10.165
2728.01	9.61747
2729.35	9.34405
2730.7	8.98319
2732.04	9.0894
2733.38	8.70053
2734.72	7.90471
2736.06	7.90567
2737.4	7.38322
2738.74	7.57648
2740.08	7.32866
2741.42	7.03993
2742.76	7.06429
2744.1	6.76486
2745.43	6.71062
2746.77	6.17838
2748.11	6.3269
2749.45	7.00247
2750.79	6.55164
2752.12	6.52159
2753.46	6.8614
2754.8	5.80526
2756.14	5.51399
2757.47	4.91555
2758.81	4.3434
2760.14	4.29969
2761.48	4.26355
2762.81	4.13141
2764.15	4.25669
2765.49	4.44165
2766.82	4.12524
2768.16	4.42377
2769.49	4.20419
2770.82	3.90209
2772.16	4.11991
2773.49	4.3497
2774.82	3.77343
2776.16	3.5193
2777.49	2.75569
2778.82	3.17481
2780.16	2.61088
2781.49	2.41038
2782.82	2.90945
2784.15	2.5563
2785.48	2.23332
2786.82	1.99333
2788.15	2.03383
2789.48	2.30913
2790.81	2.16889
2792.14	1.90645
2793.47	2.02821
2794.8	1.28345
2796.13	1.00958
2797.46	0.995157
2798.79	0.752444
2800.12	0.231963
2801.44	0.235286
2802.77	0.665322
2804.1	0.673243
2805.43	0.37369
2806.76	-0.1281
2808.08	-1.00161
2809.41	-0.795308
2810.74	0.104816
2812.07	0.220772
2813.39	0.599342
2814.72	0.970339
2816.05	1.30089
2817.37	1.48764
2818.7	2.2324
2820.02	3.50457
2821.35	4.61716
2822.67	6.5663
2824	8.45696
2825.32	10.5469
2826.65	12.9664
2827.97	15.1598
2829.3	17.4406
2830.62	19.7659
2831.94	21.7908
2833.26	24.015
2834.59	27.0504
2835.91	29.4834
2837.23	33.075
2838.56	35.8599
2839.88	39.7178
2841.2	43.4895
2842.52	48.8668
2843.84	53.2593
2845.16	58.0478
2846.48	62.9573
2847.8	69.0813
2849.12	75.9015
2850.45	81.5183
2851.77	87.9591
2853.08	93.8151
2854.4	99.5584
2855.72	105.262
2857.04	110.787
2858.36	115.95
2859.68	121.494
2861	126.946
2862.32	132.86
2863.63	138.271
2864.95	142.74
2866.27	147.436
2867.59	152.443
2868.9	156.438
2870.22	160.598
2871.54	164.61
2872.85	168.773
2874.17	172.771
2875.48	177.073
2876.8	180.663
2878.11	184.283
2879.43	187.352
2880.74	190.323
2882.06	194.086
2883.37	197.48
2884.69	200.671
2886	204.335
2887.31	207.072
2888.63	209.488
2889.94	212.648
2891.25	215.714
2892.57	218.303
2893.88	221.084
2895.19	223.89
2896.5	227.361
2897.82	231.037
2899.13	234.868
2900.44	238.114
2901.75	242.46
2903.06	247.254
2904.37	251.496
2905.68	257.118
2906.99	262.997
2908.3	268.997
2909.61	273.796
2910.92	280.053
2912.23	286.317
2913.54	293.023
2914.85	298.974
2916.16	303.373
2917.46	308.681
2918.77	313.164
2920.08	317.613
2921.39	321.704
2922.7	324.956
2924	327.508
2925.31	330.209
2926.62	332.058
2927.92	333.497
2929.23	333.66
2930.54	333.49
2931.84	333.384
2933.15	332.776
2934.45	330.431
2935.76	328.221
2937.06	325.468
2938.37	322.284
2939.67	318.882
2940.98	314.641
2942.28	310.425
2943.58	305.53
2944.89	299.026
2946.19	294.821
2947.49	289.798
2948.8	283.982
2950.1	277.611
2951.4	271.893
2952.7	265.161
2954.01	259.171
2955.31	254.475
2956.61	249.001
2957.91	242.479
2959.21	237.466
2960.51	231.798
2961.81	226.252
2963.11	219.724
2964.41	214.339
2965.71	209.016
2967.01	203.81
2968.31	198.546
2969.61	193.538
2970.91	189.141
2972.21	184.481
2973.51	179.632
2974.81	174.787
2976.1	169.957
2977.4	164.875
2978.7	160.302
2980	155.066
2981.29	149.564
2982.59	144.678
2983.89	139.466
2985.18	133.779
2986.48	127.916
2987.78	121.935
2989.07	116.498
2990.37	111.268
2991.66	105.482
2992.96	100.191
2994.25	94.8767
2995.55	89.5404
2996.84	84.463
2998.14	78.8489
2999.43	73.2599
3000.73	67.7595
3002.02	63.2397
3003.31	57.9136
3004.61	53.1501
3005.9	48.7689
3007.19	44.2557
3008.48	40.3018
3009.77	36.1653
3011.07	33.4699
3012.36	29.5841
3013.65	25.9854
3014.94	23.2769
3016.23	21.1661
3017.52	19.0978
3018.81	17.2606
3020.1	16.0555
3021.4	13.7968
3022.68	11.8784
3023.97	10.9234
3025.26	8.98347
3026.55	7.62133
3027.84	6.83056
3029.13	6.98529
3030.42	6.42179
3031.71	5.94745
3033	5.80138
3034.28	5.32669
3035.57	5.90497
3036.86	6.71441
3038.15	7.35413
3039.43	7.72682
3040.72	8.08763
3042.01	8.98537
3043.29	9.81322
3044.58	10.3546
3045.87	11.5436
3047.15	12.8365
3048.44	14.2466
3049.72	15.0064
3051.01	15.8768
3052.29	16.7143
3053.58	17.6836
3054.86	18.1965
3056.15	18.6904
3057.43	19.0419
3058.71	19.0666
3060	18.4944
3061.28	18.2133
3062.56	18.2978
3063.84	17.6501
3065.13	16.9985
3066.41	16.8454
3067.69	15.8568
3068.97	15.1543
3070.26	14.7565
3071.54	13.3762
3072.82	12.7587
3074.1	11.8364
3075.38	11.3316
3076.66	10.2338
3077.94	9.53697
3079.22	8.77533
3080.5	7.60512
3081.78	7.32464
3083.06	6.15725
3084.34	5.33646
3085.62	4.02886
3086.9	2.80414
3088.18	2.39271
3089.45	1.62652
3090.73	1.54927
3092.01	0.766818
3093.29	0.37402
3094.56	-0.841309
3095.84	-1.27097
3097.12	-1.97702
3098.4	-1.75972
3099.67	-0.957197
3100.95	-0.752351
3102.22	-1.16854
3103.5	-0.952677
3104.78	-0.787339
3106.05	-0.566795
3107.33	-0.0882122
3108.6	0.182983
3109.88	0.814438
3111.15	0.745167
3112.43	1.26043
3113.7	1.22444
3114.97	2.2103
3116.25	2.82277
3117.52	3.48888
3118.79	4.0387
3120.07	4.93969
3121.34	5.50861
3122.61	6.38105
3123.88	7.44713
3125.16	8.74205
3126.43	9.94936
3127.7	10.1393
3128.97	11.4414
3130.24	12.2545
3131.51	13.4223
3132.79	14.5445
3134.06	16.5073
3135.33	17.6106
3136.6	19.3437
3137.87	21.0287
3139.14	22.517
3140.41	24.3418
3141.67	26.1235
3142.94	27.6362
3144.21	29.1492
3145.48	30.2295
3146.75	32.0735
3148.02	33.4134
3149.29	35.3053
