#Acq. time (s)=	45
#Accumulations=	2
#Range (cm-¹)=	200...3150
#Windows=	2
#Auto scanning=	Off
#Autofocus=	Off
#Macrospot=	Off
#AutoExposure=	Off
#Spike filter=	Multiple accum.
#Delay time (s)=	0
#Binning=	1
#Readout mode=	Signal
#DeNoise=	Off
#ICS correction=	On
#Dark correction=	Off
#Inst. Process=	Off
#Detector Gain=	Best Dynamic Range
#Detector ADC=	20 kHz       
#Detector temperature (°C)=	-69.85
#Instrument=	LabRAM HR Evol
#Detector=	Synapse
#Objective=	x100
#Grating=	600 gr/mm
#ND Filter=	100%
#Laser (nm)=	532 
#Hole=	100.021
#Range=	Auto
#Laser Pol.=	No
#Raman. Pol.=	No
#Laser Pol. (°)=	-0.0007625
#Raman Pol. (°)=	89.9995
#Collection=	Microscope
#StageXY=	Marzhauser
#StageZ=	Marzhauser
#X (µm)=	1952.6
#Y (µm)=	-44.1
#Z (µm)=	425.2
#Full time(mm:ss)=	3:18
#Project=	
#Sample=	
#Site=	
#Title=	Thy_40_11_25_2x_45s_532 nm_x100_100%_600 gr_mm
#Remark=	
#Date=	05.07.2022 11:38
#Acquired=	05.07.2022 11:38:24
#Base:Fit=	10.08.2022 10:01:35
#Base:Sub=	10.08.2022 10:01:52
#Filter:Polynom=	16.08.2022 10:21:53
#AxisType[0]=Intens
#AxisUnit[0]=Cnt
#AxisType[1]=Spectr
#AxisUnit[1]=1/cm
200.43	35.197
202.244	31.078
204.059	28.4016
205.873	24.6083
207.688	20.8511
209.501	17.7269
211.314	15.1839
213.127	12.7915
214.941	10.8918
216.753	9.92109
218.564	9.20825
220.375	6.90028
222.186	6.18381
223.999	4.63348
225.809	5.49947
227.618	5.12475
229.428	4.05153
231.236	3.22028
233.045	4.02301
234.855	4.60376
236.663	4.59009
238.471	4.25487
240.278	4.76433
242.085	5.31606
243.891	6.38892
245.698	6.56017
247.503	6.68294
249.309	6.98522
251.116	7.49639
252.921	8.41995
254.725	8.31914
256.529	9.3751
258.333	9.98921
260.136	10.795
261.939	11.1914
263.742	11.4473
265.544	11.8284
267.346	11.0383
269.148	10.6791
270.949	9.94828
272.75	10.0299
274.55	8.89983
276.351	8.57629
278.15	8.13554
279.95	8.25202
281.749	7.30455
283.548	7.79162
285.346	7.59607
287.144	8.50985
288.942	7.65502
290.739	7.3982
292.536	7.73365
294.333	5.88748
296.129	6.39914
297.925	7.14679
299.721	6.76727
301.514	6.79319
303.309	6.73338
305.104	6.60002
306.898	6.3036
308.692	5.41
310.486	4.42844
312.279	5.44934
314.072	5.29855
315.862	5.49417
317.654	4.31658
319.446	5.07536
321.238	5.5279
323.029	6.2489
324.819	5.88195
326.608	5.04251
328.398	5.45357
330.188	6.23738
331.977	6.0625
333.766	5.57741
335.553	4.62247
337.341	4.48981
339.129	4.53587
340.917	4.65289
342.704	4.49753
344.489	5.32037
346.275	5.45301
348.062	4.61095
349.845	3.07289
351.631	2.23534
353.416	1.74589
355.201	1.56721
356.984	1.51614
358.768	1.44975
360.552	0.818106
362.333	1.19067
364.116	1.42694
365.899	2.51079
367.68	3.07153
369.462	3.55175
371.243	3.08201
373.023	3.44052
374.804	3.0876
376.585	3.0698
378.363	2.60878
380.143	3.52397
381.923	4.00447
383.7	4.07408
385.479	6.24746
387.256	6.42844
389.034	5.91896
390.812	5.26561
392.588	5.38706
394.365	5.7847
396.14	5.88229
397.916	5.81156
399.691	5.86326
401.467	5.68964
403.24	5.64557
405.015	5.92057
406.788	6.85193
408.563	7.34953
410.335	6.63715
412.109	7.24083
413.88	7.73718
415.654	7.3437
417.424	7.93745
419.197	6.85255
420.967	6.40194
422.739	6.24096
424.508	7.3157
426.279	7.80205
428.048	7.13347
429.819	7.62986
431.587	7.59539
433.356	7.81684
435.124	6.66399
436.891	6.84006
438.66	7.00959
440.426	7.49684
442.194	7.84337
443.96	8.19326
445.725	8.53807
447.492	8.09495
449.257	7.99188
451.021	8.80619
452.787	8.27651
454.551	8.33646
456.314	8.54438
458.079	9.04918
459.842	9.27224
461.604	10.7351
463.368	11.9832
465.13	13.5527
466.891	15.1707
468.654	15.7766
470.415	16.2781
472.175	16.6201
473.935	16.8413
475.696	16.6816
477.456	16.528
479.215	15.8324
480.973	17.5495
482.733	17.8884
484.491	16.4964
486.249	15.697
488.006	15.7811
489.765	16.2904
491.522	17.6376
493.278	18.6556
495.034	19.0861
496.789	18.6104
498.544	19.2541
500.301	20.1612
502.056	20.6966
503.81	19.8584
505.564	19.7487
507.317	19.8937
509.071	20.5821
510.825	21.1548
512.578	21.5828
514.33	21.0077
516.082	21.4627
517.833	22.1319
519.585	21.8729
521.335	22.1061
523.086	22.4422
524.836	22.5728
526.586	21.8868
528.335	21.964
530.085	22.1334
531.835	22.1331
533.584	22.3129
535.332	22.4898
537.08	22.9051
538.827	22.8534
540.574	22.5799
542.321	22.9712
544.068	22.9481
545.814	22.7207
547.56	22.7552
549.305	23.1087
551.05	22.6008
552.795	21.8323
554.54	21.3901
556.282	20.8542
558.025	21.0097
559.769	20.1414
561.512	19.2534
563.255	17.6205
564.997	16.0372
566.739	14.9287
568.481	14.2483
570.223	12.0378
571.964	10.9028
573.705	10.8796
575.443	11.0484
577.183	10.7772
578.923	10.4743
580.663	10.1158
582.402	10.102
584.141	10.5124
585.879	10.6264
587.615	10.5037
589.353	10.2481
591.09	8.85342
592.828	8.76075
594.564	8.63524
596.299	8.76282
598.035	8.65572
599.771	8.20071
601.506	8.1083
603.242	9.16769
604.974	9.29456
606.709	9.83814
608.443	10.8499
610.177	11.5961
611.908	12.337
613.642	12.7022
615.374	13.5436
617.105	14.2692
618.837	14.8664
620.569	15.2119
622.3	15.7483
624.03	16.1598
625.761	15.9263
627.491	17.1926
629.219	17.8214
630.949	19.4006
632.677	20.2899
634.406	22.1619
636.135	23.0541
637.861	24.1707
639.59	24.7843
641.318	25.7469
643.043	25.617
644.77	25.8701
646.495	25.8656
648.222	26.1717
649.948	26.9492
651.672	26.1545
653.398	26.4256
655.121	26.8557
656.846	27.6593
658.569	27.8043
660.293	28.1095
662.015	27.5997
663.738	28.04
665.46	29.2447
667.183	30.703
668.903	31.9438
670.626	32.2107
672.346	32.4902
674.067	32.4087
675.787	32.2128
677.508	31.8447
679.226	32.3453
680.947	33.2867
682.665	34.1602
684.385	34.0106
686.102	35.1727
687.821	36.5284
689.538	38.3717
691.254	38.9274
692.972	39.7792
694.688	41.3782
696.406	42.0252
698.121	42.7587
699.835	43.171
701.552	43.6732
703.266	44.5946
704.98	45.5363
706.695	45.9361
708.409	46.6853
710.121	47.2397
711.836	48.3589
713.548	49.8852
715.26	49.9475
716.973	51.3224
718.685	52.2595
720.396	53.0305
722.108	53.0479
723.818	54.2164
725.528	53.9298
727.238	54.7819
728.949	54.5903
730.658	56.0081
732.367	55.9413
734.075	55.5882
735.785	55.1024
737.493	54.5092
739.2	56.3861
740.907	56.9343
742.614	57.5829
744.322	58.6062
746.028	59.9201
747.734	60.8897
749.439	62.8286
751.144	64.7752
752.849	65.2176
754.555	65.7509
756.26	66.4045
757.963	66.0922
759.667	65.4311
761.37	67.2835
763.073	68.6958
764.775	69.2655
766.477	70.0953
768.179	69.8802
769.883	69.9201
771.584	70.3978
773.285	71.6128
774.986	71.8814
776.686	72.992
778.386	73.8503
780.085	74.4678
781.785	75.5362
783.484	76.5851
785.182	76.6557
786.881	77.3504
788.579	78.5377
790.276	79.5853
791.974	79.9013
793.671	81.5231
795.367	82.4694
797.064	83.1941
798.76	84.3794
800.456	85.1285
802.151	87.0885
803.846	88.1124
805.541	88.3572
807.234	88.9324
808.928	90.273
810.622	90.0049
812.315	91.564
814.008	90.8057
815.701	92.1268
817.394	92.3295
819.086	92.6295
820.778	93.8043
822.468	95.4955
824.159	96.209
825.85	97.1191
827.541	98.1507
829.231	97.5639
830.921	96.9737
832.609	95.9908
834.298	95.3187
835.987	94.7954
837.676	94.7451
839.364	94.3025
841.051	92.8606
842.738	91.7785
844.426	90.6372
846.113	88.801
847.798	86.6205
849.484	84.2848
851.171	81.7149
852.857	80.4544
854.54	79.2345
856.226	78.5212
857.911	77.3177
859.593	75.5148
861.278	74.676
862.961	72.4751
864.645	71.6895
866.327	71.0738
868.01	69.8386
869.692	68.3187
871.373	67.9858
873.055	67.025
874.735	66.4022
876.416	65.5009
878.097	65.0075
879.776	64.3418
881.457	63.3215
883.135	62.0162
884.815	60.8459
886.495	60.4201
888.172	59.1214
889.851	58.4372
891.528	59.1835
893.206	58.906
894.882	58.0485
896.56	58.3363
898.237	57.8448
899.912	58.6406
901.589	57.5163
903.263	56.8691
904.94	57.3713
906.614	55.9072
908.289	54.7981
909.962	55.2738
911.635	54.371
913.31	54.2279
914.982	54.0709
916.656	53.4622
918.328	53.7118
920.001	53.7309
921.672	54.0115
923.345	52.0173
925.015	51.1532
926.685	50.2777
928.357	48.8193
930.026	48.0269
931.698	48.0865
933.366	46.6087
935.035	45.6668
936.705	45.9121
938.373	44.9741
940.041	44.6472
941.71	43.7148
943.377	43.1911
945.044	41.1223
946.712	39.4591
948.378	39.4938
950.044	39.177
951.709	39.3373
953.376	38.2156
955.041	38.4107
956.706	38.7013
958.372	39.0128
960.036	38.0069
961.699	37.4089
963.362	36.7579
965.027	36.129
966.69	36.8241
968.352	38.4844
970.014	39.4846
971.676	41.0302
973.339	41.9458
975	42.9219
976.661	42.1774
978.322	42.8802
979.982	44.1814
981.642	44.5742
983.303	44.6171
984.962	44.9
986.621	45.9271
988.28	46.4312
989.938	47.3471
991.596	49.1883
993.254	50.4557
994.911	50.5901
996.57	51.0878
998.227	49.3841
999.884	49.1175
1001.54	49.4378
1003.2	48.9831
1004.85	48.3884
1006.51	46.3694
1008.16	45.2978
1009.82	44.8105
1011.47	44.3906
1013.12	44.0794
1014.78	43.2534
1016.43	42.795
1018.08	43.2454
1019.74	42.644
1021.39	41.5282
1023.04	40.7264
1024.69	38.7033
1026.34	37.884
1028	36.6987
1029.65	37.0767
1031.3	36.5229
1032.95	36.6994
1034.6	36.4662
1036.25	35.2959
1037.9	34.9197
1039.54	33.8111
1041.19	32.3842
1042.84	30.8377
1044.49	31.2292
1046.14	31.6234
1047.78	31.291
1049.43	30.7459
1051.08	30.7862
1052.72	30.4182
1054.37	30.1922
1056.02	29.4005
1057.66	29.2205
1059.31	28.5589
1060.95	28.5416
1062.6	29.0387
1064.24	28.2935
1065.88	29.0553
1067.53	28.4861
1069.17	28.0001
1070.81	27.1699
1072.45	26.9418
1074.1	25.3218
1075.74	24.6582
1077.38	24.5512
1079.02	23.715
1080.66	21.8389
1082.3	21.3101
1083.94	21.3029
1085.58	20.1272
1087.22	19.5904
1088.86	18.8936
1090.5	19.8506
1092.14	21.4631
1093.78	21.2736
1095.42	21.8317
1097.05	22.2286
1098.69	22.3316
1100.33	21.7533
1101.96	21.0852
1103.6	21.9509
1105.24	22.6968
1106.87	21.7736
1108.51	22.1529
1110.14	21.4966
1111.78	20.3047
1113.41	19.8131
1115.05	20.6717
1116.68	19.6689
1118.31	18.6198
1119.95	18.1962
1121.58	17.4528
1123.21	16.9096
1124.85	16.1779
1126.48	16.4716
1128.11	14.5684
1129.74	13.4551
1131.37	14.2566
1133	14.1341
1134.63	12.9707
1136.26	11.4968
1137.89	10.3322
1139.52	10.4178
1141.15	9.24198
1142.78	8.95648
1144.41	7.65848
1146.04	6.91759
1147.66	6.35039
1149.29	4.59277
1150.92	4.27636
1152.55	4.31379
1154.17	4.39694
1155.8	3.8128
1157.43	3.22178
1159.05	2.18541
1160.68	0.587114
1162.3	-0.281153
1163.93	-0.0748259
1165.55	0.334437
1167.17	-0.860281
1168.8	-0.628943
1170.42	0.201492
1172.05	0.966672
1173.67	0.865988
1175.29	0.426855
1176.91	0.650406
1178.54	1.45022
1180.16	0.618898
1181.78	1.61555
1183.4	3.13893
1185.02	3.71242
1186.64	2.82485
1188.26	2.33419
1189.88	3.39041
1191.5	3.80979
1193.12	3.48164
1194.74	5.67588
1196.36	6.37214
1197.97	7.29501
1199.59	8.22036
1201.21	9.91243
1202.83	11.186
1204.44	12.3278
1206.06	13.7888
1207.68	15.5729
1209.29	16.4829
1210.91	18.4906
1212.52	20.1067
1214.14	20.5975
1215.75	22.8207
1217.37	24.3188
1218.98	26.38
1220.59	28.8583
1222.21	30.147
1223.82	33.6557
1225.43	35.1736
1227.05	38.0465
1228.66	39.6013
1230.27	41.9954
1231.88	43.4488
1233.49	45.1645
1235.1	47.0209
1236.72	48.2067
1238.33	48.9475
1239.94	50.4649
1241.55	51.8181
1243.16	53.0767
1244.76	54.7326
1246.37	55.7401
1247.98	56.5616
1249.59	58.0708
1251.2	58.6565
1252.8	58.4475
1254.41	59.1039
1256.02	60.0291
1257.62	59.9164
1259.23	60.3906
1260.84	60.6687
1262.44	61.9912
1264.05	62.2885
1265.66	62.4939
1267.26	62.6248
1268.86	63.062
1270.47	63.6106
1272.07	64.7221
1273.67	64.8196
1275.28	65.892
1276.88	65.306
1278.48	65.8232
1280.09	65.7364
1281.69	67.149
1283.29	67.1104
1284.89	67.6177
1286.49	68.1228
1288.09	68.6012
1289.69	69.401
1291.29	70.9049
1292.89	71.3323
1294.49	73.2589
1296.09	74.9041
1297.69	75.3429
1299.29	76.6499
1300.89	77.5407
1302.49	77.8352
1304.08	78.6754
1305.68	78.0232
1307.28	79.3717
1308.88	80.083
1310.47	80.627
1312.07	80.882
1313.66	81.0514
1315.26	81.7955
1316.85	81.9219
1318.45	81.7827
1320.04	81.8711
1321.64	81.6729
1323.23	81.4258
1324.83	81.068
1326.42	80.7098
1328.01	80.7136
1329.61	80.1956
1331.2	79.5311
1332.79	79.4842
1334.38	78.6357
1335.97	77.6223
1337.56	76.2176
1339.16	74.9677
1340.75	73.6645
1342.34	72.0014
1343.93	69.9652
1345.52	67.3946
1347.11	65.0133
1348.7	62.5926
1350.29	61.3105
1351.87	59.5336
1353.46	56.2875
1355.05	53.9984
1356.64	52.9407
1358.22	51.8286
1359.81	50.3368
1361.4	49.2133
1362.98	47.2078
1364.57	46.3993
1366.16	44.7589
1367.74	43.6074
1369.33	43.0062
1370.91	42.2994
1372.5	41.1889
1374.08	41.4344
1375.67	39.914
1377.25	39.0844
1378.83	37.9752
1380.41	36.0188
1382	35.8927
1383.58	35.7691
1385.16	35.4422
1386.74	35.6294
1388.33	34.7954
1389.91	34.6077
1391.49	34.6355
1393.07	34.3438
1394.65	34.4662
1396.23	33.9329
1397.81	33.9968
1399.39	34.303
1400.97	34.4122
1402.55	33.5652
1404.13	34.1047
1405.7	35.0468
1407.28	35.7069
1408.86	35.6425
1410.44	36.0655
1412.01	35.5154
1413.59	35.8877
1415.17	36.5135
1416.74	37.3049
1418.32	38.5705
1419.89	40.3071
1421.47	41.6423
1423.04	43.0678
1424.62	45.2591
1426.19	48.7398
1427.77	51.3476
1429.34	55.1271
1430.91	57.3087
1432.49	60.2284
1434.06	63.484
1435.63	65.8266
1437.2	67.3124
1438.78	69.8818
1440.35	71.6887
1441.92	73.9624
1443.49	75.596
1445.06	76.9059
1446.63	78.1806
1448.2	79.6189
1449.77	80.1083
1451.34	80.127
1452.91	80.157
1454.48	78.6692
1456.05	76.629
1457.62	74.7068
1459.18	73.1297
1460.75	71.734
1462.32	68.9016
1463.89	66.1729
1465.45	63.1956
1467.02	60.6765
1468.59	57.2776
1470.15	54.2445
1471.72	50.6178
1473.28	47.1744
1474.85	44.4451
1476.41	41.607
1477.98	37.8895
1479.54	34.4449
1481.1	31.3021
1482.67	28.7168
1484.23	25.7407
1485.79	22.4785
1487.36	19.87
1488.92	18.3417
1490.48	15.0807
1492.04	13.7274
1493.61	11.7007
1495.17	11.285
1496.73	9.40564
1498.29	8.67956
1499.85	7.85828
1501.41	8.03145
1502.97	8.11033
1504.53	7.99137
1506.09	7.28343
1507.65	7.92918
1509.2	6.69345
1510.76	6.68993
1512.32	6.0061
1513.88	5.27174
1515.43	6.17391
1516.99	6.86985
1518.55	6.59213
1520.1	7.54937
1521.66	7.61481
1523.22	8.52316
1524.77	9.61831
1526.33	10.0867
1527.88	10.2245
1529.44	10.4145
1530.99	10.9282
1532.54	11.5938
1534.1	12.2379
1535.65	14.491
1537.21	15.1815
1538.76	16.1569
1540.31	17.2275
1541.86	18.9036
1543.42	20.5919
1544.97	21.9449
1546.52	23.4461
1548.07	25.7276
1549.62	27.0931
1551.17	29.74
1552.72	31.6379
1554.27	33.5643
1555.82	36.2313
1557.37	37.6638
1558.92	38.8497
1560.47	40.5765
1562.02	42.9311
1563.56	44.7021
1565.11	47.2553
1566.66	48.4572
1568.21	49.0334
1569.75	51.2645
1571.3	52.7247
1572.85	54.4549
1574.39	55.2776
1575.94	57.7978
1577.49	59.2108
1579.03	60.6426
1580.57	61.3418
1582.12	62.8696
1583.66	64.0103
1585.21	65.2797
1586.75	65.6716
1588.3	66.9937
1589.84	67.0483
1591.38	68.709
1592.92	68.9906
1594.47	69.5174
1596.01	69.2459
1597.55	69.7676
1599.09	69.3354
1600.63	69.0818
1602.17	68.8131
1603.71	68.1614
1605.25	67.855
1606.79	68.6041
1608.33	69.4226
1609.87	70.1031
1611.41	69.4156
1612.95	69.7451
1614.49	68.6456
1616.03	69.0823
1617.57	68.5822
1619.1	67.9109
1620.64	67.7477
1622.18	68.5337
1623.72	70.0382
1625.25	71.5587
1626.79	72.6619
1628.32	73.188
1629.86	74.0589
1631.39	75.2703
1632.93	75.8479
1634.46	76.1238
1636	78.0233
1637.53	79.3214
1639.07	80.5372
1640.6	81.5315
1642.13	82.9498
1643.67	84.2343
1645.2	86.0428
1646.73	87.5699
1648.26	88.948
1649.8	90.7355
1651.33	92.066
1652.86	92.9038
1654.39	93.1935
1655.92	93.5946
1657.45	93.4761
1658.98	93.7088
1660.51	93.0375
1662.04	91.9148
1663.57	91.0172
1665.1	89.039
1666.63	88.0462
1668.16	87.4818
1669.68	84.7583
1671.21	82.7676
1672.74	79.9444
1674.27	76.9493
1675.79	74.1434
1677.32	71.5827
1678.85	68.7833
1680.37	65.8777
1681.9	62.6648
1683.42	59.1758
1684.95	54.8254
1686.47	51.025
1688	47.5483
1689.52	43.4831
1691.05	39.8533
1692.57	35.8699
1694.09	32.4622
1695.62	30.695
1697.14	29.2268
1698.66	26.5911
1700.18	24.1396
1701.71	21.9152
1703.23	18.556
1704.75	15.4084
1706.27	13.6922
1707.79	11.2819
1709.31	9.7494
1710.83	9.21587
1712.35	8.43697
1713.87	7.57866
1715.39	7.4716
1716.91	6.32158
1718.43	6.12197
1719.95	6.44705
1721.47	5.79699
1722.99	5.72143
1724.5	5.13575
1726.02	4.77277
1727.54	4.02626
1729.06	4.3358
1730.57	5.11778
1732.09	5.23165
1733.61	5.33513
1735.12	5.54408
1736.64	6.13925
1738.15	6.17954
1739.67	6.72872
1741.18	7.12294
1742.7	7.90878
1744.21	7.41149
1745.72	6.27105
1747.24	5.77152
1748.75	5.53162
1750.26	5.59222
1751.77	5.65198
1753.29	5.05611
1754.8	4.62774
1756.31	4.2095
1757.82	3.38116
1759.33	2.389
1760.84	2.52389
1762.36	2.71313
1763.87	2.81218
1765.38	1.8902
1766.89	2.34227
1768.4	2.13129
1769.91	2.60645
1771.41	2.72593
1772.92	1.61847
1774.43	1.00037
1775.94	1.05198
1777.45	0.682797
1778.95	-0.103396
1780.46	-0.316644
1781.97	-0.252369
1783.48	-0.411926
1784.98	0.370061
1786.49	0.263473
1787.99	0.251144
1789.5	0.138534
1791.01	0.0850003
1792.51	-0.679415
1794.01	-0.55987
1795.52	-0.122502
1797.02	-0.583976
1798.53	-0.0687324
1800.03	-0.445416
1801.53	-0.031361
1803.04	0.563359
1804.54	1.62097
1806.04	1.59846
1807.54	1.00641
1809.05	1.62069
1810.55	1.24374
1812.05	1.76638
1813.55	1.95925
1815.05	2.30485
1816.55	2.62669
1818.05	2.69516
1819.55	2.49642
1821.05	2.77443
1822.55	3.40527
1824.05	3.65819
1825.55	3.61138
1827.05	3.22627
1828.55	3.47827
1830.04	3.64069
1831.54	3.68252
1833.04	3.77591
1834.54	3.60419
1836.03	3.42273
1837.53	3.19364
1839.03	3.71158
1840.52	3.41154
1842.02	3.46039
1843.51	3.47101
1845.01	3.13205
1846.5	3.12433
1848	2.8318
1849.49	2.95751
1850.99	2.37702
1852.48	2.37407
1853.97	2.81089
1855.47	3.27086
1856.96	3.18095
1858.45	3.98407
1859.94	4.32445
1861.44	3.5578
1862.93	3.52375
1864.42	3.69134
1865.91	3.46782
1867.4	2.64232
1868.89	2.72017
1870.38	2.66894
1871.87	2.76368
1873.36	3.70721
1874.85	3.81185
1876.34	4.05595
1877.83	3.87378
1879.32	3.61019
1880.81	4.05246
1882.3	3.79876
1882.57	4.64206
1884.07	4.73123
1885.56	5.18569
1887.06	5.68481
1888.55	5.19483
1890.04	4.96377
1891.54	4.73398
1893.03	4.77154
1894.52	5.24504
1896.02	5.53182
1897.51	5.37305
1899	5.40575
1900.49	5.33859
1901.98	4.83083
1903.47	4.88181
1904.96	4.71869
1906.45	4.32305
1907.94	3.80156
1909.43	3.42877
1910.92	3.69305
1912.41	3.58292
1913.9	3.23775
1915.39	3.90301
1916.88	3.83514
1918.37	3.49565
1919.85	3.39291
1921.34	3.63828
1922.83	4.06976
1924.32	4.16664
1925.8	4.85701
1927.29	5.22777
1928.78	5.19467
1930.26	5.17765
1931.75	5.57872
1933.23	5.0397
1934.72	4.82497
1936.2	4.77132
1937.69	4.98188
1939.17	4.62032
1940.66	4.25838
1942.14	4.44863
1943.63	4.87945
1945.11	5.33886
1946.59	5.4261
1948.07	5.03965
1949.56	4.92494
1951.04	4.76221
1952.52	6.09246
1954	5.48653
1955.48	4.15601
1956.96	4.45075
1958.45	3.66442
1959.93	3.64684
1961.41	3.45144
1962.89	3.13592
1964.37	3.54429
1965.85	3.63411
1967.32	3.04844
1968.8	2.91962
1970.28	2.28494
1971.76	1.89146
1973.24	1.62768
1974.72	0.830003
1976.19	0.560365
1977.67	1.05473
1979.15	1.19559
1980.63	0.907351
1982.1	0.676001
1983.58	0.781308
1985.05	0.888553
1986.53	1.29146
1988	1.76485
1989.48	1.93808
1990.95	1.11214
1992.43	1.70615
1993.9	1.8047
1995.38	2.53255
1996.85	2.38738
1998.32	2.31482
1999.8	2.28248
2001.27	2.3628
2002.74	2.38376
2004.22	2.29068
2005.69	2.36588
2007.16	2.34018
2008.63	2.37835
2010.1	3.06145
2011.57	3.86438
2013.04	3.75209
2014.51	3.86595
2015.98	4.48669
2017.45	5.14244
2018.92	5.24658
2020.39	6.17636
2021.86	6.53475
2023.33	6.39968
2024.8	6.57228
2026.27	6.59304
2027.74	5.93686
2029.2	7.08478
2030.67	7.67004
2032.14	8.25784
2033.61	9.18893
2035.07	9.60958
2036.54	9.81275
2038.01	9.63521
2039.47	9.73223
2040.94	10.15
2042.4	11.1532
2043.87	11.0127
2045.33	11.5928
2046.8	11.305
2048.26	11.2854
2049.72	11.8199
2051.19	12.2094
2052.65	11.5966
2054.12	11.3549
2055.58	11.7436
2057.04	11.5547
2058.5	12.0396
2059.97	12.2218
2061.43	12.0325
2062.89	12.7671
2064.35	12.703
2065.81	12.9971
2067.27	12.6543
2068.73	12.4394
2070.19	12.028
2071.65	12.4011
2073.11	12.2541
2074.57	12.3514
2076.03	12.8491
2077.49	12.9765
2078.95	13.4834
2080.41	13.7826
2081.87	14.0052
2083.32	14.0197
2084.78	14.2093
2086.24	14.6756
2087.7	15.8834
2089.15	16.1667
2090.61	16.5638
2092.07	16.9144
2093.52	18.2187
2094.98	18.4415
2096.43	19.2589
2097.89	20.1448
2099.34	21.4777
2100.8	23.1183
2102.25	23.8157
2103.71	24.7464
2105.16	27.0691
2106.61	28.2369
2108.07	29.6019
2109.52	30.2286
2110.97	31.6742
2112.43	33.4684
2113.88	34.7248
2115.33	35.3864
2116.78	36.4177
2118.23	38.4965
2119.68	39.6908
2121.13	41.3251
2122.59	42.4727
2124.04	44.185
2125.49	45.4451
2126.94	48.0808
2128.39	49.8768
2129.83	51.7148
2131.28	53.9571
2132.73	55.8089
2134.18	57.4668
2135.63	59.8354
2137.08	60.9897
2138.53	62.7124
2139.97	64.4311
2141.42	66.0488
2142.87	68.5984
2144.31	70.2877
2145.76	72.1529
2147.21	73.8384
2148.65	75.2198
2150.1	76.627
2151.54	78.6616
2152.99	80.295
2154.43	81.9063
2155.88	84.4613
2157.32	86.6517
2158.77	88.2534
2160.21	88.9054
2161.65	89.9327
2163.1	91.4145
2164.54	92.8584
2165.98	94.1796
2167.43	94.7806
2168.87	95.1187
2170.31	95.5721
2171.75	96.1129
2173.19	96.3169
2174.64	96.1809
2176.07	96.4528
2177.52	95.8421
2178.96	94.6002
2180.4	93.6737
2181.84	92.5753
2183.28	91.8294
2184.72	91.2795
2186.15	89.5986
2187.59	88.3017
2189.03	87.7188
2190.47	86.1392
2191.91	84.497
2193.35	82.9958
2194.78	81.3967
2196.22	80.2875
2197.66	78.1062
2199.09	76.5048
2200.53	74.113
2201.97	71.4716
2203.4	69.5476
2204.84	67.718
2206.27	65.9616
2207.71	64.5596
2209.14	62.3613
2210.58	60.0816
2212.01	58.0619
2213.45	55.8032
2214.88	53.663
2216.31	51.1629
2217.75	49.4873
2219.18	47.4407
2220.61	46.0223
2222.05	44.3639
2223.48	43.8078
2224.91	42.3494
2226.34	41.0723
2227.78	40.2119
2229.21	37.986
2230.64	36.9089
2232.07	35.6627
2233.5	34.6374
2234.93	33.6753
2236.36	32.4723
2237.79	31.3119
2239.22	30.541
2240.65	29.3149
2242.08	28.7678
2243.5	28.1028
2244.93	27.8379
2246.36	27.0273
2247.79	26.2286
2249.22	25.6225
2250.64	26.0144
2252.07	25.5607
2253.5	25.35
2254.92	24.9898
2256.35	24.5893
2257.78	23.9671
2259.2	23.8507
2260.63	23.3646
2262.05	22.6073
2263.48	22.879
2264.9	21.9487
2266.33	21.8351
2267.75	20.6238
2269.18	19.5774
2270.6	19.097
2272.02	19.0371
2273.45	18.2399
2274.87	18.7134
2276.29	18.2112
2277.71	17.9661
2279.14	17.3864
2280.56	16.2425
2281.98	14.9949
2283.4	13.8747
2284.82	12.9756
2286.24	12.9161
2287.66	12.697
2289.08	12.2445
2290.5	11.2428
2291.92	9.87735
2293.34	8.93941
2294.76	9.43937
2296.18	8.54655
2297.6	8.31497
2299.02	8.34108
2300.44	8.70283
2301.86	8.87137
2303.27	9.27681
2304.69	9.46309
2306.11	10.0796
2307.53	9.8906
2308.94	10.0811
2310.36	10.5577
2311.78	10.1927
2313.19	10.3439
2314.61	10.2212
2316.02	10.4823
2317.44	10.1482
2318.85	10.0214
2320.27	10.3558
2321.68	10.0427
2323.1	9.06264
2324.51	8.77741
2325.92	8.35732
2327.34	8.06382
2328.75	7.74395
2330.16	7.14295
2331.58	7.17926
2332.99	7.82529
2334.4	7.30026
2335.81	6.66399
2337.23	6.64003
2338.64	5.81248
2340.05	6.06464
2341.46	6.08107
2342.87	5.65897
2344.28	5.072
2345.69	5.22365
2347.1	4.7293
2348.51	4.76055
2349.92	4.00041
2351.33	2.95374
2352.74	2.84207
2354.15	2.55249
2355.55	2.36195
2356.96	2.2106
2358.37	1.41537
2359.78	1.15498
2361.19	0.758457
2362.59	0.666935
2364	1.5553
2365.41	2.21707
2366.81	2.44957
2368.22	2.92774
2369.62	3.15517
2371.03	3.24463
2372.44	2.57822
2373.84	2.87068
2375.24	2.62954
2376.65	2.22193
2378.05	2.39137
2379.46	2.42336
2380.86	1.69615
2382.26	1.35672
2383.67	1.04822
2385.07	1.13792
2386.47	1.35718
2387.88	1.17759
2389.28	0.275527
2390.68	-0.0566616
2392.08	-0.461202
2393.48	-0.764603
2394.89	-0.388714
2396.29	-0.249327
2397.69	-0.14724
2399.09	-0.380049
2400.49	0.0848088
2401.89	0.521648
2403.29	0.53512
2404.69	0.360564
2406.09	-0.185267
2407.48	0.419993
2408.88	0.979204
2410.28	0.993849
2411.68	0.809455
2413.08	0.953795
2414.48	1.55866
2415.87	1.72317
2417.27	1.88788
2418.67	2.52431
2420.06	2.85922
2421.46	2.99293
2422.86	3.28959
2424.25	3.25662
2425.65	3.0522
2427.04	3.35999
2428.44	2.99408
2429.83	2.79065
2431.23	2.72648
2432.62	2.93021
2434.02	3.01772
2435.41	2.92811
2436.81	2.83628
2438.2	2.68094
2439.59	2.9985
2440.99	2.71077
2442.38	3.5347
2443.77	3.52683
2445.16	3.4326
2446.56	3.05991
2447.95	3.15832
2449.34	2.66488
2450.73	2.37112
2452.12	2.37994
2453.51	2.63157
2454.9	3.049
2456.29	2.77607
2457.68	2.53552
2459.07	2.36752
2460.46	3.07576
2461.85	3.16689
2463.24	2.97923
2464.63	3.43296
2466.02	3.4038
2467.4	3.35807
2468.79	3.65898
2470.18	4.00721
2471.57	3.87039
2472.95	4.08302
2474.34	3.92219
2475.73	3.4073
2477.12	5.02752
2478.5	4.48185
2479.89	3.86658
2481.27	3.52397
2482.66	3.87633
2484.04	3.84957
2485.43	3.71757
2486.81	3.32425
2488.2	3.28405
2489.58	2.6946
2490.97	2.50131
2492.35	2.34581
2493.73	1.93134
2495.12	1.62152
2496.5	1.64852
2497.88	0.784397
2499.27	0.702807
2500.65	1.12161
2502.03	1.00016
2503.41	0.868269
2504.79	1.11687
2506.17	1.33653
2507.56	0.954345
2508.94	0.714339
2510.32	0.166492
2511.7	0.425459
2513.08	-0.377634
2514.46	-0.194774
2515.84	-0.218655
2517.22	0.775961
2518.59	0.649281
2519.97	1.04994
2521.35	1.09305
2522.73	1.98703
2524.11	2.24426
2525.49	2.03832
2526.86	2.7367
2528.24	3.03822
2529.62	2.87212
2530.99	2.95124
2532.37	3.66439
2533.75	4.35891
2535.12	4.50801
2536.5	4.6014
2537.88	5.30866
2539.25	4.90907
2540.63	5.52403
2542	6.25308
2543.38	6.64492
2544.75	7.23419
2546.12	7.66738
2547.5	7.43172
2548.87	7.60951
2550.24	7.47755
2551.62	8.03212
2552.99	7.79229
2554.36	8.22913
2555.74	8.2943
2557.11	9.05552
2558.48	9.2486
2559.85	9.46136
2561.22	9.38738
2562.59	9.7359
2563.96	9.78487
2565.34	9.70174
2566.71	9.17506
2568.08	9.71606
2569.45	9.91721
2570.82	9.69762
2572.18	9.65689
2573.55	9.30488
2574.92	8.99759
2576.29	8.5128
2577.66	8.79031
2579.03	8.93401
2580.4	9.12978
2581.77	8.83298
2583.13	8.76552
2584.5	9.17592
2585.87	9.31789
2587.23	8.77901
2588.6	8.69082
2589.97	8.35765
2591.33	8.31447
2592.7	8.00048
2594.06	7.86178
2595.43	8.20054
2596.79	7.41279
2598.16	7.30079
2599.52	7.18305
2600.89	7.28383
2602.25	7.07843
2603.62	7.14006
2604.98	7.45
2606.34	7.72675
2607.71	7.71425
2609.07	8.90397
2610.43	8.67912
2611.79	8.20782
2613.16	7.56285
2614.52	6.94674
2615.88	6.96022
2617.24	7.01735
2618.6	7.20042
2619.96	7.59957
2621.32	8.01785
2622.68	8.63308
2624.04	8.50564
2625.4	8.51487
2626.76	8.35732
2628.12	8.37733
2629.48	9.09692
2630.84	9.21444
2632.2	9.14713
2633.56	9.45815
2634.92	9.10342
2636.28	10.1814
2637.63	9.96322
2638.99	10.021
2640.35	10.1068
2641.71	9.8311
2643.06	9.84113
2644.42	9.93165
2645.77	10.0824
2647.13	10.1019
2648.49	10.1707
2649.84	9.73345
2651.2	9.78804
2652.55	9.9806
2653.91	10.0085
2655.26	10.2025
2656.62	10.102
2657.97	10.1629
2659.33	10.3042
2660.68	10.6715
2662.03	10.9104
2663.39	11.1777
2664.74	11.1098
2666.09	11.381
2667.44	11.4515
2668.8	11.8591
2670.15	12.2402
2671.5	12.4134
2672.85	12.4775
2674.2	12.1654
2675.55	12.2554
2676.91	11.9162
2678.26	11.0044
2679.61	11.0743
2680.96	10.7092
2682.31	10.7963
2683.66	11.4433
2685	11.3003
2686.35	11.0884
2687.7	11.0729
2689.05	10.8263
2690.4	10.5812
2691.75	10.3465
2693.1	10.735
2694.44	10.8885
2695.79	10.6989
2697.14	11.0692
2698.49	11.1702
2699.83	11.2006
2701.18	11.3019
2702.52	11.3671
2703.87	11.6194
2705.22	11.608
2706.56	11.6908
2707.91	11.9476
2709.25	11.5125
2710.6	11.6177
2711.94	11.8087
2713.29	12.2538
2714.63	12.1608
2715.97	12.0856
2717.32	12.2455
2718.66	12.5847
2720.01	13.1188
2721.35	13.6597
2722.69	13.7186
2724.03	13.8185
2725.38	14.3229
2726.72	14.5206
2728.06	14.9009
2729.4	15.2348
2730.74	15.8585
2732.08	16.0464
2733.42	15.8603
2734.76	15.6725
2736.1	15.4159
2737.44	15.4063
2738.78	15.2016
2740.12	14.5369
2741.46	13.669
2742.8	13.8261
2744.14	13.2049
2745.48	13.2008
2746.82	13.2394
2748.16	12.5035
2749.49	12.6553
2750.83	12.5307
2752.17	11.5449
2753.51	11.3952
2754.84	11.6514
2756.18	11.6846
2757.52	11.7336
2758.85	11.9641
2760.19	11.7261
2761.53	11.2898
2762.86	11.192
2764.2	11.0898
2765.53	11.2506
2766.87	10.7839
2768.2	10.2538
2769.54	9.71228
2770.87	9.35836
2772.2	9.19267
2773.54	8.24139
2774.87	8.21947
2776.2	7.56407
2777.54	7.75607
2778.87	7.42696
2780.2	7.59241
2781.53	7.68558
2782.87	7.83191
2784.2	8.42667
2785.53	7.79424
2786.86	7.37606
2788.19	6.74781
2789.52	6.611
2790.85	6.17191
2792.18	5.73057
2793.51	5.09175
2794.84	4.97148
2796.17	5.00676
2797.5	5.19406
2798.83	4.45527
2800.16	3.63752
2801.49	3.28795
2802.82	3.17597
2804.15	3.25384
2805.47	2.72195
2806.8	2.38841
2808.13	2.14582
2809.46	2.30579
2810.78	1.98443
2812.11	1.8744
2813.44	2.043
2814.76	1.68045
2816.09	1.97341
2817.42	2.00498
2818.74	2.32349
2820.07	3.97103
2821.39	5.13098
2822.72	5.63218
2824.04	6.8719
2825.37	8.67206
2826.69	9.41162
2828.02	11.3339
2829.34	12.464
2830.66	14.1235
2831.99	16.1743
2833.31	18.0615
2834.63	20.1835
2835.96	22.6079
2837.28	25.2604
2838.6	28.0217
2839.92	30.7017
2841.24	33.6082
2842.57	35.7147
2843.89	38.8494
2845.21	42.2185
2846.53	45.9528
2847.85	49.2032
2849.17	51.8405
2850.49	55.086
2851.81	58.4894
2853.13	62.462
2854.45	66.0999
2855.77	70.4715
2857.09	73.7294
2858.41	77.939
2859.72	82.3038
2861.04	86.9781
2862.36	90.9699
2863.68	95.0391
2865	98.1863
2866.31	101.101
2867.63	104.077
2868.95	106.998
2870.26	109.787
2871.58	112.253
2872.9	114.906
2874.21	116.73
2875.53	119.046
2876.84	120.868
2878.16	122.517
2879.47	124.59
2880.79	126.298
2882.1	128.604
2883.42	130.664
2884.73	132.577
2886.05	134.688
2887.36	136.424
2888.67	139.144
2889.99	141.466
2891.3	143.637
2892.61	145.931
2893.92	148.29
2895.24	149.355
2896.55	151.774
2897.86	154.484
2899.17	157.22
2900.48	159.971
2901.79	162.487
2903.11	165.966
2904.42	170.047
2905.73	173.606
2907.04	177.64
2908.35	182.712
2909.66	188.66
2910.97	194.706
2912.27	199.565
2913.58	204.834
2914.89	210.19
2916.2	216.234
2917.51	221.786
2918.82	225.974
2920.13	230.47
2921.43	235.202
2922.74	238.819
2924.05	242.884
2925.35	245.699
2926.66	248.946
2927.97	250.699
2929.27	252.4
2930.58	252.645
2931.89	252.955
2933.19	254.031
2934.5	254.131
2935.8	253.636
2937.11	252.045
2938.41	249.789
2939.72	247.142
2941.02	244.583
2942.32	241.807
2943.63	238.604
2944.93	235.504
2946.24	232.024
2947.54	227.78
2948.84	223.444
2950.14	218.587
2951.45	213.734
2952.75	209.531
2954.05	204.436
2955.35	198.775
2956.65	194.164
2957.95	188.832
2959.26	182.615
2960.56	176.757
2961.86	172.318
2963.16	167.277
2964.46	162.905
2965.76	158.827
2967.06	154.421
2968.36	150.853
2969.66	146.799
2970.96	142.835
2972.25	139.507
2973.55	136.7
2974.85	133.093
2976.15	128.667
2977.45	124.425
2978.74	120.902
2980.04	116.59
2981.34	112.732
2982.64	108.168
2983.93	103.752
2985.23	99.9292
2986.52	96.0813
2987.82	91.6234
2989.12	87.1472
2990.41	82.1643
2991.71	78.083
2993	73.1439
2994.3	68.7543
2995.59	64.0613
2996.89	60.5836
2998.18	57.1216
2999.48	53.574
3000.77	49.687
3002.06	45.691
3003.36	42.5229
3004.65	39.7676
3005.94	36.643
3007.23	33.7874
3008.53	31.0499
3009.82	28.6593
3011.11	25.9239
3012.4	23.1357
3013.69	21.3206
3014.99	19.6428
3016.28	18.1734
3017.57	17.224
3018.86	15.2848
3020.15	13.9887
3021.44	12.8755
3022.73	11.3924
3024.02	10.2234
3025.31	9.57585
3026.6	9.52814
3027.89	9.55157
3029.18	10.0978
3030.46	10.0618
3031.75	10.1766
3033.04	10.4593
3034.33	11.0758
3035.62	11.9493
3036.9	12.6803
3038.19	13.2564
3039.48	13.4138
3040.76	14.007
3042.05	15.1468
3043.34	15.2504
3044.62	15.5503
3045.91	16.2554
3047.19	16.5843
3048.48	17.0993
3049.77	17.1165
3051.05	17.2377
3052.34	16.4326
3053.62	16.2707
3054.9	16.2205
3056.19	17.0414
3057.47	17.4219
3058.76	17.8459
3060.04	17.7213
3061.32	18.3677
3062.61	18.6736
3063.89	18.9352
3065.17	18.1742
3066.45	17.7799
3067.74	17.3896
3069.02	17.2322
3070.3	16.3404
3071.58	16.2842
3072.86	15.5384
3074.14	14.7112
3075.42	13.915
3076.7	13.4455
3077.99	13.0243
3079.26	12.2199
3080.54	10.8197
3081.82	9.98489
3083.1	8.72831
3084.38	7.81886
3085.66	7.20888
3086.94	6.64138
3088.22	5.81315
3089.5	5.17355
3090.78	5.05507
3092.05	4.52253
3093.33	4.46233
3094.61	4.42711
3095.89	4.12787
3097.16	3.36639
3098.44	3.2614
3099.72	2.7379
3100.99	1.96764
3102.27	1.81522
3103.54	1.61793
3104.82	1.61864
3106.1	1.08431
3107.37	1.2132
3108.65	1.48304
3109.92	1.4762
3111.2	1.83025
3112.47	2.07434
3113.74	2.0926
3115.02	3.17163
3116.29	3.82236
3117.56	4.74229
3118.84	5.39468
3120.11	6.20653
3121.38	6.64298
3122.66	7.05592
3123.93	7.66313
3125.2	8.78438
3126.47	9.62835
3127.74	10.3894
3129.01	10.6546
3130.29	11.6132
3131.56	12.512
3132.83	13.5831
3134.1	13.67
3135.37	14.6021
3136.64	14.9368
3137.91	15.8216
3139.18	16.4385
3140.45	16.9503
3141.72	17.4331
3142.99	17.9544
3144.26	18.4497
3145.52	18.8856
3146.79	19.5028
3148.06	19.9763
3149.33	19.9996
