#Acq. time (s)=	45
#Accumulations=	2
#Range (cm-¹)=	200...3150
#Windows=	2
#Auto scanning=	Off
#Autofocus=	Off
#Macrospot=	Off
#AutoExposure=	Off
#Spike filter=	Multiple accum.
#Delay time (s)=	0
#Binning=	1
#Readout mode=	Signal
#DeNoise=	Off
#ICS correction=	On
#Dark correction=	Off
#Inst. Process=	Off
#Detector Gain=	Best Dynamic Range
#Detector ADC=	20 kHz       
#Detector temperature (°C)=	-69.85
#Instrument=	LabRAM HR Evol
#Detector=	Synapse
#Objective=	x100
#Grating=	600 gr/mm
#ND Filter=	100%
#Laser (nm)=	532 
#Hole=	100.021
#Range=	Auto
#Laser Pol.=	No
#Raman. Pol.=	No
#Laser Pol. (°)=	-0.0007625
#Raman Pol. (°)=	89.9995
#Collection=	Microscope
#StageXY=	Marzhauser
#StageZ=	Marzhauser
#X (µm)=	4755.3
#Y (µm)=	-7726.3
#Z (µm)=	584.35
#Full time(mm:ss)=	3:18
#Project=	
#Sample=	
#Site=	
#Title=	Thy_30_10_17_2x_45s_532 nm_x100_100%_600 gr_mm
#Remark=	
#Date=	30.06.2022 12:40
#Acquired=	30.06.2022 12:40:31
#Base:Fit=	10.08.2022 09:58:11
#Base:Sub=	10.08.2022 09:58:44
#Filter:Polynom=	16.08.2022 10:22:53
#AxisType[0]=Intens
#AxisUnit[0]=Cnt
#AxisType[1]=Spectr
#AxisUnit[1]=1/cm
200.533	5.20856
202.348	3.30516
204.162	3.32353
205.976	2.84839
207.792	3.2803
209.605	4.10904
211.418	4.8474
213.23	5.32824
215.044	5.81992
216.856	7.31782
218.667	7.91248
220.478	7.72467
222.289	7.4035
224.102	7.40615
225.912	8.23331
227.721	8.43591
229.531	9.16005
231.34	9.5791
233.148	10.1222
234.956	10.365
236.766	10.6877
238.574	10.609
240.381	10.5687
242.188	10.6783
243.994	11.6121
245.801	12.8898
247.606	13.4152
249.412	14.2946
251.217	14.6369
253.024	16.3087
254.828	16.5241
256.632	17.2557
258.436	16.6183
260.239	15.8683
262.042	15.875
263.845	15.2317
265.647	15.097
267.449	14.829
269.25	13.6068
271.052	13.9489
272.852	13.1927
274.653	13.6124
276.453	13.6678
278.253	14.2127
280.052	13.1718
281.852	13.3294
283.65	13.609
285.449	13.8628
287.247	14.6871
289.044	15.2797
290.842	15.5803
292.639	16.3406
294.436	16.6932
296.232	17.8337
298.028	18.311
299.821	18.1127
301.617	18.0995
303.412	17.9913
305.206	18.8268
307	19.9592
308.794	19.8892
310.588	19.9334
312.381	19.5621
314.172	20.301
315.964	21.3874
317.756	21.5954
319.548	22.2144
321.34	22.8108
323.131	22.9857
324.921	23.5773
326.71	23.9818
328.5	24.3579
330.29	24.4934
332.079	25.1136
333.868	25.7913
335.654	26.6751
337.443	25.5043
339.231	25.7245
341.018	25.4749
342.804	25.2789
344.591	24.4178
346.377	23.8527
348.163	22.7111
349.947	22.7275
351.733	22.29
353.518	22.052
355.303	21.7656
357.085	21.2586
358.869	21.3256
360.653	21.8677
362.435	21.6357
364.218	21.44
366.001	20.3992
367.781	19.5678
369.563	19.4872
371.345	20.3103
373.124	19.7725
374.905	20.0135
376.686	20.3288
378.464	20.2603
380.244	19.3396
382.022	18.9183
383.801	18.4918
385.58	17.9824
387.357	17.5494
389.135	16.8686
390.911	16.4509
392.689	15.6649
394.466	15.2651
396.241	14.2783
398.018	13.3292
399.792	12.4999
401.568	12.2783
403.341	13.3161
405.117	12.9894
406.889	12.6353
408.664	12.8113
410.436	12.9828
412.21	12.8604
413.981	12.6222
415.755	12.607
417.525	12.3992
419.298	12.1644
421.068	12.3358
422.84	12.5583
424.609	12.7677
426.38	11.8682
428.149	12.1486
429.919	11.7584
431.688	11.617
433.455	11.5894
435.225	12.3634
436.992	12.1203
438.76	11.9656
440.527	11.2747
442.293	11.8665
444.06	11.6612
445.826	11.2756
447.593	11.3834
449.357	11.4705
451.122	11.3729
452.888	11.6599
454.651	11.9285
456.415	12.1214
458.18	13.7269
459.942	14.5185
461.705	14.0025
463.469	14.6469
465.23	14.5853
466.991	13.897
468.752	13.571
470.515	13.294
472.275	14.391
474.035	14.5285
475.797	14.8036
477.556	14.657
479.315	13.9821
481.073	14.5148
482.834	14.5448
484.592	15.9886
486.349	17.7946
488.106	18.3042
489.863	18.8164
491.622	18.7144
493.378	18.8556
495.134	19.2008
496.889	19.3871
498.645	19.7658
500.401	20.7767
502.156	20.8149
503.91	20.97
505.664	20.5468
507.417	20.2125
509.171	20.3477
510.923	20.8343
512.678	20.6125
514.43	20.6445
516.182	20.4856
517.933	20.2697
519.684	20.0356
521.435	19.54
523.186	19.5515
524.936	18.4174
526.686	18.709
528.435	18.869
530.184	18.6753
531.933	17.8324
533.682	17.4688
535.43	17.4252
537.18	17.0353
538.927	17.0947
540.674	17.0368
542.421	16.1254
544.167	15.7156
545.913	15.5089
547.659	13.4206
549.403	12.4546
551.148	11.9332
552.893	11.771
554.637	10.7979
556.381	10.0821
558.125	9.42811
559.868	9.7875
561.611	8.3973
563.354	7.63911
565.097	7.24727
566.839	6.61111
568.581	6.36438
570.322	5.8
572.063	5.13934
573.802	3.35938
575.542	2.48452
577.283	2.27115
579.022	1.60961
580.762	1.19152
582.501	1.51602
584.24	1.94314
585.976	1.7488
587.714	1.38989
589.452	0.14414
591.19	-0.384465
592.927	0.0412976
594.663	0.295236
596.398	1.05582
598.134	1.2216
599.87	1.3301
601.605	1.57679
603.338	1.3145
605.073	2.30203
606.808	2.68815
608.542	3.94712
610.274	4.11454
612.007	5.20491
613.74	5.83116
615.473	6.33957
617.204	6.72431
618.936	6.72971
620.668	7.08561
622.397	7.69187
624.128	8.30729
625.859	8.72091
627.588	8.68016
629.318	8.92442
631.048	9.28217
632.775	9.80011
634.505	10.3705
636.233	11.7272
637.96	12.805
639.688	13.4316
641.416	13.3391
643.142	13.7754
644.869	14.7221
646.594	15.4751
648.32	15.6895
650.045	15.6146
651.771	16.5175
653.496	16.8514
655.219	16.8808
656.944	17.4955
658.667	17.7582
660.391	19.5081
662.113	20.8219
663.837	20.964
665.558	21.6294
667.281	21.8785
669.002	22.8585
670.724	22.7794
672.444	22.7405
674.166	23.4745
675.885	24.2033
677.606	24.6782
679.325	24.902
681.045	26.3017
682.763	27.4975
684.483	28.0881
686.2	27.9066
687.917	27.1323
689.636	27.3548
691.352	28.9401
693.07	28.7175
694.786	29.7898
696.501	29.2574
698.219	30.089
699.933	30.1967
701.65	30.9878
703.364	31.6117
705.078	32.2156
706.793	33.4087
708.506	34.2096
710.219	34.8626
711.934	35.4247
713.646	36.625
715.358	36.5122
717.071	37.4644
718.782	38.3069
720.493	38.085
722.204	38.9861
723.916	39.6353
725.626	40.22
727.336	40.9426
729.045	41.2964
730.756	42.3135
732.464	42.3165
734.173	42.4874
735.881	44.0082
737.59	45.9125
739.297	47.5231
741.004	47.451
742.711	48.1465
744.417	48.7878
746.125	49.5929
747.831	49.2303
749.537	50.1065
751.242	51.3615
752.946	51.499
754.651	52.1937
756.357	53.114
758.061	54.3243
759.764	55.0494
761.467	56.672
763.17	57.755
764.872	58.7469
766.575	60.2653
768.276	60.199
769.978	59.8068
771.679	59.749
773.382	61.1343
775.083	63.2308
776.783	64.0867
778.483	64.994
780.182	66.2207
781.882	67.1028
783.581	68.6443
785.279	69.9488
786.978	71.2238
788.676	71.7534
790.373	72.6572
792.071	72.8508
793.768	73.6109
795.464	74.162
797.161	75.3062
798.857	75.2762
800.552	74.9082
802.248	75.4569
803.941	74.9874
805.636	75.0359
807.33	75.8718
809.024	75.1115
810.718	75.0281
812.412	75.2094
814.105	75.8607
815.798	76.3821
817.49	75.8835
819.183	76.3092
820.873	75.7839
822.564	74.9982
824.256	74.3929
825.947	72.6369
827.637	72.4489
829.328	71.0778
831.016	70.6993
832.705	69.3347
834.395	68.4706
836.084	68.0759
837.772	67.5928
839.459	67.076
841.147	67.1877
842.835	65.9828
844.522	65.2613
846.209	65.8718
847.894	64.5279
849.581	63.1572
851.267	61.6001
852.953	60.24
854.637	59.6477
856.322	59.8289
858.007	59.3947
859.689	57.8433
861.374	56.8774
863.058	56.6333
864.739	56.0634
866.423	55.4467
868.106	54.7649
869.787	53.3381
871.469	52.3235
873.151	51.4384
874.831	51.1523
876.512	50.4817
878.193	50.5669
879.872	49.8314
881.553	49.5829
883.231	47.5541
884.911	46.9647
886.591	46.8289
888.268	46.3978
889.947	45.8754
891.623	45.344
893.302	45.3081
894.978	45.2292
896.656	44.5428
898.331	43.5387
900.008	42.4411
901.683	42.7216
903.359	42.1708
905.033	40.9566
906.709	41.2813
908.383	41.507
910.058	40.4455
911.731	40.1004
913.405	39.8043
915.078	41.2484
916.752	41.0672
918.423	41.7219
920.096	42.5533
921.768	42.3275
923.438	40.9115
925.111	40.1984
926.781	39.5817
928.452	40.1682
930.122	39.8296
931.791	38.3398
933.462	37.2451
935.13	36.7707
936.799	36.6142
938.468	36.5258
940.136	35.9339
941.803	35.1119
943.472	33.6956
945.139	33.6382
946.805	33.7463
948.473	33.4866
950.139	33.2833
951.804	33.4551
953.471	33.7334
955.136	34.3735
956.801	34.0216
958.465	33.0752
960.131	32.4788
961.794	31.4661
963.458	31.1788
965.12	31.4433
966.785	31.4168
968.447	31.9737
970.109	31.8876
971.771	30.9009
973.432	31.2111
975.095	30.4484
976.756	31.1359
978.417	30.6658
980.077	31.1868
981.737	31.8187
983.396	32.4162
985.057	32.5189
986.716	31.8571
988.375	32.0584
990.033	31.8593
991.691	31.8314
993.349	32.2351
995.006	32.7658
996.663	33.1466
998.32	33.2148
999.976	32.2653
1001.63	31.8812
1003.29	30.8338
1004.95	29.6869
1006.6	29.9508
1008.26	30.5029
1009.91	30.333
1011.56	30.5127
1013.22	29.756
1014.87	29.6296
1016.53	29.0364
1018.18	28.8038
1019.83	27.9579
1021.48	27.6368
1023.14	27.7648
1024.79	27.4864
1026.44	26.9338
1028.09	26.9958
1029.74	27.0497
1031.39	27.1693
1033.04	27.5241
1034.69	26.553
1036.34	25.9946
1037.99	25.3579
1039.64	23.4247
1041.29	22.5679
1042.94	22.514
1044.58	22.0309
1046.23	22.6348
1047.88	22.4566
1049.52	21.7246
1051.17	20.1176
1052.82	19.2743
1054.46	18.9725
1056.11	17.5358
1057.75	15.5531
1059.4	14.9404
1061.04	13.2884
1062.69	12.0978
1064.33	10.7484
1065.98	9.37789
1067.62	7.58095
1069.26	6.67985
1070.9	6.07259
1072.55	4.96752
1074.19	5.42576
1075.83	6.23336
1077.47	4.66342
1079.11	4.85881
1080.76	4.52074
1082.4	4.97489
1084.04	4.71625
1085.68	3.16603
1087.32	3.27122
1088.95	3.86748
1090.59	4.64906
1092.23	5.11297
1093.87	6.44256
1095.51	7.0408
1097.15	8.37615
1098.78	8.86712
1100.42	10.6412
1102.06	11.2827
1103.69	12.7829
1105.33	14.4442
1106.97	15.3776
1108.6	16.4276
1110.24	16.8554
1111.87	18.5158
1113.51	20.4305
1115.14	21.1465
1116.77	21.6702
1118.41	22.4762
1120.04	22.7198
1121.67	21.6115
1123.31	22.2198
1124.94	22.1356
1126.57	21.3096
1128.2	20.8922
1129.83	20.271
1131.47	19.2818
1133.1	18.8035
1134.72	18.6381
1136.36	17.693
1137.98	16.6887
1139.62	16.4468
1141.24	15.5936
1142.87	14.7181
1144.5	14.1704
1146.13	13.8659
1147.76	13.0155
1149.38	11.9001
1151.01	11.3896
1152.64	11.116
1154.27	10.6408
1155.89	10.436
1157.52	9.7934
1159.14	8.08905
1160.77	8.03209
1162.39	6.92202
1164.02	5.95792
1165.64	3.88348
1167.27	3.4188
1168.89	4.33743
1170.51	5.06427
1172.14	6.29091
1173.76	6.1353
1175.38	6.03648
1177	6.08104
1178.63	6.7899
1180.25	7.2877
1181.87	8.79442
1183.49	8.44479
1185.11	9.78344
1186.73	10.0452
1188.35	10.6627
1189.97	11.6187
1191.59	11.7322
1193.21	12.2777
1194.83	13.3972
1196.45	12.8882
1198.07	12.9556
1199.68	12.9059
1201.3	12.7082
1202.92	13.3585
1204.53	14.3179
1206.15	14.5269
1207.77	15.6661
1209.38	17.6583
1211	18.7675
1212.62	19.2515
1214.23	20.0972
1215.84	21.4687
1217.46	22.1867
1219.07	23.9543
1220.69	23.9898
1222.3	25.356
1223.91	26.591
1225.53	28.3381
1227.14	28.6336
1228.75	28.3128
1230.36	28.2174
1231.97	29.5448
1233.59	30.3797
1235.2	31.0045
1236.81	31.2969
1238.42	31.7975
1240.03	30.8017
1241.64	30.6948
1243.25	31.3969
1244.85	31.5468
1246.46	31.9852
1248.07	33.3493
1249.68	34.2444
1251.29	35.7322
1252.9	37.2294
1254.5	38.0145
1256.11	38.6998
1257.72	39.3767
1259.32	40.2495
1260.93	41.0022
1262.54	41.497
1264.14	40.659
1265.75	40.6676
1267.35	40.7805
1268.96	40.9928
1270.56	40.6064
1272.16	40.5436
1273.77	41.1401
1275.37	40.9037
1276.97	40.761
1278.57	41.7751
1280.18	42.921
1281.78	44.3522
1283.38	46.155
1284.98	47.2095
1286.58	47.5742
1288.18	49.0018
1289.78	49.5184
1291.38	49.31
1292.99	49.3541
1294.58	50.3413
1296.18	50.8759
1297.78	50.95
1299.38	51.9412
1300.98	51.6462
1302.58	52.0582
1304.17	50.8905
1305.77	50.8851
1307.37	50.4404
1308.97	50.6391
1310.56	51.3413
1312.16	52.3161
1313.76	52.5979
1315.35	53.1698
1316.95	52.7917
1318.54	52.8297
1320.14	52.8611
1321.73	53.7835
1323.32	54.4214
1324.92	54.6279
1326.51	55.1608
1328.1	55.5827
1329.7	56.0896
1331.29	57.0735
1332.88	57.2958
1334.47	56.495
1336.07	56.6569
1337.66	56.2853
1339.25	55.5594
1340.84	55.1514
1342.43	53.8371
1344.02	52.9897
1345.61	52.7134
1347.2	52.8904
1348.79	51.8799
1350.37	50.8274
1351.96	50.5736
1353.55	49.541
1355.14	48.6483
1356.73	48.2616
1358.31	47.7581
1359.9	47.7741
1361.49	47.0253
1363.07	46.0077
1364.66	44.5051
1366.25	43.0731
1367.83	41.7964
1369.42	40.3502
1371	38.9973
1372.59	37.9892
1374.17	38.1988
1375.75	37.6085
1377.34	37.076
1378.92	36.3787
1380.5	35.3075
1382.09	34.2898
1383.67	32.7446
1385.25	32.5504
1386.83	31.4886
1388.42	30.767
1390	28.7467
1391.58	28.0023
1393.16	26.7149
1394.74	25.5354
1396.32	24.1995
1397.9	24.2334
1399.48	23.7658
1401.06	22.3044
1402.64	22.5573
1404.21	22.2056
1405.79	21.7676
1407.37	21.9196
1408.95	23.0835
1410.53	23.8047
1412.1	23.8374
1413.68	24.3298
1415.26	25.0986
1416.83	25.3856
1418.41	25.8932
1419.98	27.8011
1421.56	29.3473
1423.13	31.2356
1424.71	33.5759
1426.28	35.3108
1427.86	36.6879
1429.43	38.5069
1431	41.0994
1432.58	43.1498
1434.15	44.5831
1435.72	46.9403
1437.29	49.5343
1438.87	52.689
1440.44	53.2688
1442.01	54.2026
1443.58	54.8459
1445.15	56.4172
1446.72	57.3912
1448.29	59.0562
1449.86	59.6999
1451.43	60.7527
1453	61.0686
1454.57	59.8922
1456.14	59.3108
1457.71	58.4671
1459.27	57.1688
1460.84	55.2778
1462.41	53.6297
1463.98	52.3799
1465.54	49.688
1467.11	47.6932
1468.67	45.1744
1470.24	43.5551
1471.81	40.8423
1473.37	39.311
1474.94	36.9725
1476.5	34.7665
1478.07	31.9359
1479.63	29.3462
1481.19	27.8351
1482.76	25.1612
1484.32	23.4751
1485.88	23.1873
1487.45	21.997
1489.01	19.7146
1490.57	18.0487
1492.13	16.8361
1493.69	16.0038
1495.26	15.3684
1496.82	14.8088
1498.38	15.1972
1499.94	15.1232
1501.5	15.1884
1503.06	15.6072
1504.62	15.4143
1506.17	16.0242
1507.73	15.9051
1509.29	15.979
1510.85	15.4671
1512.41	15.2246
1513.97	15.343
1515.52	15.1009
1517.08	15.401
1518.64	14.3316
1520.19	14.5454
1521.75	14.7259
1523.31	14.8128
1524.86	14.786
1526.42	15.3282
1527.97	15.5521
1529.52	16.4326
1531.08	16.0476
1532.63	17.0449
1534.19	17.7794
1535.74	18.7044
1537.29	20.0902
1538.85	21.5359
1540.4	22.6578
1541.95	23.5314
1543.5	24.9069
1545.06	26.9475
1546.61	28.6697
1548.16	30.3604
1549.71	32.5977
1551.26	34.571
1552.81	36.7124
1554.36	37.8505
1555.91	39.6665
1557.46	41.4761
1559.01	42.9724
1560.56	44.4
1562.11	46.6467
1563.65	48.4392
1565.2	49.212
1566.75	50.3556
1568.29	52.5377
1569.84	54.1789
1571.39	55.6751
1572.94	56.7379
1574.48	57.8651
1576.03	59.4119
1577.57	60.3447
1579.12	61.1934
1580.66	62.0409
1582.21	62.3236
1583.75	62.4875
1585.3	61.8141
1586.84	61.4061
1588.38	60.9823
1589.93	61.5424
1591.47	60.8781
1593.01	60.6584
1594.55	59.7329
1596.1	58.9024
1597.64	57.4646
1599.18	56.8533
1600.72	56.0071
1602.26	56.3418
1603.8	56.5277
1605.34	56.1916
1606.88	56.0128
1608.42	55.4723
1609.96	56.1056
1611.5	55.3776
1613.04	55.6309
1614.58	54.3587
1616.12	54.1638
1617.65	53.1626
1619.19	52.9746
1620.73	53.8522
1622.27	53.886
1623.8	53.947
1625.34	54.0096
1626.87	55.2048
1628.41	55.7288
1629.95	56.6271
1631.48	56.3827
1633.02	57.5146
1634.55	58.6141
1636.09	59.3769
1637.62	60.9325
1639.15	62.3968
1640.69	63.7391
1642.22	65.1597
1643.76	65.8286
1645.29	67.0173
1646.82	68.0331
1648.35	68.7964
1649.88	68.8334
1651.42	69.1392
1652.95	69.7427
1654.48	70.2109
1656.01	70.5398
1657.54	70.4061
1659.07	69.9625
1660.6	69.9597
1662.13	68.9757
1663.66	68.2126
1665.19	67.6924
1666.72	67.1125
1668.24	64.6936
1669.77	63.705
1671.3	61.9528
1672.83	60.0718
1674.35	58.4046
1675.88	57.6052
1677.41	56.0906
1678.93	54.8535
1680.46	52.9095
1681.99	50.8197
1683.51	48.7102
1685.04	46.1973
1686.56	43.7597
1688.09	41.5641
1689.61	38.9883
1691.13	36.1923
1692.66	33.877
1694.18	30.9122
1695.71	29.3237
1697.23	27.6164
1698.75	25.6176
1700.27	24.2038
1701.8	22.1923
1703.32	21.0679
1704.84	18.6445
1706.36	17.8064
1707.88	16.188
1709.4	14.635
1710.92	14.0615
1712.44	13.6559
1713.96	13.443
1715.48	13.1469
1717	12.5813
1718.52	11.7051
1720.04	11.2117
1721.56	10.8478
1723.07	10.1855
1724.59	9.65
1726.11	9.38978
1727.63	9.64036
1729.14	9.70466
1730.66	9.79522
1732.18	9.46044
1733.69	8.67895
1735.21	8.33941
1736.72	8.11344
1738.24	7.54473
1739.75	7.58202
1741.27	7.57872
1742.78	7.46343
1744.3	7.07394
1745.81	7.10717
1747.32	6.95889
1748.84	7.56685
1750.35	8.2982
1751.86	8.2289
1753.37	8.13703
1754.89	8.53265
1756.4	8.59257
1757.91	8.63061
1759.42	8.36559
1760.93	8.0963
1762.44	7.72508
1763.95	7.09011
1765.46	6.23067
1766.97	5.71561
1768.48	5.45716
1769.99	5.611
1771.5	5.74483
1773.01	4.9061
1774.52	4.49245
1776.03	3.95558
1777.53	3.34512
1779.04	3.82961
1780.55	3.75894
1782.06	4.30213
1783.56	3.92692
1785.07	4.61294
1786.57	5.63835
1788.08	5.92232
1789.59	5.80683
1791.09	6.02507
1792.6	5.82008
1794.1	5.49447
1795.6	5.21633
1797.11	5.01297
1798.61	4.93817
1800.12	5.20344
1801.62	5.29494
1803.12	4.65339
1804.63	4.26504
1806.13	3.63635
1807.63	2.82246
1809.13	2.41301
1810.63	2.38746
1812.14	2.42381
1813.64	2.03529
1815.14	2.21261
1816.64	1.95838
1818.14	1.90086
1819.64	1.85795
1821.14	1.23129
1822.64	1.82508
1824.14	1.70855
1825.63	1.79279
1827.13	2.04659
1828.63	2.2594
1830.13	2.15461
1831.63	1.33938
1833.12	0.682668
1834.62	0.428282
1836.12	0.221265
1837.62	-0.209043
1839.11	0.158888
1840.61	0.175639
1842.1	0.157432
1843.6	0.197663
1845.09	0.121293
1846.59	0.0672887
1848.08	0.00771851
1849.58	0.0574398
1851.07	-0.0480419
1852.57	0.586666
1854.06	1.4051
1855.55	1.53055
1857.04	1.53058
1858.54	1.73798
1860.03	1.99666
1861.52	2.0901
1863.01	1.90886
1864.5	1.48596
1866	0.92048
1867.49	0.568988
1868.98	0.271353
1870.47	0.449522
1871.96	0.967839
1873.45	0.989294
1874.94	1.12477
1876.43	1.16825
1877.92	1.08683
1879.41	0.797004
1880.89	0.771518
1882.38	1.07053
1882.48	1.93714
1883.97	2.02789
1885.47	1.81856
1886.96	2.2812
1888.46	3.01062
1889.95	2.63126
1891.44	3.09662
1892.94	3.0948
1894.43	3.06913
1895.92	3.74938
1897.41	4.01629
1898.9	4.40959
1900.4	4.63488
1901.89	3.59662
1903.38	3.35652
1904.87	3.53231
1906.36	3.80102
1907.85	4.82465
1909.34	4.914
1910.83	5.80706
1912.32	6.46089
1913.81	6.16686
1915.29	6.3086
1916.78	6.2743
1918.27	6.48799
1919.76	6.89593
1921.25	7.34632
1922.74	7.44951
1924.22	7.15143
1925.71	7.71999
1927.2	6.95989
1928.68	6.65168
1930.17	6.13424
1931.65	6.73252
1933.14	6.82569
1934.63	6.76379
1936.11	6.4877
1937.59	5.97493
1939.08	5.98538
1940.56	6.54991
1942.05	6.87497
1943.53	7.08447
1945.01	7.47657
1946.5	7.34376
1947.98	7.8602
1949.46	7.83072
1950.94	7.88906
1952.43	8.20202
1953.91	8.56078
1955.39	8.75586
1956.87	8.80782
1958.35	7.91068
1959.83	8.19449
1961.31	8.17788
1962.79	7.72975
1964.27	7.36049
1965.75	7.16374
1967.23	7.31409
1968.71	6.83154
1970.19	6.5082
1971.67	6.26031
1973.14	5.95201
1974.62	5.78658
1976.1	5.37992
1977.58	5.98905
1979.05	6.32852
1980.53	6.21054
1982.01	7.0562
1983.48	6.60572
1984.96	6.7026
1986.43	6.35157
1987.91	6.25454
1989.38	6.74516
1990.86	7.17007
1992.33	7.16162
1993.81	6.6466
1995.28	6.28403
1996.76	5.75652
1998.23	5.29331
1999.7	5.51356
2001.18	5.69334
2002.65	7.0598
2004.12	7.43949
2005.59	8.31623
2007.06	8.46969
2008.54	8.21487
2010.01	8.51023
2011.48	8.41802
2012.95	8.96068
2014.42	9.37947
2015.89	10.1077
2017.36	10.1837
2018.83	10.3438
2020.3	10.7963
2021.77	11.8072
2023.24	11.9346
2024.71	12.2027
2026.17	12.937
2027.64	12.1669
2029.11	12.4258
2030.58	12.6563
2032.04	12.38
2033.51	12.4741
2034.98	12.3891
2036.45	12.8923
2037.91	13.1898
2039.38	13.6733
2040.84	14.3964
2042.31	14.8451
2043.77	15.1277
2045.24	15.6174
2046.7	16.6058
2048.17	17.0488
2049.63	17.342
2051.1	17.6395
2052.56	18.0252
2054.02	18.3581
2055.48	18.8188
2056.95	17.987
2058.41	18.7318
2059.87	19.4244
2061.33	19.4421
2062.8	19.2558
2064.26	19.0701
2065.72	18.5241
2067.18	18.5802
2068.64	18.6355
2070.1	19.0891
2071.56	19.0737
2073.02	18.9073
2074.48	19.8485
2075.94	19.7247
2077.4	19.1371
2078.86	18.935
2080.31	18.6977
2081.77	18.481
2083.23	18.8272
2084.69	18.9455
2086.14	19.4969
2087.6	19.7731
2089.06	19.7387
2090.52	19.0918
2091.97	19.2319
2093.43	19.9465
2094.88	19.7033
2096.34	19.4264
2097.79	19.247
2099.25	19.6421
2100.7	19.9537
2102.16	20.8062
2103.61	21.5042
2105.07	21.8446
2106.52	22.524
2107.97	23.7205
2109.43	24.6281
2110.88	25.7964
2112.33	27.0872
2113.78	28.0452
2115.24	28.7186
2116.69	29.3561
2118.14	30.2767
2119.59	31.1569
2121.04	31.1191
2122.49	31.7922
2123.94	32.4384
2125.39	33.2799
2126.84	34.2299
2128.29	34.7275
2129.74	35.2119
2131.19	36.7092
2132.64	36.9969
2134.09	36.5804
2135.54	37.0989
2136.98	38.8323
2138.43	39.8805
2139.88	40.5885
2141.33	41.3292
2142.77	42.95
2144.22	43.1798
2145.67	44.2082
2147.11	45.6561
2148.56	46.0094
2150.01	47.3807
2151.45	48.8028
2152.9	49.722
2154.34	50.9152
2155.79	52.0219
2157.23	52.7733
2158.67	53.1018
2160.12	53.6107
2161.56	54.1139
2163	55.3337
2164.45	56.6005
2165.89	57.3062
2167.33	57.6161
2168.78	58.4083
2170.22	59.5223
2171.66	60.0136
2173.1	60.4695
2174.54	61.3749
2175.98	61.6431
2177.42	62.2342
2178.86	62.1917
2180.3	62.4488
2181.74	62.7177
2183.18	63.1823
2184.62	62.9918
2186.06	62.9
2187.5	62.2324
2188.94	61.8514
2190.38	60.6649
2191.82	60.1335
2193.25	59.6324
2194.69	59.1714
2196.13	58.434
2197.57	57.9429
2199	56.9458
2200.44	55.2182
2201.88	54.238
2203.31	53.6725
2204.75	52.9458
2206.18	52.4203
2207.62	51.9937
2209.05	51.6295
2210.49	49.8336
2211.92	48.5849
2213.36	47.5497
2214.79	46.2994
2216.22	44.7526
2217.66	44.0595
2219.09	43.3306
2220.52	42.1872
2221.96	41.4201
2223.39	40.5771
2224.82	39.3711
2226.25	38.6846
2227.68	37.331
2229.11	36.0467
2230.55	34.6773
2231.98	34.1451
2233.41	33.466
2234.84	32.726
2236.27	31.8993
2237.7	30.9862
2239.12	30.2836
2240.55	29.7537
2241.98	29.4933
2243.41	27.9215
2244.84	28.1518
2246.27	27.6866
2247.7	26.7611
2249.12	26.2642
2250.55	25.5807
2251.98	25.5198
2253.41	25.2515
2254.83	24.9868
2256.26	24.8361
2257.68	25.1019
2259.11	24.9527
2260.54	25.044
2261.96	25.2513
2263.39	25.3326
2264.81	24.8829
2266.24	25.0579
2267.66	24.8472
2269.08	24.6173
2270.51	24.6962
2271.93	24.94
2273.35	25.4102
2274.78	25.1355
2276.2	24.6573
2277.62	24.0493
2279.04	23.6518
2280.47	23.3153
2281.89	22.5177
2283.31	22.087
2284.73	21.7046
2286.15	21.638
2287.57	21.5146
2288.99	21.447
2290.41	21.2524
2291.83	20.4095
2293.25	19.9111
2294.67	19.814
2296.09	19.5087
2297.51	19.4146
2298.93	18.6819
2300.35	18.2682
2301.76	17.778
2303.18	18.1207
2304.6	17.7798
2306.02	17.2454
2307.44	16.8576
2308.85	16.3467
2310.27	15.9459
2311.69	15.5319
2313.1	14.8374
2314.52	14.3026
2315.93	14.0877
2317.35	13.0769
2318.76	13.1125
2320.18	12.9687
2321.59	13.0453
2323.01	13.083
2324.42	13.262
2325.83	14.2575
2327.25	15.1712
2328.66	15.3086
2330.07	15.3728
2331.49	15.0649
2332.9	14.8175
2334.31	14.6977
2335.72	14.5075
2337.13	15.1602
2338.55	14.4954
2339.96	14.401
2341.37	14.2556
2342.78	13.7756
2344.19	13.1461
2345.6	12.4411
2347.01	12.4773
2348.42	12.3662
2349.83	12.5791
2351.24	12.1265
2352.65	11.8292
2354.05	11.7723
2355.46	12.2678
2356.87	11.8323
2358.28	11.8045
2359.69	12.1863
2361.09	12.0253
2362.5	12.0575
2363.91	12.3944
2365.31	12.4404
2366.72	12.3835
2368.13	12.1456
2369.53	11.9881
2370.94	11.536
2372.34	11.6398
2373.75	11.6548
2375.15	11.5937
2376.56	11.1667
2377.96	11.0849
2379.37	10.6622
2380.77	10.2404
2382.17	9.9754
2383.58	9.40771
2384.98	9.46096
2386.38	8.91824
2387.79	9.018
2389.19	9.37851
2390.59	9.25254
2391.99	9.45912
2393.39	9.51755
2394.8	9.67939
2396.2	10.3634
2397.6	10.2918
2399	10.3549
2400.4	10.8699
2401.8	10.4285
2403.2	10.374
2404.6	10.2199
2406	9.58492
2407.4	9.88001
2408.79	9.43692
2410.19	9.83909
2411.59	9.56066
2412.99	9.39777
2414.39	9.15874
2415.78	9.13305
2417.18	9.40758
2418.58	9.64645
2419.98	9.5557
2421.37	9.20555
2422.77	8.74429
2424.16	9.31634
2425.56	9.53548
2426.96	9.67273
2428.35	9.9753
2429.74	9.96422
2431.14	9.59466
2432.53	9.30346
2433.93	9.35666
2435.32	9.7551
2436.72	10.1034
2438.11	9.77798
2439.5	9.60519
2440.9	9.06584
2442.29	9.44299
2443.68	9.5562
2445.07	9.76565
2446.47	9.79639
2447.86	9.26997
2449.25	9.13256
2450.64	8.68761
2452.03	8.73178
2453.42	8.35017
2454.81	7.94203
2456.2	7.46398
2457.59	7.68815
2458.98	7.93693
2460.37	8.06173
2461.76	8.48727
2463.15	8.37271
2464.54	8.53929
2465.93	8.85719
2467.32	8.53913
2468.7	8.06294
2470.09	8.10062
2471.48	7.21811
2472.87	7.31259
2474.25	7.1281
2475.64	6.95873
2477.03	7.12289
2478.41	6.73031
2479.8	6.71751
2481.18	6.32501
2482.57	5.93725
2483.95	5.49103
2485.34	5.41643
2486.72	5.76026
2488.11	5.58318
2489.49	5.12611
2490.88	5.25612
2492.26	5.14623
2493.65	5.36709
2495.03	4.69968
2496.41	4.90153
2497.79	4.08834
2499.18	3.8076
2500.56	3.55335
2501.94	3.13049
2503.32	3.35679
2504.7	2.68506
2506.09	2.30125
2507.47	2.08213
2508.85	1.95585
2510.23	2.54768
2511.61	2.89402
2512.99	2.85192
2514.37	2.89108
2515.75	2.88044
2517.13	1.9152
2518.51	1.93276
2519.89	0.897489
2521.26	0.96631
2522.64	0.742705
2524.02	0.412429
2525.4	0.505136
2526.78	0.920203
2528.15	0.689438
2529.53	0.682339
2530.91	0.596067
2532.28	0.795066
2533.66	1.0163
2535.04	1.14359
2536.41	1.21572
2537.79	1.73228
2539.16	3.0509
2540.54	3.30347
2541.91	4.04019
2543.29	4.46837
2544.66	4.64534
2546.04	5.22489
2547.41	5.87208
2548.78	6.65766
2550.16	7.51194
2551.53	7.75781
2552.9	8.36454
2554.27	9.23495
2555.65	9.75772
2557.02	9.93596
2558.39	10.7302
2559.76	11.0828
2561.13	10.5824
2562.51	10.2369
2563.88	9.97917
2565.25	10.2753
2566.62	9.86554
2567.99	9.9581
2569.36	9.51499
2570.73	8.87595
2572.1	8.50799
2573.47	8.02937
2574.84	8.49905
2576.2	7.81346
2577.57	7.39399
2578.94	7.33147
2580.31	7.00231
2581.68	6.24226
2583.05	5.81174
2584.41	5.02967
2585.78	3.83396
2587.15	3.37015
2588.51	3.03586
2589.88	2.73311
2591.24	2.39447
2592.61	1.88863
2593.98	1.39374
2595.34	1.66979
2596.71	1.35012
2598.07	1.96768
2599.44	1.98823
2600.8	1.56392
2602.16	1.35375
2603.53	1.25465
2604.89	1.99461
2606.26	2.61483
2607.62	2.58663
2608.98	2.2604
2610.34	2.29254
2611.71	2.32728
2613.07	2.34379
2614.43	2.80021
2615.79	3.62101
2617.15	3.96189
2618.52	4.25144
2619.88	4.12988
2621.24	4.44039
2622.6	4.57351
2623.96	5.01638
2625.32	5.24481
2626.68	5.18684
2628.04	4.59439
2629.4	4.23825
2630.75	4.17806
2632.11	3.95716
2633.47	3.92777
2634.83	3.17447
2636.19	2.89479
2637.55	2.39283
2638.9	1.92586
2640.26	1.83827
2641.62	2.39698
2642.98	2.09451
2644.33	1.12988
2645.69	1.05111
2647.04	0.983499
2648.4	1.03503
2649.76	0.65325
2651.11	0.452333
2652.47	0.0867147
2653.82	0.053459
2655.18	0.51694
2656.53	0.527747
2657.88	0.23693
2659.24	0.774414
2660.59	1.19071
2661.95	1.26233
2663.3	1.74973
2664.65	1.61943
2666	1.3792
2667.36	0.745707
2668.71	0.801403
2670.06	1.21747
2671.41	1.57791
2672.76	1.77171
2674.12	1.74766
2675.47	2.1091
2676.82	2.58456
2678.17	2.78378
2679.52	3.03059
2680.87	3.11214
2682.22	3.02844
2683.57	3.46807
2684.92	3.78384
2686.27	3.78706
2687.62	4.27878
2688.97	4.1332
2690.31	3.97551
2691.66	3.84774
2693.01	3.82414
2694.36	3.61982
2695.71	3.55392
2697.05	3.5988
2698.4	3.43383
2699.75	3.15865
2701.09	3.38499
2702.44	3.4412
2703.78	3.37951
2705.13	3.41757
2706.48	3.38919
2707.82	3.50896
2709.17	3.3032
2710.51	2.3118
2711.86	2.39332
2713.2	2.69664
2714.54	2.80019
2715.89	2.83144
2717.23	2.61651
2718.57	2.72668
2719.92	3.35692
2721.26	3.7743
2722.6	4.05217
2723.95	4.11416
2725.29	3.99866
2726.63	4.43997
2727.97	4.92104
2729.31	4.14954
2730.65	4.25255
2732	3.92733
2733.34	4.1053
2734.68	4.72767
2736.02	6.10612
2737.36	6.74244
2738.7	7.099
2740.04	7.04946
2741.38	6.78402
2742.72	6.64755
2744.05	6.21503
2745.39	6.42635
2746.73	6.11008
2748.07	6.48532
2749.41	6.57382
2750.75	6.74879
2752.08	6.76091
2753.42	6.27102
2754.76	6.05684
2756.09	5.27499
2757.43	5.10941
2758.77	5.19012
2760.1	5.23293
2761.44	4.33979
2762.78	4.25499
2764.11	4.21877
2765.44	3.76815
2766.78	3.499
2768.11	3.3953
2769.45	3.31247
2770.78	2.67088
2772.12	2.62661
2773.45	2.05795
2774.78	1.87582
2776.12	1.55448
2777.45	1.79672
2778.78	2.33687
2780.12	2.351
2781.45	2.2738
2782.78	1.8302
2784.11	2.10505
2785.44	2.59336
2786.78	2.45694
2788.11	2.1331
2789.44	2.06487
2790.77	1.9662
2792.1	1.64084
2793.43	1.54229
2794.76	1.152
2796.09	1.04592
2797.42	2.17077
2798.75	2.45759
2800.08	2.9987
2801.4	3.45409
2802.73	3.90995
2804.06	3.01555
2805.39	2.34642
2806.72	2.38434
2808.05	2.21383
2809.37	2.8651
2810.7	3.39183
2812.03	3.26093
2813.35	3.09716
2814.68	3.9626
2816.01	3.60581
2817.33	3.38764
2818.66	3.67883
2819.98	4.13165
2821.31	4.68939
2822.63	5.73819
2823.96	6.72768
2825.28	7.93386
2826.61	8.68911
2827.93	9.78234
2829.25	11.352
2830.58	12.4584
2831.9	13.4591
2833.23	15.4136
2834.55	17.0722
2835.87	18.7495
2837.19	20.1052
2838.52	21.9257
2839.84	23.9428
2841.16	26.0449
2842.48	28.371
2843.8	30.8651
2845.12	32.8435
2846.44	34.4894
2847.77	36.5988
2849.08	38.9627
2850.4	42.1771
2851.73	44.6214
2853.05	47.5606
2854.36	50.4386
2855.68	53.7447
2857	57.0178
2858.32	60.0685
2859.64	63.5869
2860.96	66.9
2862.28	70.1613
2863.59	72.8911
2864.91	74.8325
2866.23	77.0118
2867.55	79.4301
2868.86	82.0266
2870.18	83.9862
2871.5	86.2252
2872.81	88.4998
2874.13	90.4268
2875.44	92.7438
2876.76	94.4231
2878.07	96.1586
2879.39	97.5702
2880.7	99.1534
2882.02	100.345
2883.33	101.41
2884.65	102.848
2885.96	103.922
2887.28	104.976
2888.59	106.44
2889.9	108.351
2891.21	109.891
2892.53	111.664
2893.84	112.839
2895.15	114.448
2896.46	116.198
2897.78	117.987
2899.09	120.346
2900.4	121.903
2901.71	124.149
2903.02	126.675
2904.33	129.121
2905.64	133.058
2906.95	136.132
2908.26	140.13
2909.57	143.857
2910.88	147.672
2912.19	151.967
2913.5	156.98
2914.81	161.594
2916.12	166.218
2917.43	170.663
2918.73	175.467
2920.04	179.13
2921.35	182.72
2922.66	185.675
2923.96	188.3
2925.27	190.96
2926.58	192.719
2927.88	194.131
2929.19	195.375
2930.5	195.974
2931.8	196.236
2933.11	196.253
2934.41	195.914
2935.72	195.611
2937.02	194.27
2938.33	193.635
2939.63	192.313
2940.94	190.565
2942.24	187.903
2943.54	185.125
2944.85	181.521
2946.15	178.491
2947.45	175.074
2948.76	171.094
2950.06	167.249
2951.36	164.614
2952.66	161.913
2953.97	158.73
2955.27	155.636
2956.57	151.364
2957.87	147.605
2959.17	143.331
2960.47	140.054
2961.77	136.024
2963.07	132.666
2964.37	130.231
2965.67	126.684
2966.97	123.713
2968.27	120.98
2969.57	117.895
2970.87	115.622
2972.17	112.604
2973.47	110.249
2974.77	107.408
2976.07	104.517
2977.36	101.941
2978.66	99.2419
2979.96	96.4369
2981.26	93.6062
2982.55	90.5524
2983.85	87.1979
2985.15	83.7125
2986.44	80.8018
2987.74	78.1195
2989.03	74.7541
2990.33	72.1609
2991.63	68.7973
2992.92	65.2213
2994.21	62.0975
2995.51	58.409
2996.8	55.3567
2998.1	52.5925
2999.39	50.2712
3000.69	48.3442
3001.98	45.7131
3003.27	43.8251
3004.57	41.2441
3005.86	38.7398
3007.15	35.9304
3008.44	34.1786
3009.74	32.1093
3011.03	30.4939
3012.32	29.1249
3013.61	27.5608
3014.9	26.2604
3016.19	25.4299
3017.48	23.6858
3018.78	22.1108
3020.07	21.3737
3021.36	20.0084
3022.65	18.9161
3023.94	18.0774
3025.23	16.8791
3026.51	15.8691
3027.8	16.3232
3029.09	16.0713
3030.38	15.5032
3031.67	15.1598
3032.96	15.206
3034.24	15.2451
3035.53	15.8879
3036.82	15.9389
3038.11	15.7861
3039.39	16.1231
3040.68	16.4311
3041.97	16.4446
3043.25	16.8368
3044.54	17.767
3045.83	17.6522
3047.11	17.9501
3048.4	18.6014
3049.68	19.2639
3050.97	19.7687
3052.25	19.9838
3053.54	19.8433
3054.82	20.7655
3056.11	20.4851
3057.39	20.3918
3058.67	20.3356
3059.96	20.2018
3061.24	20.7747
3062.52	20.8087
3063.81	20.5767
3065.09	20.239
3066.37	19.7297
3067.65	18.9264
3068.94	18.8723
3070.22	18.431
3071.5	17.5459
3072.78	17.1001
3074.06	15.5157
3075.34	14.2543
3076.62	13.2441
3077.9	12.447
3079.18	11.2413
3080.46	10.3945
3081.74	9.92416
3083.02	8.79422
3084.3	8.06098
3085.58	7.08751
3086.86	6.69413
3088.14	6.1821
3089.42	5.4091
3090.69	5.48054
3091.97	5.59286
3093.25	4.88191
3094.53	4.09995
3095.8	3.30838
3097.08	2.93548
3098.36	2.35376
3099.63	1.3915
3100.91	0.939518
3102.19	1.00772
3103.46	0.772916
3104.74	0.491074
3106.01	0.0287815
3107.29	0.113955
3108.56	-0.0826704
3109.84	-0.457535
3111.11	-0.0992285
3112.39	0.101541
3113.66	0.215405
3114.94	0.34083
3116.21	0.574559
3117.48	0.363072
3118.76	0.664791
3120.03	0.49141
3121.3	0.443699
3122.57	0.498868
3123.85	0.688869
3125.12	0.625932
3126.39	0.306155
3127.66	0.0283283
3128.93	0.30922
3130.21	0.649908
3131.48	0.897601
3132.75	1.19299
3134.02	0.600102
3135.29	0.151537
3136.56	0.3859
3137.83	0.225052
3139.1	0.859636
3140.37	1.41577
3141.64	1.61188
3142.91	1.59543
3144.17	1.60945
3145.44	1.33777
3146.71	1.3699
3147.98	0.455641
3149.25	-0.584907
