#Acq. time (s)=	45
#Accumulations=	2
#Range (cm-¹)=	200...3150
#Windows=	2
#Auto scanning=	Off
#Autofocus=	Off
#Macrospot=	Off
#AutoExposure=	Off
#Spike filter=	Multiple accum.
#Delay time (s)=	0
#Binning=	1
#Readout mode=	Signal
#DeNoise=	Off
#ICS correction=	On
#Dark correction=	Off
#Inst. Process=	Off
#Detector Gain=	Best Dynamic Range
#Detector ADC=	20 kHz       
#Detector temperature (°C)=	-69.85
#Instrument=	LabRAM HR Evol
#Detector=	Synapse
#Objective=	x100
#Grating=	600 gr/mm
#ND Filter=	100%
#Laser (nm)=	532 
#Hole=	100.021
#Range=	Auto
#Laser Pol.=	No
#Raman. Pol.=	No
#Laser Pol. (°)=	-0.0007625
#Raman Pol. (°)=	89.9995
#Collection=	Microscope
#StageXY=	Marzhauser
#StageZ=	Marzhauser
#X (µm)=	9023.1
#Y (µm)=	-3084.6
#Z (µm)=	-54.6
#Full time(mm:ss)=	3:19
#Project=	
#Sample=	
#Site=	
#Title=	Thy_00_07_16_2x_45s_532 nm_x100_100%_600 gr_mm
#Remark=	
#Date=	28.06.2022 11:14
#Acquired=	28.06.2022 11:14:48
#Base:Fit=	10.08.2022 10:06:44
#Base:Fit=	10.08.2022 10:07:16
#Base:Fit=	10.08.2022 10:07:25
#Base:Fit=	10.08.2022 10:07:44
#Base:Fit=	10.08.2022 10:07:56
#Base:Sub=	10.08.2022 10:08:40
#Filter:Polynom=	16.08.2022 10:26:06
#AxisType[0]=Intens
#AxisUnit[0]=Cnt
#AxisType[1]=Spectr
#AxisUnit[1]=1/cm
200.407	66.9685
202.221	63.9063
204.035	60.5563
205.849	56.4157
207.665	52.3021
209.478	48.613
211.291	45.5289
213.104	42.6621
214.916	40.6796
216.73	37.4544
218.541	34.5333
220.352	32.0948
222.163	28.9244
223.973	27.3732
225.785	25.2441
227.595	23.438
229.404	22.7953
231.213	20.7248
233.022	19.394
234.83	18.0148
236.638	16.4291
238.448	15.3942
240.255	14.4268
242.062	13.1528
243.868	11.5593
245.675	9.84394
247.48	10.4604
249.286	10.447
251.091	10.1737
252.896	8.85734
254.702	7.93878
256.506	7.11604
258.31	5.41375
260.113	3.8989
261.916	3.05706
263.719	3.32241
265.521	3.25924
267.323	3.23825
269.125	3.19878
270.926	3.17937
272.727	2.49295
274.527	2.0659
276.328	2.47847
278.127	2.64077
279.927	4.32268
281.726	5.44656
283.525	4.51402
285.323	5.21588
287.121	5.71754
288.919	6.16685
290.716	5.19448
292.513	5.39627
294.31	6.3037
296.104	8.19092
297.9	9.45641
299.696	10.4482
301.491	10.6052
303.286	11.1699
305.081	11.4606
306.875	11.2326
308.669	11.93
310.463	12.442
312.256	13.2275
314.047	14.9027
315.839	15.4967
317.631	16.4392
319.423	16.7601
321.215	16.1226
323.006	16.9805
324.794	16.8332
326.585	17.0421
328.375	17.8595
330.165	17.4283
331.954	16.6397
333.741	16.1494
335.53	16.2141
337.318	16.4988
339.106	14.8664
340.894	13.6922
342.679	13.5404
344.466	13.8181
346.253	12.8536
348.039	12.8534
349.823	12.9823
351.608	13.0627
353.393	13.2194
355.176	12.8622
356.961	13.2513
358.745	12.4742
360.529	13.0909
362.31	11.9595
364.093	10.6873
365.876	10.8416
367.657	10.9296
369.439	10.7479
371.221	9.50015
373	8.75935
374.781	9.65536
376.56	9.49671
378.34	8.74694
380.12	8.73909
381.898	8.57247
383.677	8.40576
385.456	8.33097
387.233	6.69745
389.011	5.85403
390.787	6.29097
392.565	6.75234
394.34	5.8788
396.117	5.34148
397.894	5.42305
399.668	5.3138
401.444	5.67297
403.217	5.59781
404.993	5.83101
406.766	5.43466
408.54	5.55532
410.312	5.27101
412.086	6.13089
413.858	6.42663
415.631	6.96298
417.402	7.21479
419.174	6.43883
420.944	6.98478
422.716	6.77304
424.486	6.26787
426.257	6.07611
428.025	5.85386
429.794	5.16735
431.564	5.06625
433.332	4.08524
435.101	2.83348
436.868	3.46929
438.637	4.46827
440.403	6.05304
442.169	7.65118
443.937	9.08781
445.703	10.2906
447.468	11.7404
449.234	14.2695
450.999	15.2454
452.765	17.3587
454.528	19.3654
456.292	21.3841
458.057	22.7106
459.819	25.4534
461.582	27.7945
463.344	29.6181
465.107	30.3611
466.868	32.6921
468.629	34.7811
470.392	36.2499
472.152	37.0282
473.912	38.4265
475.672	39.1947
477.433	40.6716
479.192	42.0789
480.951	42.6277
482.709	42.0632
484.469	42.2019
486.226	43.071
487.984	42.8455
489.74	44.0625
491.499	44.5494
493.255	44.8052
495.011	44.1461
496.767	44.2626
498.522	44.1591
500.277	43.9708
502.033	42.5634
503.788	41.7472
505.541	40.815
507.295	38.9498
509.048	37.6195
510.801	34.9277
512.553	32.3499
514.308	30.1948
516.06	27.1062
517.811	24.3354
519.562	22.5186
521.313	20.7932
523.063	19.6039
524.814	20.3979
526.563	20.4725
528.313	19.476
530.062	19.1894
531.811	18.5461
533.559	17.7275
535.308	16.7141
537.055	15.1495
538.803	13.4115
540.55	13.2831
542.297	12.7546
544.043	12.5164
545.789	11.7251
547.535	12.1703
549.281	12.4114
551.026	12.1888
552.771	11
554.515	10.6993
556.259	9.58964
558.003	8.17776
559.747	8.0467
561.49	9.00288
563.233	8.98274
564.975	8.50801
566.717	8.97479
568.459	8.105
570.2	7.82525
571.942	7.5885
573.68	8.23728
575.421	8.14006
577.161	9.07839
578.901	8.73587
580.64	8.97601
582.379	9.97011
584.118	11.084
585.855	11.37
587.593	10.6831
589.331	10.6927
591.068	11.0787
592.805	9.41436
594.54	8.69929
596.277	8.47636
598.013	7.52073
599.749	7.34437
601.484	7.4185
603.217	7.34901
604.952	7.78136
606.687	7.95586
608.421	7.1089
610.153	6.80849
611.886	7.86739
613.619	7.20143
615.35	7.04446
617.083	8.20663
618.815	7.9784
620.547	7.91653
622.276	7.59979
624.008	8.05649
625.738	8.55285
627.467	9.01879
629.197	9.35819
630.927	9.99016
632.655	11.2716
634.384	12.4424
636.113	14.0212
637.839	14.3727
639.568	15.6074
641.293	16.7175
643.021	18.8415
644.748	19.56
646.473	20.7725
648.2	21.3156
649.924	21.4892
651.65	21.2286
653.376	21.6233
655.099	21.8248
656.824	23.0583
658.546	23.4963
660.271	23.6229
661.993	23.9584
663.716	25.2354
665.438	24.9636
667.161	25.1977
668.881	25.807
670.604	24.9396
672.324	24.1007
674.045	23.957
675.765	23.8019
677.486	24.2436
679.204	25.4438
680.925	27.2451
682.643	27.0978
684.361	27.8023
686.08	28.9533
687.797	28.7588
689.516	28.8816
691.232	28.8051
692.95	28.8109
694.666	28.4411
696.382	29.4913
698.099	30.2711
699.813	29.4803
701.528	30.5133
703.244	30.5216
704.958	30.2614
706.673	30.091
708.387	30.4653
710.099	31.6201
711.814	33.0422
713.526	33.7651
715.238	35.0338
716.949	36.1235
718.663	36.5796
720.374	37.3552
722.084	38.208
723.796	38.8098
725.506	39.2898
727.216	39.8897
728.925	41.6224
730.636	42.1691
732.345	43.0526
734.053	43.3738
735.761	45.727
737.471	47.0412
739.178	48.5917
740.885	50.2221
742.592	51.2027
744.298	53.6769
746.006	55.3469
747.712	58.1336
749.417	59.8623
751.122	60.6333
752.827	61.9745
754.532	63.8835
756.236	65.0359
757.942	67.2464
759.645	68.8742
761.348	70.9194
763.051	72.9426
764.753	73.9401
766.456	74.1697
768.158	74.8761
769.859	76.8429
771.56	77.7203
773.261	78.2288
774.964	78.6434
776.664	79.457
778.364	80.3946
780.064	80.1925
781.763	80.1368
783.462	79.7949
785.16	80.0407
786.859	81.4366
788.557	81.2871
790.255	82.2253
791.952	81.5324
793.649	81.2797
795.346	81.2506
797.042	81.298
798.738	80.6798
800.434	80.0527
802.127	79.3727
803.823	79.3771
805.517	80.322
807.212	81.1076
808.906	82.1265
810.6	82.9949
812.293	84.3902
813.987	85.0791
815.68	86.2641
817.372	87.4666
819.064	89.1315
820.754	91.3107
822.446	90.6085
824.137	92.4128
825.828	94.5604
827.519	96.7719
829.209	98.9618
830.897	98.9652
832.587	99.5469
834.276	100.078
835.966	100.443
837.654	100.773
839.341	101.521
841.029	101.256
842.717	101.69
844.404	100.954
846.091	100.576
847.776	99.153
849.463	98.0778
851.149	97.7355
852.833	96.5749
854.519	94.8254
856.204	93.2835
857.889	91.6421
859.572	89.1324
861.256	88.3238
862.94	86.912
864.622	84.5953
866.305	82.6014
867.988	81.2279
869.669	79.5917
871.351	77.703
873.033	75.9269
874.713	74.1415
876.395	72.5296
878.074	72.3636
879.755	71.903
881.435	70.5771
883.114	68.4281
884.794	66.9862
886.471	66.7702
888.15	67.1042
889.829	67.5373
891.506	66.6628
893.184	66.4981
894.861	66.8522
896.538	67.0555
898.214	67.4582
899.891	68.0957
901.566	68.9714
903.242	69.542
904.916	70.3194
906.592	72.2135
908.266	74.86
909.941	77.7465
911.614	78.078
913.288	79.6841
914.961	81.4713
916.635	82.7059
918.306	83.647
919.979	84.5228
921.651	84.9737
923.321	84.6327
924.994	84.5492
926.664	84.7693
928.336	83.5691
930.005	82.9551
931.674	82.5869
933.345	81.4645
935.014	80.4715
936.682	78.3299
938.352	76.4684
940.019	75.02
941.687	73.4865
943.356	72.4079
945.022	71.391
946.689	69.6201
948.357	67.2185
950.022	65.5947
951.688	64.522
953.355	62.6323
955.02	61.4883
956.684	59.9185
958.348	56.6937
960.014	54.0285
961.678	51.7962
963.341	49.6627
965.004	47.3906
966.669	46.3091
968.331	45.171
969.993	44.866
971.655	44.2176
973.316	44.0954
974.979	42.8913
976.64	42.8332
978.3	43.061
979.961	42.5163
981.62	42.372
983.28	42.2982
984.941	42.8002
986.6	43.1596
988.259	43.8775
989.917	44.4201
991.575	44.1917
993.233	45.5916
994.89	44.9433
996.547	47.4537
998.204	47.9392
999.86	48.5135
1001.52	50.3973
1003.17	51.8806
1004.83	52.9165
1006.49	54.0438
1008.14	55.5067
1009.79	56.0203
1011.45	57.0169
1013.1	57.7777
1014.76	59.1514
1016.41	60.0266
1018.06	60.8334
1019.72	61.0297
1021.37	61.8842
1023.02	62.521
1024.67	62.2382
1026.32	62.5552
1027.97	60.8631
1029.62	60.4968
1031.27	59.4225
1032.92	59.1771
1034.57	58.4795
1036.22	57.4339
1037.87	56.7881
1039.52	55.8254
1041.17	55.1001
1042.82	55.1534
1044.47	55.7853
1046.11	55.929
1047.76	55.1126
1049.41	56.2509
1051.06	56.1722
1052.7	57.9648
1054.35	57.5297
1055.99	57.3171
1057.64	55.5228
1059.28	55.498
1060.93	55.703
1062.57	54.3812
1064.22	54.5331
1065.86	54.815
1067.5	55.4839
1069.15	56.2853
1070.79	56.2623
1072.43	57.1015
1074.08	57.8587
1075.72	60.4135
1077.36	60.8306
1079	61.8726
1080.64	62.0447
1082.28	63.8593
1083.92	64.8072
1085.56	65.7147
1087.2	66.036
1088.84	67.6289
1090.48	68.5678
1092.12	70.163
1093.76	72.1094
1095.39	73.3168
1097.03	75.1669
1098.67	75.1069
1100.31	75.6214
1101.94	76.2574
1103.58	76.6099
1105.22	76.6257
1106.85	76.5707
1108.49	76.384
1110.12	76.2155
1111.76	77.2075
1113.39	76.8563
1115.03	77.2065
1116.66	77.0609
1118.29	76.9455
1119.93	76.9277
1121.56	75.691
1123.19	74.9378
1124.82	73.8519
1126.46	73.4887
1128.09	72.6543
1129.72	72.2616
1131.35	72.539
1132.98	70.8115
1134.61	69.3317
1136.24	67.0532
1137.87	65.652
1139.5	63.7262
1141.13	63.39
1142.76	61.7506
1144.39	59.3078
1146.01	59.1874
1147.64	56.9596
1149.27	55.2064
1150.9	52.498
1152.53	49.1565
1154.15	46.186
1155.78	42.778
1157.4	40.1504
1159.03	35.6577
1160.65	32.8223
1162.28	30.3071
1163.9	27.9115
1165.53	25.9186
1167.15	24.475
1168.78	22.3822
1170.4	21.7176
1172.02	20.1547
1173.65	18.6812
1175.27	17.4946
1176.89	15.6484
1178.51	14.4346
1180.14	14.1521
1181.76	14.3401
1183.38	14.0305
1185	13.3447
1186.62	12.7303
1188.24	12.0073
1189.86	11.3756
1191.48	11.9432
1193.1	12.2277
1194.71	11.6959
1196.33	12.2772
1197.95	13.7539
1199.57	14.7876
1201.19	15.8446
1202.8	16.7985
1204.42	18.2476
1206.04	19.2368
1207.65	20.9785
1209.27	23.0445
1210.88	25.1645
1212.5	26.8206
1214.12	28.5863
1215.73	31.4114
1217.35	34.5863
1218.96	36.3534
1220.57	37.897
1222.19	39.7447
1223.8	42.0562
1225.41	43.7823
1227.03	45.6206
1228.64	45.1685
1230.25	46.3338
1231.86	46.6168
1233.47	47.2655
1235.08	48.5709
1236.69	49.3484
1238.31	50.7259
1239.92	51.535
1241.52	53.5462
1243.13	54.4696
1244.74	55.3898
1246.35	55.6902
1247.96	55.1283
1249.57	55.5584
1251.18	55.9278
1252.78	56.2207
1254.39	54.8114
1256	54.0064
1257.6	52.9485
1259.21	53.0109
1260.82	52.6506
1262.42	51.4632
1264.03	50.8074
1265.63	49.3864
1267.24	48.2625
1268.84	48.0008
1270.45	47.4833
1272.05	47.0045
1273.65	46.4686
1275.26	45.9555
1276.86	47.2013
1278.46	47.5022
1280.06	47.1016
1281.67	46.6921
1283.27	46.0589
1284.87	45.7936
1286.47	46.8082
1288.07	48.6956
1289.67	49.6017
1291.27	51.1888
1292.87	53.059
1294.47	54.0152
1296.07	55.335
1297.67	56.7102
1299.27	57.8702
1300.87	60.2384
1302.47	62.6768
1304.06	65.7836
1305.66	68.4776
1307.26	71.5987
1308.85	73.9124
1310.45	77.7884
1312.05	80.6976
1313.64	83.9264
1315.24	87.4626
1316.83	89.0745
1318.43	91.9801
1320.02	93.5593
1321.62	95.6598
1323.21	97.1393
1324.8	98.4885
1326.4	100.122
1327.99	101.757
1329.59	103.809
1331.18	103.259
1332.77	103.967
1334.36	104.323
1335.95	104.639
1337.54	105.234
1339.14	105.412
1340.73	104.482
1342.32	104.338
1343.91	103.59
1345.5	102.433
1347.09	101.694
1348.67	100.837
1350.26	99.0216
1351.85	97.9444
1353.44	96.4161
1355.03	95.041
1356.62	93.4788
1358.2	91.2992
1359.79	88.9521
1361.38	86.6732
1362.96	85.4951
1364.55	85.1099
1366.14	84.5273
1367.72	83.6959
1369.31	82.6757
1370.89	80.8776
1372.48	78.4026
1374.06	76.0476
1375.64	77.6448
1377.23	78.4407
1378.81	79.1876
1380.39	80.1257
1381.98	80.5359
1383.56	80.8843
1385.14	81.6803
1386.72	81.0333
1388.3	80.2964
1389.89	81.1653
1391.47	80.7127
1393.05	80.3375
1394.63	79.2761
1396.21	78.1306
1397.79	77.5096
1399.37	76.3005
1400.95	75.0901
1402.52	74.2057
1404.1	73.24
1405.68	73.6775
1407.26	72.9402
1408.84	72.1405
1410.42	71.112
1411.99	72.0269
1413.57	71.3554
1415.15	71.2463
1416.72	71.4461
1418.3	70.8769
1419.87	70.0079
1421.45	70.7343
1423.02	71.7025
1424.6	71.8858
1426.17	73.1976
1427.75	73.7501
1429.32	74.8503
1430.89	76.7867
1432.47	77.0358
1434.04	79.0061
1435.61	80.0973
1437.18	81.6375
1438.76	82.1859
1440.33	83.9594
1441.9	85.3899
1443.47	86.0601
1445.04	86.3548
1446.61	86.4409
1448.18	86.4617
1449.75	85.7374
1451.32	87.6048
1452.89	88.7903
1454.46	89.7075
1456.03	88.3837
1457.6	87.721
1459.16	86.3901
1460.73	84.7005
1462.3	83.2413
1463.87	81.7015
1465.43	79.5692
1467	77.6934
1468.56	74.9479
1470.13	70.5345
1471.7	66.6419
1473.26	62.3948
1474.83	58.5809
1476.39	54.3823
1477.96	51.0471
1479.52	48.0663
1481.08	45.096
1482.65	41.646
1484.21	39.2728
1485.77	35.972
1487.34	33.0808
1488.9	31.4398
1490.46	29.5474
1492.02	26.9939
1493.58	25.4667
1495.15	23.6852
1496.71	21.3574
1498.27	19.4447
1499.83	19.0416
1501.39	19.238
1502.95	18.4132
1504.51	18.4282
1506.07	18.0453
1507.63	18.1647
1509.18	18.043
1510.74	16.3537
1512.3	16.9418
1513.86	15.8684
1515.41	16.6552
1516.97	16.655
1518.53	17.3754
1520.08	18.1968
1521.64	18.0586
1523.2	19.5238
1524.75	20.5252
1526.31	20.4102
1527.86	21.0814
1529.42	22.1857
1530.97	22.447
1532.52	23.0191
1534.08	24.7151
1535.63	26.06
1537.19	26.8487
1538.74	28.3139
1540.29	29.3493
1541.84	30.0653
1543.4	30.8583
1544.95	31.3565
1546.5	32.0801
1548.05	32.9435
1549.6	34.199
1551.15	34.486
1552.7	35.2993
1554.25	36.5883
1555.8	37.6592
1557.35	38.709
1558.9	39.4923
1560.45	40.7575
1562	42.3335
1563.54	44.0856
1565.09	45.6404
1566.64	46.8755
1568.19	47.7378
1569.73	48.3689
1571.28	49.516
1572.83	50.3822
1574.37	51.1365
1575.92	53.0791
1577.47	55.3889
1579.01	57.1911
1580.56	57.979
1582.1	58.5948
1583.64	60.0879
1585.19	60.8007
1586.73	61.8494
1588.28	62.3789
1589.82	63.5672
1591.36	64.1768
1592.9	65.8586
1594.45	66.6511
1595.99	67.2712
1597.53	67.4034
1599.07	66.5516
1600.61	67.4396
1602.15	66.5071
1603.69	65.9081
1605.23	66.4369
1606.77	66.0169
1608.31	66.0938
1609.85	65.5388
1611.39	65.4007
1612.93	65.1577
1614.47	64.9674
1616.01	64.4726
1617.55	63.664
1619.08	62.3385
1620.62	61.4622
1622.16	61.065
1623.7	60.3763
1625.23	59.4453
1626.77	58.5207
1628.3	57.6365
1629.84	57.3349
1631.37	57.2853
1632.91	57.0386
1634.44	57.2
1635.98	56.4912
1637.51	55.8637
1639.05	56.8218
1640.58	57.5745
1642.11	57.8503
1643.65	58.017
1645.18	58.678
1646.71	58.706
1648.24	59.2263
1649.78	59.6312
1651.31	61.228
1652.84	61.5179
1654.37	61.4706
1655.9	60.9476
1657.43	60.3131
1658.96	59.8018
1660.49	60.1108
1662.02	59.2375
1663.55	58.2728
1665.08	57.1027
1666.61	56.9039
1668.14	56.0243
1669.66	55.6108
1671.19	54.7439
1672.72	53.4205
1674.25	52.0906
1675.77	49.9092
1677.3	49.3891
1678.83	47.8701
1680.35	46.5898
1681.88	44.658
1683.4	43.2097
1684.93	42.0322
1686.45	40.2374
1687.98	38.6061
1689.5	37.1072
1691.03	34.4752
1692.55	32.0894
1694.07	30.3988
1695.6	28.4398
1697.12	26.9694
1698.64	25.2082
1700.17	22.9408
1701.69	21.2201
1703.21	20.2851
1704.73	18.918
1706.25	17.0509
1707.77	16.3427
1709.29	15.6413
1710.81	15.0119
1712.33	13.9299
1713.85	13.5319
1715.37	13.1161
1716.89	11.3172
1718.41	11.3274
1719.93	10.6339
1721.45	9.95273
1722.97	9.63464
1724.49	9.16813
1726	9.43797
1727.52	9.98754
1729.04	8.91897
1730.55	8.8192
1732.07	8.90631
1733.59	9.1097
1735.1	9.32729
1736.62	9.35742
1738.13	9.06211
1739.65	9.5517
1741.16	9.87714
1742.68	9.99528
1744.19	9.7183
1745.7	10.3653
1747.22	10.8283
1748.73	10.3299
1750.24	10.0979
1751.76	9.43086
1753.27	10.0285
1754.78	9.47189
1756.29	9.01604
1757.8	8.82383
1759.31	9.05049
1760.83	9.06712
1762.34	8.75924
1763.85	7.99738
1765.36	7.4365
1766.87	6.62609
1768.38	6.42553
1769.89	5.81759
1771.39	4.70421
1772.9	4.10883
1774.41	3.98147
1775.92	3.82355
1777.43	4.06835
1778.94	3.96936
1780.44	3.38525
1781.95	2.69653
1783.46	3.16917
1784.96	3.034
1786.47	3.08532
1787.97	3.03033
1789.48	2.72471
1790.99	2.7696
1792.49	2.99807
1794	4.00158
1795.5	3.60472
1797	3.58029
1798.51	4.33981
1800.01	4.79463
1801.51	5.60142
1803.02	4.95743
1804.52	4.96939
1806.02	5.2287
1807.53	4.78391
1809.03	4.17606
1810.53	4.23247
1812.03	3.90852
1813.53	3.85245
1815.03	3.61922
1816.53	3.53551
1818.03	3.61807
1819.53	3.82403
1821.03	3.92235
1822.53	3.99894
1824.03	3.56695
1825.53	3.45272
1827.03	3.11648
1828.53	2.78224
1830.02	2.44445
1831.52	2.56969
1833.02	2.83653
1834.52	2.75487
1836.01	2.99616
1837.51	2.55251
1839.01	2.50282
1840.5	2.75338
1842	2.34584
1843.49	2.69735
1844.99	3.29531
1846.48	3.83853
1847.98	4.04749
1849.47	4.70592
1850.97	4.2154
1852.46	4.16746
1853.95	4.51515
1855.45	4.12439
1856.94	4.73833
1858.43	4.96468
1859.93	5.42774
1861.42	5.70707
1862.91	6.10194
1864.4	5.6301
1865.89	5.79919
1867.38	5.96551
1868.87	6.7748
1870.36	6.63808
1871.85	6.69518
1873.34	7.28751
1874.83	6.88373
1876.32	6.09795
1877.81	5.88939
1879.3	6.36662
1880.79	6.28121
1882.28	6.24628
1882.52	6.49987
1884.02	6.27909
1885.51	5.73862
1887.01	6.08529
1888.5	6.51236
1889.99	7.0114
1891.49	6.85071
1892.98	7.47721
1894.47	7.16973
1895.97	6.37552
1897.46	6.39631
1898.95	5.88954
1900.44	5.80727
1901.93	5.62266
1903.42	6.08487
1904.91	6.6289
1906.4	6.24556
1907.89	6.0431
1909.38	5.50314
1910.87	5.17318
1912.36	5.25557
1913.85	4.5993
1915.34	4.11813
1916.83	3.94478
1918.32	3.89832
1919.8	3.74944
1921.29	3.50119
1922.78	3.41275
1924.27	1.96079
1925.75	1.46777
1927.24	1.2622
1928.73	1.12374
1930.21	1.31789
1931.7	0.635739
1933.18	0.579549
1934.67	-0.00703243
1936.15	0.14276
1937.64	0.384859
1939.12	0.504024
1940.61	0.774455
1942.09	1.10268
1943.57	0.828171
1945.06	0.954221
1946.54	1.52572
1948.02	1.59157
1949.51	1.83094
1950.99	2.74055
1952.47	3.45657
1953.95	3.85003
1955.43	4.36583
1956.91	4.75306
1958.4	4.84887
1959.88	5.45465
1961.36	6.08266
1962.84	5.8277
1964.32	6.60511
1965.8	6.94723
1967.27	7.34431
1968.75	6.72957
1970.23	7.2379
1971.71	8.21112
1973.19	7.98921
1974.67	8.1287
1976.14	7.94396
1977.62	9.0664
1979.1	8.83992
1980.58	8.70648
1982.05	8.9535
1983.53	8.09558
1985	8.3823
1986.48	8.64495
1987.95	8.20804
1989.43	8.09943
1990.9	8.21005
1992.38	8.29258
1993.85	8.50671
1995.33	7.42329
1996.8	6.75231
1998.27	6.28946
1999.75	6.73198
2001.22	7.49709
2002.69	7.29679
2004.16	6.25266
2005.64	5.62123
2007.11	5.06633
2008.58	5.36386
2010.05	5.54116
2011.52	5.41073
2012.99	4.79827
2014.46	5.03639
2015.93	5.19197
2017.4	4.82128
2018.87	4.65115
2020.34	4.93874
2021.81	5.35804
2023.28	6.07964
2024.75	6.98387
2026.22	7.37201
2027.69	7.63566
2029.15	7.62704
2030.62	7.66606
2032.09	7.73223
2033.56	8.24066
2035.02	8.39059
2036.49	8.67524
2037.96	9.74585
2039.42	9.76861
2040.89	9.99888
2042.35	10.0465
2043.82	10.4539
2045.28	10.5892
2046.75	10.9967
2048.21	11.6932
2049.67	11.9563
2051.14	12.0462
2052.6	11.6256
2054.07	11.8085
2055.53	11.4478
2056.99	10.9628
2058.45	10.9387
2059.92	10.9097
2061.38	10.2623
2062.84	9.69744
2064.3	9.25501
2065.76	8.78972
2067.22	8.43477
2068.68	7.84209
2070.14	8.29725
2071.6	7.94566
2073.06	7.56827
2074.52	7.08299
2075.98	6.31818
2077.44	5.88209
2078.9	5.53047
2080.36	5.5456
2081.82	5.3467
2083.27	5.21669
2084.73	5.08051
2086.19	4.83592
2087.65	4.73313
2089.1	4.67777
2090.56	4.38813
2092.02	4.57586
2093.47	4.85517
2094.93	5.19565
2096.38	5.17122
2097.84	5.01244
2099.29	5.23623
2100.75	5.22494
2102.2	5.06663
2103.66	5.66662
2105.11	6.19518
2106.56	6.53903
2108.02	6.565
2109.47	7.22364
2110.92	7.38473
2112.38	7.79353
2113.83	7.66161
2115.28	7.32974
2116.73	7.26973
2118.18	7.95032
2119.63	8.17205
2121.09	7.72065
2122.54	7.62773
2123.99	7.70128
2125.44	8.25486
2126.89	7.93351
2128.34	8.05197
2129.79	7.87241
2131.23	7.67649
2132.68	7.99954
2134.13	7.69604
2135.58	7.97208
2137.03	8.27345
2138.48	8.41091
2139.92	7.90968
2141.37	8.274
2142.82	8.04148
2144.27	8.26867
2145.71	8.24308
2147.16	8.18921
2148.6	7.86423
2150.05	7.57752
2151.49	7.51451
2152.94	7.21013
2154.38	7.35759
2155.83	7.37296
2157.27	6.91986
2158.72	7.60059
2160.16	7.07539
2161.6	6.88849
2163.05	6.0531
2164.49	6.10007
2165.93	5.97052
2167.38	5.63376
2168.82	5.70097
2170.26	5.41482
2171.7	5.70701
2173.14	5.6008
2174.58	6.0133
2176.03	6.42708
2177.47	6.85632
2178.91	6.39787
2180.35	6.21065
2181.79	6.15774
2183.23	5.51252
2184.67	5.19485
2186.1	4.44254
2187.54	3.69369
2188.98	3.77639
2190.42	4.12714
2191.86	3.58811
2193.3	3.46858
2194.73	3.59062
2196.17	3.41335
2197.61	3.5038
2199.05	3.45196
2200.48	3.80282
2201.92	3.62288
2203.35	3.63104
2204.79	4.0017
2206.22	3.97657
2207.66	3.67676
2209.1	2.96521
2210.53	2.28902
2211.97	2.42633
2213.4	3.22145
2214.83	3.67888
2216.27	3.67226
2217.7	3.27996
2219.13	3.42287
2220.57	4.0632
2222	5.00359
2223.43	5.89673
2224.86	7.00456
2226.29	7.92234
2227.72	7.89254
2229.16	8.57843
2230.59	8.70273
2232.02	7.93014
2233.45	7.86345
2234.88	7.89936
2236.31	8.78316
2237.74	8.68597
2239.17	8.72789
2240.6	9.13834
2242.03	9.34777
2243.45	9.99454
2244.88	10.4408
2246.31	10.6729
2247.74	11.1784
2249.17	10.9
2250.59	10.0595
2252.02	10.3582
2253.45	10.3456
2254.87	9.89128
2256.3	9.38472
2257.73	9.19403
2259.15	8.3287
2260.58	8.56566
2262	8.35133
2263.43	7.73936
2264.85	7.97608
2266.28	7.81535
2267.7	7.38606
2269.13	6.68255
2270.55	6.62932
2271.97	5.99152
2273.4	5.00532
2274.82	4.62426
2276.24	4.44548
2277.67	3.95199
2279.09	3.62996
2280.51	3.56982
2281.93	3.80918
2283.35	3.99391
2284.77	3.97029
2286.2	3.51427
2287.62	3.23778
2289.04	3.74981
2290.46	3.33179
2291.88	3.29086
2293.3	3.57064
2294.72	4.44691
2296.13	4.4414
2297.55	4.10399
2298.97	4.23515
2300.39	4.94043
2301.81	4.94411
2303.23	4.95636
2304.64	5.31781
2306.06	6.01648
2307.48	6.55002
2308.89	6.60916
2310.31	6.4549
2311.73	6.82208
2313.14	6.96151
2314.56	7.08663
2315.98	7.43772
2317.39	7.60472
2318.81	8.10306
2320.22	6.90542
2321.64	6.53463
2323.05	6.45269
2324.46	6.46423
2325.88	5.97669
2327.29	5.98268
2328.7	5.60999
2330.12	5.43
2331.53	5.87945
2332.94	5.48398
2334.35	5.32022
2335.77	5.97429
2337.18	5.5472
2338.59	4.79543
2340	4.78784
2341.41	4.3782
2342.82	3.59168
2344.23	3.58966
2345.64	3.37836
2347.05	3.1083
2348.46	3.04873
2349.87	2.79222
2351.28	2.41635
2352.69	2.10328
2354.1	1.79311
2355.51	1.66877
2356.91	1.60952
2358.32	1.76121
2359.73	1.40383
2361.14	0.77215
2362.54	1.93752
2363.95	2.7374
2365.36	4.21822
2366.76	4.69627
2368.17	5.25658
2369.58	5.19039
2370.98	5.2182
2372.39	5.18169
2373.79	4.73238
2375.2	4.66544
2376.6	4.31906
2378	4.55907
2379.41	4.18457
2380.81	4.00685
2382.22	4.73472
2383.62	4.70343
2385.02	4.86666
2386.43	4.81155
2387.83	4.58741
2389.23	4.25259
2390.63	3.72706
2392.03	3.88413
2393.44	4.31392
2394.84	4.895
2396.24	4.40878
2397.64	4.61391
2399.04	4.23339
2400.44	4.59254
2401.84	4.47348
2403.24	4.72965
2404.64	4.6684
2406.04	5.15993
2407.44	4.81602
2408.84	5.46347
2410.23	5.74281
2411.63	5.2788
2413.03	5.19246
2414.43	5.49553
2415.83	5.56429
2417.22	6.64324
2418.62	7.17065
2420.02	7.16147
2421.41	7.58643
2422.81	7.68019
2424.21	7.82035
2425.6	7.62179
2427	7.45185
2428.39	7.61039
2429.79	7.57385
2431.18	7.61777
2432.58	8.23343
2433.97	8.04746
2435.36	8.15213
2436.76	7.15794
2438.15	6.70252
2439.54	6.63871
2440.94	6.75076
2442.33	6.42096
2443.72	6.02966
2445.12	6.0035
2446.51	6.20483
2447.9	6.21507
2449.29	6.30207
2450.68	6.16209
2452.07	5.7578
2453.46	5.2431
2454.85	4.5921
2456.24	4.40143
2457.64	4.03649
2459.02	3.78995
2460.41	3.74199
2461.8	3.48431
2463.19	3.11644
2464.58	2.62728
2465.97	2.25291
2467.36	2.29145
2468.75	1.81556
2470.13	1.8063
2471.52	1.82882
2472.91	2.28602
2474.3	1.91639
2475.68	2.38904
2477.07	2.61908
2478.45	2.78401
2479.84	1.67296
2481.23	1.89043
2482.61	2.12083
2484	2.56508
2485.38	2.69029
2486.77	2.98835
2488.15	2.84038
2489.54	3.45637
2490.92	3.53862
2492.3	2.97608
2493.69	3.04394
2495.07	3.10599
2496.45	3.38609
2497.84	3.78278
2499.22	3.16303
2500.6	2.99585
2501.98	3.40997
2503.36	3.53054
2504.75	3.93688
2506.13	4.06701
2507.51	4.41032
2508.89	4.16219
2510.27	4.46378
2511.65	4.39267
2513.03	4.51379
2514.41	4.29317
2515.79	4.27187
2517.17	4.0845
2518.55	4.57177
2519.93	4.1552
2521.3	4.33085
2522.68	4.56531
2524.06	4.57034
2525.44	5.11192
2526.82	4.71741
2528.19	4.81648
2529.57	4.30789
2530.95	3.42037
2532.32	2.7487
2533.7	2.62586
2535.08	2.30889
2536.45	2.02848
2537.83	2.46278
2539.2	2.55121
2540.58	2.65943
2541.95	3.09903
2543.33	3.16238
2544.7	3.31763
2546.08	3.53023
2547.45	3.39255
2548.82	3.70739
2550.2	4.32029
2551.57	4.09044
2552.94	3.60324
2554.32	4.12752
2555.69	4.66174
2557.06	4.73273
2558.43	4.92852
2559.8	4.15688
2561.18	3.75337
2562.55	3.91585
2563.92	3.77142
2565.29	3.75266
2566.66	3.22501
2568.03	3.06301
2569.4	3.34041
2570.77	3.4227
2572.14	2.90773
2573.51	2.45092
2574.88	2.28042
2576.25	2.08654
2577.61	2.17192
2578.98	2.39181
2580.35	1.8314
2581.72	1.55657
2583.09	1.20813
2584.45	0.647031
2585.82	0.20083
2587.19	0.316957
2588.55	0.354824
2589.92	0.470446
2591.29	0.309062
2592.65	0.00508194
2594.02	-0.0477611
2595.38	-0.531497
2596.75	-0.680497
2598.11	-1.18185
2599.48	-0.87836
2600.84	-0.139303
2602.21	0.088621
2603.57	0.547862
2604.93	0.433175
2606.3	0.933541
2607.66	0.74132
2609.02	1.09639
2610.39	1.63204
2611.75	1.75703
2613.11	2.06239
2614.47	2.52525
2615.83	3.13732
2617.19	3.68288
2618.56	3.65173
2619.92	3.40207
2621.28	3.57718
2622.64	3.90788
2624	4.0428
2625.36	3.91466
2626.72	4.25051
2628.08	4.13084
2629.44	4.03156
2630.8	4.13988
2632.15	4.37475
2633.51	4.49751
2634.87	4.79154
2636.23	5.14253
2637.59	5.23554
2638.94	5.80321
2640.3	6.02042
2641.66	6.07255
2643.02	6.49349
2644.37	5.92828
2645.73	5.76673
2647.09	5.10749
2648.44	4.61214
2649.8	4.6008
2651.15	4.01146
2652.51	4.01756
2653.86	4.10348
2655.22	4.61196
2656.57	5.24634
2657.93	5.07967
2659.28	4.30028
2660.63	4.05644
2661.99	3.9093
2663.34	3.32899
2664.69	3.07893
2666.05	2.98474
2667.4	2.77338
2668.75	2.85576
2670.1	2.29177
2671.45	1.8998
2672.81	1.78323
2674.16	2.11219
2675.51	2.3992
2676.86	2.75577
2678.21	2.59294
2679.56	3.00612
2680.91	3.11479
2682.26	3.43472
2683.61	3.29211
2684.96	3.2357
2686.31	2.81166
2687.66	2.8978
2689	3.44984
2690.35	3.53406
2691.7	4.095
2693.05	4.66723
2694.4	5.05807
2695.74	5.25673
2697.09	5.47031
2698.44	6.30474
2699.79	7.56779
2701.13	8.35419
2702.48	9.21504
2703.83	9.4115
2705.17	10.6149
2706.52	11.2322
2707.86	11.3295
2709.21	11.6827
2710.55	12.2288
2711.9	12.2936
2713.24	12.807
2714.58	13.543
2715.93	14.5057
2717.27	14.8723
2718.62	14.9642
2719.96	15.8096
2721.3	15.9911
2722.65	16.1207
2723.99	16.2826
2725.33	15.8603
2726.67	15.7086
2728.01	15.3368
2729.35	15.0447
2730.7	15.0301
2732.04	15.0716
2733.38	15.3832
2734.72	14.8282
2736.06	14.6952
2737.4	14.1068
2738.74	13.9836
2740.08	13.7458
2741.42	13.0169
2742.76	12.906
2744.1	12.7424
2745.43	12.1889
2746.77	12.1515
2748.11	11.5468
2749.45	11.1675
2750.79	11.0521
2752.12	10.8866
2753.46	10.757
2754.8	10.6656
2756.14	9.90977
2757.47	9.15742
2758.81	9.11861
2760.14	9.01982
2761.48	7.81164
2762.81	8.06525
2764.15	7.73085
2765.49	7.96785
2766.82	8.08704
2768.16	8.4092
2769.49	8.33696
2770.82	8.11927
2772.16	8.34962
2773.49	8.04856
2774.82	7.88759
2776.16	7.56939
2777.49	7.34273
2778.82	7.023
2780.16	6.87782
2781.49	6.90156
2782.82	6.70766
2784.15	6.12406
2785.48	6.37964
2786.82	6.24721
2788.15	5.68998
2789.48	5.35825
2790.81	5.47516
2792.14	5.20825
2793.47	4.83489
2794.8	4.47404
2796.13	4.90608
2797.46	4.84053
2798.79	4.65358
2800.12	4.04761
2801.44	3.40692
2802.77	3.96486
2804.1	4.59284
2805.43	5.09466
2806.76	4.51537
2808.08	4.48626
2809.41	5.1868
2810.74	5.56662
2812.07	5.3906
2813.39	5.8831
2814.72	6.14106
2816.05	6.84874
2817.37	7.81312
2818.7	9.11595
2820.02	10.0615
2821.35	10.8452
2822.67	12.0631
2824	14.1644
2825.32	16.211
2826.65	18.1224
2827.97	20.4867
2829.3	23.2913
2830.62	25.5189
2831.94	28.6428
2833.26	31.8852
2834.59	33.8076
2835.91	36.2356
2837.23	38.5791
2838.56	41.3087
2839.88	44.3935
2841.2	47.4414
2842.52	51.335
2843.84	55.499
2845.16	58.7667
2846.48	63.0595
2847.8	68.2823
2849.12	71.8878
2850.45	76.6274
2851.77	81.74
2853.08	86.0792
2854.4	90.9694
2855.72	96.0375
2857.04	101.035
2858.36	106.526
2859.68	112.168
2861	117.262
2862.32	122.63
2863.63	127.881
2864.95	134.24
2866.27	139.599
2867.59	145.76
2868.9	151.523
2870.22	157.16
2871.54	162.862
2872.85	168.302
2874.17	174.271
2875.48	180.634
2876.8	185.98
2878.11	191.607
2879.43	197.895
2880.74	203.257
2882.06	208.923
2883.37	214.343
2884.69	220.052
2886	224.532
2887.31	230.318
2888.63	235.818
2889.94	240.617
2891.25	245.462
2892.57	250.299
2893.88	255.176
2895.19	259.346
2896.5	264.323
2897.82	268.407
2899.13	271.757
2900.44	274.717
2901.75	279.896
2903.06	283.64
2904.37	287.949
2905.68	291.832
2906.99	295.864
2908.3	299.432
2909.61	302.526
2910.92	305.382
2912.23	309.991
2913.54	313.668
2914.85	316.421
2916.16	320.009
2917.46	322.262
2918.77	324.377
2920.08	326.512
2921.39	328.458
2922.7	329.444
2924	330.214
2925.31	331.058
2926.62	330.61
2927.92	331.139
2929.23	330.413
2930.54	329.444
2931.84	326.966
2933.15	325.698
2934.45	323.408
2935.76	320.818
2937.06	317.919
2938.37	315.091
2939.67	310.933
2940.98	307.125
2942.28	302.018
2943.58	296.967
2944.89	291.984
2946.19	286.074
2947.49	281.348
2948.8	276.777
2950.1	271.45
2951.4	266.221
2952.7	260.692
2954.01	254.815
2955.31	248.8
2956.61	243.015
2957.91	237.873
2959.21	232.248
2960.51	226.462
2961.81	221.106
2963.11	215.521
2964.41	209.806
2965.71	204.963
2967.01	200.384
2968.31	194.573
2969.61	189.495
2970.91	183.793
2972.21	178.83
2973.51	173.082
2974.81	168.479
2976.1	163.557
2977.4	158.953
2978.7	153.404
2980	148.507
2981.29	142.658
2982.59	137.15
2983.89	131.669
2985.18	125.92
2986.48	120.467
2987.78	114.826
2989.07	109.741
2990.37	104.683
2991.66	98.6862
2992.96	93.2578
2994.25	86.9608
2995.55	81.423
2996.84	76.2247
2998.14	71.2548
2999.43	65.9539
3000.73	61.2377
3002.02	57.4262
3003.31	53.2149
3004.61	48.3099
3005.9	44.3041
3007.19	40.3537
3008.48	37.2701
3009.77	34.3382
3011.07	31.0939
3012.36	28.7645
3013.65	25.3838
3014.94	22.1367
3016.23	19.9825
3017.52	18.0116
3018.81	15.8023
3020.1	13.7458
3021.4	12.0023
3022.68	10.7848
3023.97	9.2675
3025.26	8.01275
3026.55	7.27293
3027.84	6.45596
3029.13	4.92343
3030.42	4.73297
3031.71	4.377
3033	4.01972
3034.28	3.293
3035.57	2.8423
3036.86	2.88761
3038.15	2.9214
3039.43	3.53765
3040.72	3.64788
3042.01	3.75057
3043.29	4.3861
3044.58	4.70404
3045.87	4.58371
3047.15	4.9966
3048.44	6.00025
3049.72	6.41923
3051.01	6.76412
3052.29	7.12022
3053.58	7.0856
3054.86	7.13486
3056.15	7.27119
3057.43	7.2977
3058.71	7.41521
3060	8.01057
3061.28	8.14204
3062.56	8.58339
3063.84	8.49167
3065.13	8.25565
3066.41	8.29261
3067.69	7.74785
3068.97	7.96598
3070.26	8.17572
3071.54	8.16934
3072.82	7.93861
3074.1	7.07667
3075.38	6.29251
3076.66	5.7759
3077.94	5.02851
3079.22	4.95955
3080.5	4.44535
3081.78	4.06519
3083.06	2.71287
3084.34	2.35394
3085.62	1.99826
3086.9	1.37932
3088.18	1.5632
3089.45	1.13167
3090.73	1.4484
3092.01	1.00615
3093.29	0.738136
3094.56	1.16871
3095.84	1.18224
3097.12	0.770273
3098.4	0.475433
3099.67	1.2379
3100.95	1.13462
3102.22	1.69408
3103.5	1.79671
3104.78	2.26951
3106.05	2.25531
3107.33	3.13867
3108.6	3.38413
3109.88	4.08815
3111.15	4.97935
3112.43	5.77247
3113.7	6.12082
3114.97	6.5219
3116.25	7.60953
3117.52	8.32836
3118.79	9.06804
3120.07	9.88503
3121.34	10.5838
3122.61	11.4011
3123.88	12.4741
3125.16	13.1034
3126.43	14.0666
3127.7	14.5916
3128.97	16.1064
3130.24	17.9543
3131.51	19.4293
3132.79	21.3264
3134.06	22.2549
3135.33	23.0049
3136.6	24.1281
3137.87	24.9475
3139.14	26.3505
3140.41	27.8414
3141.67	29.3452
3142.94	30.6293
3144.21	31.8495
3145.48	33.044
3146.75	34.5904
3148.02	35.5504
3149.29	36.3581
