#Acq. time (s)=	45
#Accumulations=	2
#Range (cm-¹)=	200...3150
#Windows=	2
#Auto scanning=	Off
#Autofocus=	Off
#Macrospot=	Off
#AutoExposure=	Off
#Spike filter=	Multiple accum.
#Delay time (s)=	0
#Binning=	1
#Readout mode=	Signal
#DeNoise=	Off
#ICS correction=	On
#Dark correction=	Off
#Inst. Process=	Off
#Detector Gain=	Best Dynamic Range
#Detector ADC=	20 kHz       
#Detector temperature (°C)=	-69.85
#Instrument=	LabRAM HR Evol
#Detector=	Synapse
#Objective=	x100
#Grating=	600 gr/mm
#ND Filter=	100%
#Laser (nm)=	532 
#Hole=	100.021
#Range=	Auto
#Laser Pol.=	No
#Raman. Pol.=	No
#Laser Pol. (°)=	-0.0007625
#Raman Pol. (°)=	89.9995
#Collection=	Microscope
#StageXY=	Marzhauser
#StageZ=	Marzhauser
#X (µm)=	-5919.2
#Y (µm)=	2878.7
#Z (µm)=	-223.45
#Full time(mm:ss)=	3:18
#Project=	
#Sample=	
#Site=	
#Title=	Thy_20_09_32_2x_45s_532 nm_x100_100%_600 gr_mm
#Remark=	
#Date=	29.06.2022 12:52
#Acquired=	29.06.2022 12:52:55
#Base:Fit=	10.08.2022 09:52:02
#Base:Fit=	10.08.2022 09:52:12
#Base:Sub=	10.08.2022 09:54:21
#Filter:Polynom=	16.08.2022 10:24:04
#AxisType[0]=Intens
#AxisUnit[0]=Cnt
#AxisType[1]=Spectr
#AxisUnit[1]=1/cm
200.523	9.40632
202.339	10.5152
204.154	10.406
205.967	9.6604
207.781	8.52706
209.596	7.5151
211.409	7.11787
213.222	6.73685
215.034	6.0224
216.848	6.82695
218.659	6.32483
220.47	7.26608
222.281	7.27871
224.091	6.96721
225.903	7.69492
227.713	7.82885
229.522	8.06655
231.331	8.16494
233.14	7.78592
234.948	7.522
236.756	7.31494
238.566	7.19002
240.373	7.05681
242.18	7.07638
243.986	7.06947
245.792	6.68596
247.598	6.17585
249.403	5.89593
251.208	5.44041
253.013	4.80459
254.818	4.31391
256.624	3.84995
258.427	3.52841
260.231	3.91531
262.034	3.94139
263.836	3.33708
265.638	3.9561
267.44	4.18653
269.242	3.39758
271.043	3.71555
272.844	3.96985
274.645	3.81956
276.445	4.31112
278.245	5.11287
280.044	4.32637
281.843	4.07776
283.642	4.0755
285.44	3.78404
287.238	3.7623
289.036	4.11496
290.833	5.28255
292.63	4.97855
294.425	6.16498
296.221	7.04302
298.017	7.85895
299.813	9.4942
301.608	10.7437
303.403	10.9126
305.198	11.7135
306.992	13.2308
308.786	14.0756
310.579	15.6267
312.371	15.6747
314.163	16.2882
315.956	17.2408
317.748	17.662
319.54	17.7418
321.331	17.799
323.122	17.9131
324.911	17.3821
326.701	17.4882
328.491	16.5304
330.281	16.2954
332.071	15.8369
333.857	14.806
335.646	14.4434
337.434	14.0466
339.222	13.7661
341.008	12.754
342.795	12.7308
344.582	12.1152
346.369	12.4696
348.153	12.4276
349.939	12.1661
351.724	10.7724
353.51	10.3408
355.292	9.72052
357.077	8.72392
358.861	8.64113
360.643	7.63718
362.426	6.99159
364.21	6.34467
365.99	6.05959
367.773	6.01056
369.555	4.81504
371.335	5.07314
373.116	5.21039
374.897	5.58214
376.676	6.1866
378.456	6.15709
380.236	6.16092
382.014	7.25014
383.793	8.24281
385.57	8.41717
387.349	8.62456
389.127	9.75964
390.903	8.99551
392.681	9.09078
394.456	9.00568
396.233	9.21543
398.007	9.67835
399.784	8.6924
401.56	7.8129
403.333	8.14599
405.108	7.89299
406.881	8.35643
408.656	7.90117
410.428	7.88087
412.202	7.90869
413.973	8.08611
415.746	8.66921
417.517	8.34453
419.29	8.86698
421.06	8.48778
422.831	9.94566
424.601	10.9451
426.37	11.2411
428.141	11.5504
429.909	10.9746
431.679	10.9377
433.447	10.5071
435.216	10.8348
436.983	10.6482
438.75	10.2919
440.519	9.91975
442.285	10.0536
444.052	9.58713
445.818	9.81479
447.583	9.91644
449.349	9.49748
451.114	10.4751
452.878	10.9193
454.643	10.7379
456.407	11.5467
458.169	12.4759
459.934	13.7948
461.696	14.3365
463.458	15.0682
465.222	15.9528
466.983	16.7403
468.744	17.757
470.507	17.9869
472.267	17.1409
474.027	16.9237
475.787	16.106
477.548	16.3337
479.307	15.5369
481.065	15.5438
482.823	14.9388
484.583	15.4553
486.341	16.5915
488.098	16.6427
489.855	18.0141
491.612	19.4324
493.37	19.4334
495.126	21.563
496.881	21.9698
498.636	23.4073
500.391	24.5005
502.148	24.829
503.902	24.0391
505.656	23.5519
507.409	23.9502
509.162	24.7191
510.915	26.2618
512.668	25.0172
514.42	25.0785
516.174	24.9555
517.925	24.5567
519.676	24.5839
521.427	24.7473
523.178	24.5288
524.928	24.5996
526.678	23.484
528.427	22.9388
530.176	21.9014
531.925	21.4384
533.673	21.2839
535.422	20.6267
537.169	20.2963
538.917	20.5919
540.664	19.8394
542.411	19.3818
544.157	19.9187
545.903	19.4631
547.649	18.8447
549.395	17.3981
551.14	17.2287
552.884	16.5688
554.629	14.6402
556.373	13.4015
558.117	11.8666
559.86	11.1494
561.603	10.8495
563.346	9.88489
565.089	10.025
566.831	10.2898
568.573	10.232
570.314	10.1431
572.053	10.8857
573.794	10.9769
575.534	9.97287
577.274	10.401
579.014	10.0733
580.754	9.69949
582.493	10.4959
584.23	10.202
585.968	9.49409
587.706	7.77439
589.444	7.00701
591.181	6.34076
592.919	5.97582
594.653	6.48053
596.39	6.14215
598.126	6.05067
599.862	5.07006
601.595	5.31972
603.33	5.56784
605.065	5.43058
606.8	5.5471
608.532	5.45039
610.266	5.87171
611.999	6.86236
613.732	6.3448
615.463	7.15979
617.196	7.33605
618.928	7.55169
620.66	7.42555
622.389	8.08299
624.12	8.219
625.851	9.57807
627.58	10.1193
629.31	10.8757
631.04	11.7833
632.767	12.8094
634.497	13.1596
636.223	13.83
637.952	13.9683
639.68	13.9637
641.406	15.0219
643.134	16.7072
644.861	16.9611
646.586	18.8049
648.312	19.9777
650.037	20.1494
651.762	21.5947
653.486	21.4051
655.211	21.6888
656.936	22.3125
658.659	22.4371
660.383	22.1681
662.105	23.0484
663.829	23.9245
665.55	23.9013
667.273	23.7815
668.994	23.7437
670.716	23.1777
672.436	22.7461
674.158	22.1339
675.877	22.4896
677.598	22.879
679.317	22.9053
681.035	24.2749
682.755	24.5728
684.473	25.3636
686.192	25.532
687.909	26.089
689.628	26.3309
691.344	27.1981
693.06	27.4019
694.778	27.9679
696.493	29.3052
698.211	30.1228
699.925	29.9471
701.64	30.7768
703.356	30.943
705.07	31.6176
706.783	33.3864
708.498	35.5157
710.211	37.7639
711.924	40.2107
713.638	40.5479
715.35	42.1133
717.061	43.4823
718.774	44.4345
720.485	45.2558
722.196	47.2313
723.906	47.7383
725.618	49.5224
727.328	51.3154
729.037	51.6128
730.746	52.5491
732.456	53.5963
734.165	53.6544
735.873	54.1858
737.58	54.7369
739.289	55.4962
740.997	56.9068
742.703	55.8069
744.41	55.9664
746.116	55.9269
747.823	56.9815
749.529	56.9326
751.234	57.4969
752.938	58.0538
754.643	59.4466
756.347	60.1119
758.051	60.4584
759.756	60.3583
761.459	61.3907
763.162	63.0625
764.865	63.4256
766.567	63.6911
768.269	63.6094
769.97	64.3381
771.671	64.7733
773.372	64.2407
775.073	64.9148
776.773	66.1734
778.473	66.3268
780.174	66.9253
781.874	68.0233
783.573	68.2304
785.271	68.539
786.97	69.2265
788.668	69.7251
790.365	70.6283
792.063	70.9694
793.76	72.4286
795.456	72.6109
797.153	72.3767
798.847	72.5576
800.543	74.6983
802.238	74.2656
803.933	74.7773
805.628	75.3291
807.322	76.5034
809.017	75.5096
810.71	75.881
812.404	76.5754
814.097	75.8855
815.79	76.034
817.483	76.2265
819.173	76.5887
820.865	77.4192
822.556	77.2608
824.248	77.0821
825.939	75.7498
827.629	75.4798
829.318	75.5267
831.008	75.0347
832.697	76.0085
834.387	75.5905
836.076	75.2055
837.765	74.4178
839.451	74.3882
841.139	72.8891
842.827	73.1567
844.514	73.6602
846.2	72.9764
847.886	72.2112
849.573	70.6175
851.259	69.4268
852.943	69.7636
854.629	68.5518
856.314	67.4538
857.997	65.6306
859.682	64.8455
861.366	63.8801
863.05	63.304
864.732	62.1711
866.415	60.6126
868.098	58.4018
869.779	56.7008
871.461	55.5295
873.141	54.118
874.823	54.0046
876.505	54.0695
878.184	53.7845
879.865	52.7515
881.545	53.0248
883.223	53.4048
884.903	53.2218
886.581	52.2981
888.26	53.1156
889.937	53.1494
891.616	52.9441
893.294	51.5443
894.97	52.3453
896.648	52.0644
898.323	51.0173
900	51.695
901.675	50.899
903.351	49.8691
905.026	50.0659
906.701	48.3037
908.375	47.647
910.05	47.23
911.723	46.6497
913.398	46.5294
915.07	46.4768
916.742	46.4091
918.415	45.9505
920.087	45.8721
921.76	45.7913
923.43	45.4709
925.103	44.9163
926.773	44.3012
928.443	42.2112
930.114	40.706
931.783	40.2627
933.454	39.5975
935.123	39.7405
936.791	39.5459
938.461	38.2599
940.128	37.7337
941.796	36.0613
943.464	35.617
945.131	34.9396
946.797	34.6852
948.465	33.7451
950.131	33.8917
951.797	34.1767
953.462	34.2325
955.128	34.5295
956.793	33.6388
958.457	34.1119
960.121	32.1009
961.786	32.0699
963.45	32.6592
965.113	34.2784
966.775	35.2109
968.44	35.9167
970.102	36.8705
971.763	37.5251
973.425	38.061
975.086	38.9483
976.748	39.4511
978.409	40.7048
980.069	41.6409
981.729	41.9996
983.388	42.6828
985.048	41.7053
986.708	42.3859
988.367	42.555
990.025	42.0817
991.683	42.1813
993.341	41.8005
994.998	41.8191
996.655	42.117
998.312	41.3984
999.969	41.4911
1001.62	40.9581
1003.28	40.1818
1004.94	39.3964
1006.59	38.3185
1008.25	37.2238
1009.9	35.8978
1011.56	34.7575
1013.21	34.6537
1014.86	34.592
1016.52	33.2622
1018.17	32.1307
1019.82	30.453
1021.48	29.0737
1023.13	27.4586
1024.78	26.5641
1026.43	26.8975
1028.08	25.9778
1029.73	25.7083
1031.38	25.0207
1033.03	24.2777
1034.68	22.3204
1036.33	21.5374
1037.98	20.4335
1039.63	19.6925
1041.28	20.1751
1042.93	19.7536
1044.57	22.0908
1046.22	22.2526
1047.87	22.7759
1049.52	22.741
1051.16	22.8674
1052.81	22.4412
1054.45	22.9936
1056.1	23.5046
1057.75	23.6349
1059.39	22.7379
1061.04	22.6253
1062.68	22.99
1064.32	22.4336
1065.97	21.1974
1067.61	21.3725
1069.25	21.4981
1070.9	21.4577
1072.54	21.5248
1074.18	22.3948
1075.82	22.58
1077.47	22.4183
1079.11	22.6825
1080.75	22.5131
1082.39	22.3689
1084.03	22.105
1085.67	21.5904
1087.31	21.195
1088.95	20.5613
1090.59	20.5918
1092.22	21.0819
1093.86	20.8841
1095.5	21.4392
1097.14	21.3006
1098.78	20.9852
1100.41	21.3649
1102.05	21.6268
1103.69	21.5065
1105.32	21.7898
1106.96	22.6899
1108.59	22.7447
1110.23	21.7281
1111.86	22.1692
1113.5	20.8923
1115.13	21.4084
1116.77	21.5051
1118.4	21.8781
1120.03	21.5226
1121.67	21.6507
1123.3	20.8119
1124.93	20.39
1126.56	20.0812
1128.19	18.8734
1129.83	18.1355
1131.46	17.3622
1133.09	16.5525
1134.72	16.1627
1136.35	15.6593
1137.98	16.0478
1139.61	15.0464
1141.24	14.6626
1142.86	14.2886
1144.49	14.2165
1146.12	13.0065
1147.75	11.9039
1149.38	12.1346
1151	10.47
1152.63	10.149
1154.26	9.08671
1155.88	7.83905
1157.51	6.42816
1159.14	5.9631
1160.76	5.49641
1162.39	4.32046
1164.01	3.97652
1165.63	3.5553
1167.26	2.93873
1168.88	3.30404
1170.51	3.62114
1172.13	4.45879
1173.75	4.75007
1175.38	5.44956
1177	5.753
1178.62	5.90969
1180.24	6.33636
1181.86	5.66573
1183.48	5.77022
1185.1	6.75519
1186.72	7.25798
1188.34	7.49928
1189.96	7.57311
1191.58	8.75979
1193.2	9.73994
1194.82	10.1742
1196.44	13.4189
1198.06	14.3927
1199.68	15.9036
1201.29	17.0074
1202.91	17.8086
1204.53	18.97
1206.14	20.5959
1207.76	21.5145
1209.38	23.4839
1210.99	25.5026
1212.61	27.5344
1214.22	29.8528
1215.84	33.0316
1217.45	35.7325
1219.07	38.456
1220.68	39.7372
1222.29	42.8465
1223.91	44.0832
1225.52	46.6063
1227.13	49.0109
1228.74	51.7617
1230.36	53.7831
1231.97	54.2636
1233.58	56.5688
1235.19	58.4488
1236.8	59.3891
1238.41	61.2924
1240.02	62.3706
1241.63	63.2778
1243.24	65.0606
1244.85	65.844
1246.46	66.7525
1248.07	67.3851
1249.67	69.6989
1251.28	71.152
1252.89	72.0629
1254.5	72.6878
1256.1	73.2577
1257.71	73.1189
1259.32	74.3819
1260.92	74.8921
1262.53	75.6913
1264.13	77.0991
1265.74	78.0043
1267.34	78.075
1268.95	78.8459
1270.55	79.2716
1272.15	81.1547
1273.76	81.0465
1275.36	82.1685
1276.97	83.5205
1278.57	84.6071
1280.17	85.4383
1281.77	85.4534
1283.37	86.4496
1284.97	87.8637
1286.58	88.9529
1288.18	90.2444
1289.78	91.7564
1291.38	92.9592
1292.98	94.9312
1294.58	96.4472
1296.18	98.4564
1297.78	99.4256
1299.37	100.26
1300.97	101.734
1302.57	104.084
1304.17	104.907
1305.77	107.304
1307.36	107.439
1308.96	107.801
1310.55	107.76
1312.15	107.812
1313.75	108.662
1315.34	108.556
1316.94	107.13
1318.53	108.539
1320.13	108.827
1321.72	108.458
1323.32	108.046
1324.91	106.369
1326.5	106.098
1328.1	104.627
1329.69	104.884
1331.28	103.039
1332.87	101.786
1334.47	100.897
1336.06	99.4132
1337.65	98.3672
1339.24	97.2488
1340.83	96.0681
1342.42	94.6847
1344.01	92.6531
1345.6	91.1338
1347.19	88.8916
1348.78	87.0999
1350.37	85.7369
1351.96	84.5896
1353.54	82.3977
1355.13	81.5651
1356.72	79.1071
1358.31	76.9193
1359.89	75.0863
1361.48	73.8794
1363.07	72.7098
1364.65	72.124
1366.24	70.7486
1367.82	70.0872
1369.41	69.5799
1370.99	69.3954
1372.58	69.3438
1374.16	67.968
1375.75	67.3651
1377.33	66.8833
1378.91	66.7072
1380.5	67.2197
1382.08	67.3698
1383.66	66.3238
1385.25	66.0756
1386.83	64.287
1388.41	64.7984
1389.99	64.6366
1391.57	64.3377
1393.15	63.2956
1394.73	63.1347
1396.31	62.0376
1397.89	62.2858
1399.47	60.4098
1401.05	59.6184
1402.63	58.7514
1404.21	58.3925
1405.78	56.9727
1407.36	57.013
1408.94	58.118
1410.52	58.6097
1412.1	60.0942
1413.67	61.3244
1415.25	63.1653
1416.82	65.6713
1418.4	68.7022
1419.98	71.0355
1421.55	73.07
1423.13	75.5152
1424.7	78.9598
1426.28	82.5216
1427.85	86.1459
1429.42	89.7925
1431	93.2641
1432.57	96.0207
1434.14	97.7413
1435.71	100.147
1437.29	103.919
1438.86	107.406
1440.43	109.806
1442	111.812
1443.57	114.396
1445.14	115.362
1446.71	116.927
1448.28	117.376
1449.85	116.974
1451.42	116.219
1452.99	114.78
1454.56	115.208
1456.13	114.006
1457.7	112.3
1459.26	109.882
1460.83	106.814
1462.4	103.314
1463.97	99.54
1465.54	94.5761
1467.1	91.1701
1468.67	86.2507
1470.23	81.6576
1471.8	77.7092
1473.36	73.1147
1474.93	68.6355
1476.49	64.3575
1478.06	59.7976
1479.62	55.3612
1481.19	51.9192
1482.75	47.8869
1484.31	43.8538
1485.88	41.1207
1487.44	38.2035
1489	36.1204
1490.56	34.2867
1492.13	32.7588
1493.69	31.5315
1495.25	30.3747
1496.81	29.9347
1498.37	28.387
1499.93	28.4837
1501.49	28.3789
1503.05	28.9457
1504.61	29.0751
1506.17	28.9599
1507.73	28.1423
1509.28	27.3412
1510.84	27.4823
1512.4	27.7817
1513.96	29.3435
1515.52	30.5657
1517.07	31.7779
1518.63	32.1953
1520.19	32.6947
1521.74	33.3653
1523.3	33.3745
1524.85	33.3739
1526.41	32.1515
1527.96	30.7016
1529.52	30.8011
1531.07	32.2178
1532.63	35.1789
1534.18	36.2363
1535.73	38.9463
1537.29	41.43
1538.84	43.4526
1540.39	45.0491
1541.94	47.1775
1543.5	50.1263
1545.05	53.9674
1546.6	57.9172
1548.15	61.7672
1549.7	65.6175
1551.25	68.1929
1552.8	71.1013
1554.35	73.0605
1555.9	75.2857
1557.45	77.6411
1559	80.1022
1560.55	81.9628
1562.1	83.816
1563.65	86.5046
1565.19	89.8969
1566.74	92.719
1568.29	95.5016
1569.83	97.4449
1571.38	99.8028
1572.93	101.607
1574.47	103.347
1576.02	104.748
1577.56	106.462
1579.11	107.602
1580.66	108.639
1582.2	109.833
1583.74	110.704
1585.29	110.779
1586.83	111.532
1588.38	112.786
1589.92	111.801
1591.46	111.75
1593.01	110.757
1594.55	108.85
1596.09	106.402
1597.63	104.143
1599.17	102.654
1600.71	100.587
1602.25	98.2047
1603.79	97.1655
1605.34	97.165
1606.88	97.9649
1608.41	98.6315
1609.95	98.9699
1611.49	97.9916
1613.03	97.3028
1614.57	95.7592
1616.11	94.8109
1617.65	93.4866
1619.18	93.7031
1620.72	94.705
1622.26	94.3926
1623.79	94.5131
1625.33	93.8707
1626.87	93.6001
1628.4	93.8719
1629.94	94.4107
1631.48	95.1845
1633.01	96.4611
1634.55	97.3897
1636.08	98.905
1637.61	100.015
1639.15	100.34
1640.68	101.642
1642.21	102.919
1643.75	104.384
1645.28	104.77
1646.81	105.201
1648.34	106.614
1649.88	107.24
1651.41	108.454
1652.94	109.427
1654.47	110.69
1656	111.412
1657.53	111.507
1659.06	110.707
1660.59	110.346
1662.12	108.827
1663.65	107.833
1665.18	106.407
1666.71	103.978
1668.24	102.21
1669.76	99.6849
1671.29	97.0413
1672.82	94.6755
1674.35	93.2264
1675.87	90.7872
1677.4	87.5001
1678.93	84.2746
1680.45	81.0622
1681.98	76.6288
1683.5	73.461
1685.03	69.6115
1686.55	65.566
1688.08	62.379
1689.6	57.9266
1691.13	54.0101
1692.65	50.7308
1694.17	47.1999
1695.7	45.6977
1697.22	42.8676
1698.74	40.6173
1700.27	38.1048
1701.79	36.6733
1703.31	34.7349
1704.83	34.1932
1706.35	32.9457
1707.87	30.8684
1709.39	29.1346
1710.91	27.3371
1712.43	25.7498
1713.95	23.5243
1715.47	22.3702
1716.99	20.9945
1718.51	20.9125
1720.03	19.8058
1721.55	19.0516
1723.07	18.9826
1724.58	18.4761
1726.1	18.3713
1727.62	18.1125
1729.13	18.263
1730.65	18.1076
1732.17	17.297
1733.68	16.2361
1735.2	16.1861
1736.72	16.7126
1738.23	15.6329
1739.74	15.404
1741.26	14.7268
1742.77	14.2027
1744.29	13.6872
1745.8	12.777
1747.32	12.2231
1748.83	12.0554
1750.34	11.4796
1751.85	10.0367
1753.37	9.02309
1754.88	8.56809
1756.39	7.45531
1757.9	7.15036
1759.41	6.71138
1760.92	4.98462
1762.44	4.44279
1763.95	4.23806
1765.46	2.75233
1766.96	2.99323
1768.47	2.65915
1769.98	2.50067
1771.49	2.43003
1773	1.83683
1774.51	2.3242
1776.02	1.45602
1777.53	1.84593
1779.03	1.57149
1780.54	1.87012
1782.05	1.3383
1783.55	0.512011
1785.06	0.225653
1786.57	0.138121
1788.07	-0.470409
1789.58	0.0488817
1791.08	0.261903
1792.59	0.432923
1794.09	1.17164
1795.6	1.32591
1797.1	1.74452
1798.61	1.66455
1800.11	1.7165
1801.61	2.75514
1803.12	2.88471
1804.62	3.02483
1806.12	3.43981
1807.62	4.17831
1809.12	4.19426
1810.63	4.69545
1812.13	4.49182
1813.63	4.25415
1815.13	4.16536
1816.63	4.22572
1818.13	4.41612
1819.63	4.3046
1821.13	4.392
1822.63	4.7695
1824.13	4.31074
1825.63	3.90094
1827.13	3.79737
1828.62	3.36818
1830.12	3.71376
1831.62	3.29999
1833.12	3.38895
1834.61	3.10825
1836.11	3.55133
1837.61	3.70184
1839.1	4.09591
1840.6	3.65409
1842.09	3.68045
1843.59	3.03961
1845.09	3.00715
1846.58	2.93803
1848.08	3.15644
1849.57	3.18188
1851.06	2.86666
1852.56	2.90036
1854.05	3.21157
1855.54	2.77177
1857.04	2.70122
1858.53	2.72035
1860.02	2.94309
1861.51	3.38762
1863.01	3.54816
1864.5	3.83049
1865.99	3.20888
1867.48	3.2007
1868.97	3.48277
1870.46	3.53698
1871.95	2.89916
1873.44	2.78391
1874.93	2.71876
1876.42	3.70432
1877.91	3.77
1879.4	4.14122
1880.89	4.23062
1882.37	3.46434
1882.46	3.21334
1883.95	2.96753
1885.45	2.84658
1886.94	2.6222
1888.43	2.18836
1889.93	2.11765
1891.42	2.61919
1892.91	1.8643
1894.41	1.39047
1895.9	1.28091
1897.39	0.862063
1898.88	1.36699
1900.37	1.75166
1901.86	1.57428
1903.36	1.20742
1904.85	1.24214
1906.34	1.84589
1907.83	1.43128
1909.32	1.90993
1910.81	1.0264
1912.29	0.98049
1913.78	0.029573
1915.27	0.370947
1916.76	0.306708
1918.25	0.661872
1919.74	0.938914
1921.23	1.05708
1922.71	1.15328
1924.2	1.83286
1925.69	1.92567
1927.17	2.17328
1928.66	1.68954
1930.15	2.78654
1931.63	2.90362
1933.12	3.21993
1934.6	3.70171
1936.09	3.64531
1937.57	3.89464
1939.06	4.1142
1940.54	3.81096
1942.02	3.49779
1943.51	2.96622
1944.99	2.72618
1946.47	3.49604
1947.96	3.48158
1949.44	4.0716
1950.92	3.33475
1952.4	3.3775
1953.88	2.72315
1955.37	3.02687
1956.85	3.318
1958.33	3.26453
1959.81	3.17799
1961.29	3.26999
1962.77	3.48344
1964.25	3.9992
1965.73	3.7807
1967.21	3.29056
1968.69	3.1901
1970.16	3.70653
1971.64	3.8035
1973.12	4.02295
1974.6	3.59037
1976.08	3.0998
1977.55	3.4422
1979.03	3.88183
1980.51	4.29037
1981.98	4.08914
1983.46	4.55725
1984.94	3.71983
1986.41	3.52285
1987.89	3.97287
1989.36	4.81081
1990.84	4.34479
1992.31	4.51502
1993.79	4.64786
1995.26	4.41895
1996.73	4.7363
1998.21	5.42646
1999.68	5.16418
2001.15	5.67449
2002.63	5.70552
2004.1	6.07197
2005.57	5.48801
2007.04	5.29758
2008.51	5.09005
2009.99	4.92964
2011.46	5.50915
2012.93	5.88734
2014.4	5.30314
2015.87	5.69214
2017.34	5.84501
2018.81	6.18563
2020.28	6.76593
2021.75	6.81939
2023.21	7.81165
2024.68	7.61958
2026.15	7.77021
2027.62	7.33596
2029.09	7.47902
2030.56	7.33113
2032.02	7.13541
2033.49	6.75381
2034.96	7.56549
2036.42	7.27942
2037.89	7.2004
2039.36	7.11529
2040.82	7.50282
2042.29	7.60677
2043.75	8.30771
2045.22	8.44485
2046.68	8.67434
2048.14	8.90025
2049.61	9.67988
2051.07	10.1418
2052.54	10.2962
2054	10.1805
2055.46	10.2028
2056.93	10.3152
2058.39	10.0776
2059.85	10.2756
2061.31	10.7771
2062.77	10.367
2064.23	10.4481
2065.7	10.5011
2067.16	10.8982
2068.62	11.6048
2070.08	12.6736
2071.54	13.2306
2073	13.2534
2074.46	13.4855
2075.92	13.7627
2077.38	13.7177
2078.83	13.8708
2080.29	14.3815
2081.75	15.8294
2083.21	16.9053
2084.67	17.8584
2086.12	18.6885
2087.58	18.5771
2089.04	19.1114
2090.49	19.2031
2091.95	19.7074
2093.41	19.9925
2094.86	20.397
2096.32	20.3195
2097.77	20.0841
2099.23	20.1973
2100.68	21.1756
2102.14	21.7671
2103.59	22.8628
2105.05	23.4754
2106.5	24.5221
2107.95	25.6325
2109.41	25.9426
2110.86	27.2721
2112.31	28.1074
2113.76	29.3911
2115.21	29.9175
2116.67	30.6823
2118.12	31.9785
2119.57	33.4096
2121.02	34.7209
2122.47	35.4688
2123.92	35.9389
2125.37	36.4098
2126.82	37.37
2128.27	39.0035
2129.72	40.3351
2131.17	41.5292
2132.62	42.8382
2134.07	44.6474
2135.51	45.9362
2136.96	48.2238
2138.41	49.2601
2139.86	51.4152
2141.31	52.6576
2142.75	53.7504
2144.2	54.743
2145.65	56.202
2147.09	58.2967
2148.54	59.9699
2149.98	60.8522
2151.43	62.0975
2152.87	64.0445
2154.32	65.2624
2155.76	65.602
2157.21	66.7982
2158.65	68.2244
2160.1	68.7784
2161.54	69.3971
2162.98	69.7868
2164.43	70.6475
2165.87	70.928
2167.31	71.2991
2168.75	71.0618
2170.2	71.5252
2171.64	71.8439
2173.08	72.5286
2174.52	72.3156
2175.96	72.837
2177.4	72.5789
2178.84	72.4089
2180.28	72.0005
2181.72	72.0339
2183.16	71.5234
2184.6	70.5529
2186.04	69.9641
2187.48	68.5341
2188.92	68.0304
2190.36	67.0759
2191.79	65.6018
2193.23	64.0841
2194.67	62.4457
2196.11	61.4451
2197.54	59.7125
2198.98	58.4167
2200.42	57.0384
2201.85	56.1306
2203.29	54.6444
2204.72	53.1575
2206.16	51.6876
2207.59	50.3986
2209.03	49.105
2210.46	46.8518
2211.9	44.9859
2213.33	43.1603
2214.77	41.7407
2216.2	40.3837
2217.63	38.8028
2219.07	37.0726
2220.5	35.285
2221.93	33.6362
2223.36	32.2698
2224.8	31.6225
2226.23	30.201
2227.66	29.6498
2229.09	28.9446
2230.52	28.0628
2231.95	26.7529
2233.39	25.7798
2234.81	24.811
2236.25	24.0784
2237.67	23.6567
2239.1	23.3274
2240.53	22.9881
2241.96	22.9324
2243.39	22.4575
2244.82	22.3569
2246.25	22.1434
2247.68	22.3188
2249.1	21.3694
2250.53	20.4038
2251.96	20.4695
2253.38	19.6224
2254.81	18.9319
2256.24	18.2768
2257.66	17.9039
2259.09	17.4338
2260.51	16.6457
2261.94	16.0418
2263.36	15.7029
2264.79	15.3611
2266.21	15.1171
2267.64	14.5647
2269.06	13.5346
2270.49	13.4569
2271.91	13.4476
2273.33	12.8205
2274.76	12.009
2276.18	11.5008
2277.6	11.1284
2279.02	10.822
2280.44	9.76183
2281.87	9.16677
2283.29	8.8327
2284.71	8.98774
2286.13	8.79053
2287.55	8.56809
2288.97	7.9112
2290.39	7.73967
2291.81	7.4918
2293.23	6.74809
2294.65	6.9066
2296.07	7.08483
2297.49	7.60548
2298.91	8.33074
2300.33	8.43613
2301.74	9.03641
2303.16	9.49715
2304.58	10.0486
2306	10.236
2307.41	10.2436
2308.83	10.5098
2310.25	10.4327
2311.66	10.7392
2313.08	11.0534
2314.5	10.9626
2315.91	11.6135
2317.33	11.5424
2318.74	11.1102
2320.16	10.5161
2321.57	10.4227
2322.98	10.9
2324.4	10.6334
2325.81	10.8164
2327.23	10.9664
2328.64	11.1338
2330.05	11.0783
2331.46	10.5128
2332.88	10.3143
2334.29	9.87613
2335.7	9.13292
2337.11	8.97127
2338.52	8.61181
2339.94	7.90117
2341.35	8.04613
2342.76	7.55758
2344.17	7.37759
2345.58	7.51282
2346.99	7.49343
2348.4	7.5774
2349.81	6.84991
2351.22	6.50785
2352.62	6.55126
2354.03	6.30161
2355.44	6.48881
2356.85	5.84878
2358.26	5.07528
2359.67	3.89455
2361.07	3.61806
2362.48	3.4262
2363.89	3.67432
2365.29	3.97581
2366.7	3.98964
2368.11	4.2824
2369.51	4.11579
2370.92	3.64951
2372.32	3.46645
2373.73	3.47629
2375.13	3.0771
2376.54	3.15385
2377.94	3.27722
2379.35	3.86088
2380.75	4.14335
2382.15	4.18323
2383.56	4.53795
2384.96	4.17443
2386.36	4.3711
2387.76	3.58314
2389.17	3.94798
2390.57	3.92822
2391.97	4.0046
2393.37	4.57503
2394.77	5.12659
2396.17	5.06843
2397.58	5.15002
2398.98	4.67036
2400.38	4.65864
2401.78	4.43431
2403.18	4.85743
2404.58	5.21224
2405.97	5.75463
2407.37	6.76023
2408.77	7.01669
2410.17	7.63076
2411.57	7.55493
2412.97	7.69045
2414.37	8.00917
2415.76	8.32031
2417.16	8.25191
2418.56	8.24336
2419.95	8.19444
2421.35	8.84081
2422.75	8.84429
2424.14	9.10677
2425.54	8.8607
2426.93	7.8969
2428.33	7.4953
2429.72	7.26897
2431.12	7.1557
2432.51	6.45929
2433.91	5.82634
2435.3	5.61155
2436.7	5.16699
2438.09	5.08431
2439.48	5.08975
2440.88	4.2739
2442.27	4.17164
2443.66	3.88154
2445.05	3.51649
2446.44	3.853
2447.84	3.55613
2449.23	3.26676
2450.62	2.59381
2452.01	2.51573
2453.4	2.33588
2454.79	1.74092
2456.18	1.30089
2457.57	0.913711
2458.96	1.36343
2460.35	0.667801
2461.74	0.860814
2463.13	0.614841
2464.52	0.802222
2465.91	0.436956
2467.29	0.690672
2468.68	0.513789
2470.07	0.414403
2471.46	-0.244289
2472.85	0.427428
2474.23	0.420214
2475.62	0.265694
2477.01	-0.0395316
2478.39	-0.132356
2479.78	-0.265084
2481.16	-1.28152
2482.55	-0.149075
2483.93	-0.12705
2485.32	-0.0808409
2486.7	0.0813426
2488.09	0.149161
2489.47	0.483627
2490.86	0.608853
2492.24	0.67807
2493.62	1.00237
2495.01	0.483055
2496.39	0.242486
2497.77	0.084945
2499.15	0.464834
2500.54	0.276347
2501.92	0.126734
2503.3	0.539464
2504.68	0.608694
2506.06	0.766588
2507.45	1.22681
2508.83	1.44253
2510.21	0.95561
2511.59	1.37696
2512.97	1.98923
2514.35	2.26442
2515.73	3.18644
2517.11	3.31261
2518.48	3.51169
2519.86	3.81709
2521.24	4.83659
2522.62	5.07028
2524	5.31682
2525.38	5.29578
2526.75	5.9165
2528.13	6.42476
2529.51	5.94546
2530.89	6.22454
2532.26	6.00692
2533.64	6.49598
2535.02	6.34266
2536.39	6.82761
2537.77	6.07614
2539.14	6.30995
2540.52	6.32018
2541.89	6.88965
2543.27	6.82627
2544.64	6.71037
2546.01	6.79963
2547.39	6.85719
2548.76	7.20957
2550.14	7.36606
2551.51	7.2907
2552.88	6.84551
2554.25	6.35449
2555.63	6.61735
2557	6.25876
2558.37	6.60478
2559.74	6.49888
2561.11	6.15901
2562.49	5.41873
2563.86	4.78434
2565.23	4.43341
2566.6	4.38598
2567.97	4.58416
2569.34	3.99035
2570.71	3.20858
2572.08	3.18083
2573.45	3.0879
2574.82	3.12015
2576.18	3.28491
2577.55	3.80486
2578.92	4.05028
2580.29	4.34869
2581.66	4.50947
2583.02	4.92244
2584.39	5.56115
2585.76	5.29695
2587.13	5.06363
2588.49	5.18848
2589.86	4.92133
2591.22	3.99459
2592.59	3.70164
2593.96	3.1202
2595.32	3.74031
2596.69	4.16311
2598.05	4.07174
2599.42	4.46631
2600.78	4.6203
2602.14	5.14724
2603.51	5.69611
2604.87	5.91387
2606.23	5.45414
2607.6	6.18392
2608.96	5.72901
2610.32	6.10052
2611.69	6.19889
2613.05	5.64721
2614.41	5.64274
2615.77	5.88971
2617.13	6.3667
2618.49	5.9553
2619.86	5.5916
2621.22	5.81295
2622.58	5.86821
2623.94	6.02442
2625.3	5.37989
2626.66	5.07954
2628.02	4.70527
2629.37	3.97002
2630.73	3.52121
2632.09	2.98088
2633.45	2.82373
2634.81	2.96914
2636.17	2.93478
2637.53	2.23174
2638.88	1.8877
2640.24	1.62035
2641.6	2.01661
2642.96	2.03116
2644.31	2.69634
2645.67	2.16747
2647.02	1.88898
2648.38	1.68333
2649.74	1.83833
2651.09	2.45632
2652.45	2.29081
2653.8	2.03041
2655.16	2.16122
2656.51	3.39917
2657.86	3.5242
2659.22	3.91994
2660.57	4.8816
2661.93	5.51254
2663.28	6.91824
2664.63	7.16401
2665.98	7.43574
2667.34	7.72257
2668.69	8.07919
2670.04	8.62464
2671.39	9.32189
2672.75	9.31987
2674.09	9.62948
2675.45	10.1846
2676.8	9.91283
2678.15	10.6447
2679.5	10.8934
2680.85	11.0368
2682.2	11.3252
2683.55	11.9806
2684.9	12.0897
2686.25	11.4312
2687.6	11.1739
2688.94	11.6433
2690.29	11.3593
2691.64	11.4383
2692.99	11.1953
2694.34	11.7506
2695.68	11.3486
2697.03	10.7605
2698.38	10.7636
2699.73	10.5917
2701.07	11.2474
2702.42	10.6045
2703.76	9.50544
2705.11	9.28716
2706.45	9.32376
2707.8	9.07885
2709.15	9.81165
2710.49	9.6281
2711.83	9.6203
2713.18	9.73726
2714.52	10.4353
2715.87	10.6608
2717.21	11.2248
2718.55	11.3178
2719.9	11.2319
2721.24	11.0004
2722.58	11.5017
2723.93	11.8349
2725.27	11.2068
2726.61	11.3581
2727.95	12.0835
2729.29	12.0335
2730.63	11.9684
2731.98	12.2871
2733.32	12.4043
2734.66	12.3127
2736	12.0746
2737.34	12.2312
2738.68	12.4477
2740.02	12.5892
2741.36	12.8598
2742.7	13.0767
2744.03	12.8353
2745.37	13.3272
2746.71	12.9372
2748.05	12.1189
2749.39	11.769
2750.72	11.6264
2752.06	10.9501
2753.4	10.8063
2754.74	11.0056
2756.07	10.9797
2757.41	10.2466
2758.75	10.6014
2760.08	10.1128
2761.42	10.0158
2762.76	9.19928
2764.09	9.00072
2765.42	8.5632
2766.76	8.12671
2768.09	7.58599
2769.43	6.25234
2770.76	6.02662
2772.1	6.15815
2773.43	5.46199
2774.76	5.0355
2776.1	5.25883
2777.43	4.87008
2778.76	4.31737
2780.1	4.07645
2781.43	3.86353
2782.76	3.7009
2784.09	3.57685
2785.42	2.88224
2786.75	2.28084
2788.09	2.43598
2789.42	2.47555
2790.75	2.59982
2792.08	2.43448
2793.41	2.61943
2794.74	2.4799
2796.07	2.17072
2797.4	2.57637
2798.73	2.88933
2800.06	3.20789
2801.39	3.51336
2802.71	3.84039
2804.04	4.23292
2805.37	4.48192
2806.7	4.51304
2808.03	3.96317
2809.35	3.88605
2810.68	3.61774
2812.01	3.70167
2813.33	3.26018
2814.66	3.23534
2815.99	4.52328
2817.31	5.61912
2818.64	6.52013
2819.96	8.50022
2821.29	10.2759
2822.61	12.4878
2823.94	14.7621
2825.26	18.3166
2826.59	22.2553
2827.91	25.9279
2829.23	29.1822
2830.56	32.0905
2831.88	35.6542
2833.21	39.5638
2834.53	42.9827
2835.85	46.7719
2837.17	51.03
2838.5	55.2386
2839.82	59.6191
2841.14	64.2378
2842.46	69.9949
2843.78	74.9937
2845.1	80.6547
2846.42	87.6454
2847.74	94.5182
2849.06	101.143
2850.38	107.335
2851.71	114.451
2853.03	121.967
2854.34	130.217
2855.66	138.067
2856.98	145.532
2858.3	152.401
2859.62	159.377
2860.94	166.486
2862.26	172.92
2863.57	179.496
2864.89	185.661
2866.21	191.408
2867.53	196.26
2868.84	201.13
2870.16	205.426
2871.48	209.201
2872.79	212.606
2874.11	215.558
2875.42	218.757
2876.74	221.544
2878.05	225.233
2879.37	227.677
2880.68	229.948
2882	232.729
2883.31	234.504
2884.63	236.869
2885.94	239.923
2887.26	242.701
2888.57	244.686
2889.88	247.432
2891.19	250.568
2892.51	253.059
2893.82	255.349
2895.13	257.12
2896.44	259.5
2897.76	262.746
2899.07	266.402
2900.38	269.52
2901.69	273.392
2903	278.133
2904.31	283.419
2905.62	289.324
2906.93	295.268
2908.24	302.611
2909.55	309.879
2910.86	318.04
2912.17	326.363
2913.48	333.86
2914.79	341.314
2916.1	349.232
2917.41	357.965
2918.71	365.014
2920.02	370.876
2921.33	375.793
2922.64	379.641
2923.94	384.459
2925.25	388.321
2926.56	391.215
2927.86	392.95
2929.17	394.28
2930.48	394.896
2931.78	394.851
2933.09	393.497
2934.39	391.699
2935.7	388.78
2937	384.991
2938.31	381.331
2939.61	377.018
2940.92	372.589
2942.22	367.959
2943.53	361.973
2944.83	355.116
2946.13	348.429
2947.43	341.951
2948.74	335.148
2950.04	328.382
2951.34	321.196
2952.64	314.002
2953.95	306.472
2955.25	299.456
2956.55	292.073
2957.85	284.789
2959.15	277.316
2960.45	269.509
2961.75	262.242
2963.05	255.354
2964.35	248.417
2965.65	241.238
2966.95	235.01
2968.25	229.403
2969.55	223.342
2970.85	217.71
2972.15	212.209
2973.45	207.576
2974.75	202.031
2976.05	196.559
2977.34	190.396
2978.64	184.531
2979.94	178.752
2981.24	172.955
2982.53	166.128
2983.83	158.971
2985.13	152.011
2986.42	145.849
2987.72	139.633
2989.01	133.588
2990.31	126.595
2991.61	119.913
2992.9	113.916
2994.19	107.65
2995.49	102.035
2996.78	96.2021
2998.08	90.2902
2999.37	84.904
3000.67	79.5047
3001.96	74.6089
3003.25	70.3398
3004.55	65.8072
3005.84	61.5847
3007.13	57.6792
3008.42	53.5003
3009.72	50.0817
3011.01	46.6245
3012.3	43.6097
3013.59	40.5741
3014.88	37.7539
3016.17	35.7261
3017.46	33.8354
3018.76	31.4704
3020.05	29.3009
3021.34	27.2031
3022.63	25.1072
3023.92	23.5794
3025.21	22.1676
3026.49	20.8018
3027.78	19.8917
3029.07	18.9902
3030.36	19.1618
3031.65	18.9141
3032.94	19.198
3034.23	18.9687
3035.51	19.4381
3036.8	19.4858
3038.09	20.2473
3039.38	20.3879
3040.66	21.6727
3041.95	22.091
3043.23	23.0421
3044.52	24.0349
3045.81	24.4821
3047.09	25.2075
3048.38	25.6789
3049.66	26.4521
3050.95	27.0344
3052.23	27.3831
3053.52	27.8727
3054.8	28.6347
3056.09	29.0941
3057.37	29.8327
3058.65	29.6335
3059.94	30.0517
3061.22	30.3094
3062.5	30.3303
3063.79	29.1908
3065.07	28.7077
3066.35	28.1654
3067.63	27.5445
3068.92	26.4801
3070.2	25.2092
3071.48	24.4059
3072.76	23.1864
3074.04	21.6467
3075.32	20.7968
3076.6	19.3597
3077.88	18.2827
3079.16	17.0897
3080.44	15.9129
3081.72	13.8707
3083	11.7603
3084.28	10.5154
3085.56	9.06741
3086.84	7.57688
3088.12	6.42855
3089.4	5.37167
3090.67	4.01303
3091.95	3.01262
3093.23	2.28694
3094.51	2.26548
3095.78	1.60401
3097.06	1.27432
3098.34	0.68684
3099.61	1.3015
3100.89	1.17381
3102.17	1.46439
3103.44	1.09262
3104.72	1.22529
3105.99	0.772024
3107.27	1.1186
3108.54	1.12989
3109.82	1.04539
3111.09	1.76386
3112.37	2.60188
3113.64	3.52896
3114.92	4.05367
3116.19	4.80596
3117.46	4.94279
3118.74	5.68252
3120.01	6.02972
3121.28	6.67365
3122.55	6.87925
3123.83	7.55186
3125.1	7.68014
3126.37	7.63327
3127.64	7.51738
3128.91	8.34186
3130.19	8.74133
3131.46	8.94852
3132.73	9.0107
3134	9.25841
3135.27	9.83152
3136.54	9.82012
3137.81	9.73955
3139.08	10.2521
3140.35	10.0136
3141.62	10.0879
3142.89	9.96159
3144.16	9.84706
3145.42	9.92351
3146.69	10.0041
3147.96	9.85389
3149.23	10.7415
