#Acq. time (s)=	45
#Accumulations=	2
#Range (cm-¹)=	200...3150
#Windows=	2
#Auto scanning=	Off
#Autofocus=	Off
#Macrospot=	Off
#AutoExposure=	Off
#Spike filter=	Multiple accum.
#Delay time (s)=	0
#Binning=	1
#Readout mode=	Signal
#DeNoise=	Off
#ICS correction=	On
#Dark correction=	Off
#Inst. Process=	Off
#Detector Gain=	Best Dynamic Range
#Detector ADC=	20 kHz       
#Detector temperature (°C)=	-70.08
#Instrument=	LabRAM HR Evol
#Detector=	Synapse
#Objective=	x100
#Grating=	600 gr/mm
#ND Filter=	100%
#Laser (nm)=	532 
#Hole=	100.021
#Range=	Auto
#Laser Pol.=	No
#Raman. Pol.=	No
#Laser Pol. (°)=	-0.0007625
#Raman Pol. (°)=	89.9995
#Collection=	Microscope
#StageXY=	Marzhauser
#StageZ=	Marzhauser
#X (µm)=	4749.7
#Y (µm)=	-7725.1
#Z (µm)=	583.7
#Full time(mm:ss)=	3:18
#Project=	
#Sample=	
#Site=	
#Title=	Thy_30_10_15_2x_45s_532 nm_x100_100%_600 gr_mm
#Remark=	
#Date=	30.06.2022 12:32
#Acquired=	30.06.2022 12:32:26
#Base:Fit=	10.08.2022 09:58:11
#Base:Sub=	10.08.2022 09:58:44
#Filter:Polynom=	16.08.2022 10:22:53
#AxisType[0]=Intens
#AxisUnit[0]=Cnt
#AxisType[1]=Spectr
#AxisUnit[1]=1/cm
200.533	-3.98042
202.348	-2.90107
204.162	-1.47182
205.976	-0.542008
207.792	-0.205214
209.605	0.0868598
211.418	0.521553
213.23	0.750457
215.044	0.545221
216.856	1.31584
218.667	1.09285
220.478	1.12675
222.289	1.85362
224.102	1.61306
225.912	1.56518
227.721	1.5244
229.531	2.10044
231.34	2.41009
233.148	2.51784
234.956	2.60353
236.766	3.91604
238.574	4.80368
240.381	4.60647
242.188	4.78164
243.994	4.95416
245.801	5.36116
247.606	5.08273
249.412	5.30134
251.217	5.18132
253.024	5.80112
254.828	5.54436
256.632	6.45758
258.436	7.80514
260.239	8.29682
262.042	7.77217
263.845	8.18269
265.647	8.57009
267.449	9.85027
269.25	10.196
271.052	10.2462
272.852	11.707
274.653	11.8996
276.453	12.8837
278.253	13.1473
280.052	13.5944
281.852	13.3812
283.65	14.0814
285.449	13.6818
287.247	14.4805
289.044	14.3515
290.842	15.154
292.639	14.9307
294.436	15.3714
296.232	15.159
298.028	15.5993
299.821	16.0499
301.617	16.0807
303.412	16.1219
305.206	16.4497
307	17.0966
308.794	16.7108
310.588	16.3451
312.381	16.6964
314.172	16.2221
315.964	16.6011
317.756	16.5392
319.548	16.267
321.34	16.0462
323.131	15.7298
324.921	15.7728
326.71	16.0777
328.5	15.0191
330.29	14.5558
332.079	15.2732
333.868	15.0778
335.654	15.377
337.443	15.4719
339.231	15.5655
341.018	14.896
342.804	14.9808
344.591	15.1149
346.377	16.6496
348.163	16.4091
349.947	15.5062
351.733	15.8749
353.518	16.3943
355.303	16.3861
357.085	16.0482
358.869	16.2794
360.653	16.5918
362.435	17.3508
364.218	16.6846
366.001	17.19
367.781	17.2537
369.563	16.9013
371.345	16.7941
373.124	16.8666
374.905	16.6086
376.686	16.6657
378.464	16.6536
380.244	16.3628
382.022	16.47
383.801	16.7616
385.58	16.195
387.357	16.6911
389.135	17.279
390.911	16.7569
392.689	16.4412
394.466	15.8747
396.241	14.8743
398.018	14.2323
399.792	13.4133
401.568	13.1814
403.341	12.1246
405.117	11.9759
406.889	10.8144
408.664	10.5151
410.436	10.5005
412.21	10.0858
413.981	10.3309
415.755	9.88857
417.525	9.96943
419.298	10.6574
421.068	10.4304
422.84	9.56606
424.609	9.50274
426.38	9.57554
428.149	8.43361
429.919	8.04675
431.688	8.34784
433.455	8.19999
435.225	8.44265
436.992	7.51292
438.76	8.04946
440.527	8.50829
442.293	8.97566
444.06	9.04508
445.826	9.26888
447.593	10.1212
449.357	10.4117
451.122	10.3804
452.888	10.0182
454.651	10.2199
456.415	9.49904
458.18	9.52481
459.942	9.62306
461.705	9.83242
463.469	10.3471
465.23	10.647
466.991	11.4698
468.752	12.4883
470.515	13.0381
472.275	13.5241
474.035	13.6332
475.797	13.772
477.556	13.8759
479.315	12.6257
481.073	12.2555
482.834	11.9968
484.592	11.9564
486.349	12.1484
488.106	11.7489
489.863	11.8708
491.622	11.965
493.378	12.1841
495.134	11.7225
496.889	12.4671
498.645	12.2506
500.401	12.2295
502.156	12.6807
503.91	12.7323
505.664	13.2672
507.417	13.2178
509.171	13.2339
510.923	13.7107
512.678	13.8807
514.43	13.7816
516.182	12.7863
517.933	13.0154
519.684	13.2214
521.435	13.2649
523.186	12.6882
524.936	12.9114
526.686	13.4534
528.435	12.489
530.184	12.4501
531.933	12.3098
533.682	12.0302
535.43	12.3604
537.18	12.2245
538.927	11.6942
540.674	11.9926
542.421	11.5771
544.167	11.1023
545.913	10.9919
547.659	10.7967
549.403	10.9358
551.148	10.7388
552.893	10.233
554.637	9.7838
556.381	9.26574
558.125	7.73355
559.868	7.39972
561.611	6.31356
563.354	5.77337
565.097	5.18823
566.839	3.84567
568.581	3.08949
570.322	3.00893
572.063	2.55416
573.802	1.7924
575.542	1.46135
577.283	1.33574
579.022	1.18584
580.762	1.09218
582.501	1.32696
584.24	1.47134
585.976	1.56634
587.714	2.17929
589.452	2.20054
591.19	1.99513
592.927	2.10202
594.663	2.22873
596.398	2.35186
598.134	2.4006
599.87	2.38306
601.605	2.59691
603.338	2.73822
605.073	3.02796
606.808	3.35033
608.542	3.38627
610.274	2.90132
612.007	3.67572
613.74	3.99971
615.473	4.36143
617.204	5.48619
618.936	6.29069
620.668	6.5357
622.397	7.08408
624.128	7.62033
625.859	7.75225
627.588	8.52298
629.318	8.33088
631.048	8.86404
632.775	9.04125
634.505	9.88115
636.233	10.6714
637.96	10.7953
639.688	11.1198
641.416	11.485
643.142	12.0761
644.869	12.3871
646.594	12.7964
648.32	12.7509
650.045	14.0452
651.771	14.6692
653.496	14.8468
655.219	16.0029
656.944	16.8087
658.667	17.2085
660.391	18.6898
662.113	19.2602
663.837	20.1094
665.558	20.4412
667.281	20.7824
669.002	21.3312
670.724	22.0876
672.444	23.0353
674.166	23.2686
675.885	23.5446
677.606	24.0825
679.325	24.9398
681.045	25.2392
682.763	26.269
684.483	26.96
686.2	27.9475
687.917	28.4328
689.636	28.7366
691.352	29.3165
693.07	30.0388
694.786	30.5503
696.501	30.8322
698.219	32.2592
699.933	33.4208
701.65	33.6617
703.364	34.1925
705.078	35.2099
706.793	36.0037
708.506	36.7992
710.219	37.5176
711.934	38.3638
713.646	38.9502
715.358	39.202
717.071	39.7562
718.782	40.6891
720.493	41.5976
722.204	41.734
723.916	42.4781
725.626	42.9277
727.336	43.4431
729.045	43.7406
730.756	44.0738
732.464	44.7395
734.173	45.8898
735.881	47.2407
737.59	47.3371
739.297	47.4734
741.004	48.1988
742.711	48.233
744.417	49.3667
746.125	49.9826
747.831	50.3831
749.537	51.5225
751.242	52.1791
752.946	52.8154
754.651	54.0633
756.357	55.6421
758.061	57.2748
759.764	57.426
761.467	57.7821
763.17	58.0628
764.872	59.5991
766.575	60.4502
768.276	61.7622
769.978	62.6464
771.679	63.938
773.382	64.8566
775.083	65.7231
776.783	65.8409
778.483	66.2385
780.182	66.4859
781.882	67.5204
783.581	68.3583
785.279	69.7059
786.978	69.9217
788.676	70.6354
790.373	71.3792
792.071	72.4053
793.768	72.8453
795.464	73.286
797.161	73.3611
798.857	72.6922
800.552	73.4409
802.248	74.2354
803.941	74.4841
805.636	74.3172
807.33	74.6867
809.024	74.5815
810.718	74.3819
812.412	74.559
814.105	74.8015
815.798	74.7637
817.49	74.3776
819.183	74.4727
820.873	74.143
822.564	73.3421
824.256	73.2218
825.947	73.1089
827.637	72.2749
829.328	72.2819
831.016	72.0684
832.705	72.1553
834.395	70.732
836.084	69.6719
837.772	68.6344
839.459	68.5541
841.147	67.6938
842.835	65.9587
844.522	62.6356
846.209	62.1885
847.894	61.2257
849.581	60.4076
851.267	59.1038
852.953	58.2384
854.637	57.2788
856.322	56.1865
858.007	55.3839
859.689	53.4789
861.374	52.0793
863.058	52.2838
864.739	51.5878
866.423	51.3193
868.106	50.2542
869.787	50.0147
871.469	48.1579
873.151	47.4675
874.831	47.0372
876.512	46.2614
878.193	45.6266
879.872	45.5285
881.553	45.0295
883.231	44.8171
884.911	45.4223
886.591	44.5601
888.268	43.4753
889.947	43.1622
891.623	43.1345
893.302	42.6392
894.978	42.8164
896.656	42.6893
898.331	43.1148
900.008	43.1355
901.683	43.432
903.359	43.4441
905.033	43.3316
906.709	42.3442
908.383	43.0823
910.058	42.6252
911.731	42.4564
913.405	42.6104
915.078	42.3296
916.752	41.9542
918.423	41.191
920.096	41.2271
921.768	41.0691
923.438	40.5676
925.111	40.1314
926.781	39.4727
928.452	39.5698
930.122	40.696
931.791	39.9974
933.462	39.9849
935.13	40.4262
936.799	39.5915
938.468	39.1425
940.136	39.3458
941.803	38.645
943.472	37.8331
945.139	37.8953
946.805	36.9645
948.473	35.8771
950.139	36.0286
951.804	35.4329
953.471	34.5624
955.136	33.5744
956.801	32.922
958.465	32.4192
960.131	31.8704
961.794	31.5397
963.458	30.6983
965.12	29.0219
966.785	28.1375
968.447	27.3429
970.109	26.4659
971.771	25.9366
973.432	25.3999
975.095	25.225
976.756	24.8646
978.417	25.9513
980.077	25.373
981.737	25.3806
983.396	24.7183
985.057	24.2266
986.716	22.6939
988.375	22.1134
990.033	20.8462
991.691	20.4834
993.349	19.5123
995.006	19.2965
996.663	18.7881
998.32	18.58
999.976	18.1581
1001.63	17.7839
1003.29	17.4894
1004.95	17.3182
1006.6	17.7717
1008.26	17.5919
1009.91	17.3556
1011.56	17.2473
1013.22	17.2215
1014.87	16.834
1016.53	16.6843
1018.18	16.4993
1019.83	16.2545
1021.48	16.1904
1023.14	16.0649
1024.79	14.7149
1026.44	15.2636
1028.09	15.0533
1029.74	14.2248
1031.39	14.5788
1033.04	14.4786
1034.69	13.7795
1036.34	13.1691
1037.99	13.1324
1039.64	12.2392
1041.29	12.0939
1042.94	11.7825
1044.58	11.7346
1046.23	12.0271
1047.88	11.465
1049.52	11.8317
1051.17	11.0408
1052.82	11.4789
1054.46	10.4843
1056.11	10.3937
1057.75	10.6638
1059.4	10.6701
1061.04	11.0049
1062.69	9.40382
1064.33	10.1229
1065.98	9.24094
1067.62	8.32247
1069.26	7.48236
1070.9	7.72013
1072.55	7.18331
1074.19	6.79006
1075.83	6.92757
1077.47	6.9627
1079.11	6.90423
1080.76	6.85191
1082.4	7.18242
1084.04	7.69761
1085.68	8.36197
1087.32	8.78451
1088.95	8.60635
1090.59	7.87698
1092.23	8.02405
1093.87	8.53966
1095.51	9.17761
1097.15	9.34527
1098.78	10.158
1100.42	11.2134
1102.06	11.6237
1103.69	11.0942
1105.33	11.684
1106.97	11.788
1108.6	12.1395
1110.24	11.2649
1111.87	11.3353
1113.51	11.883
1115.14	11.7176
1116.77	11.4697
1118.41	11.0677
1120.04	11.1423
1121.67	10.6287
1123.31	10.9522
1124.94	11.2348
1126.57	11.5011
1128.2	11.9687
1129.83	10.8263
1131.47	10.8249
1133.1	10.0801
1134.72	10.4835
1136.36	10.438
1137.98	10.6817
1139.62	10.6122
1141.24	10.685
1142.87	10.5796
1144.5	10.2148
1146.13	10.1888
1147.76	9.02443
1149.38	7.92811
1151.01	7.49597
1152.64	6.98519
1154.27	6.26349
1155.89	5.55421
1157.52	5.83013
1159.14	6.04477
1160.77	5.35659
1162.39	5.3352
1164.02	5.25339
1165.64	4.83163
1167.27	4.6562
1168.89	4.53935
1170.51	3.83322
1172.14	3.75926
1173.76	4.21819
1175.38	4.87582
1177	5.66584
1178.63	5.83641
1180.25	6.40377
1181.87	6.30898
1183.49	5.61529
1185.11	6.26095
1186.73	6.225
1188.35	6.37029
1189.97	6.15418
1191.59	6.28237
1193.21	6.95903
1194.83	7.24424
1196.45	8.3459
1198.07	9.0402
1199.68	10.0964
1201.3	11.2045
1202.92	12.1343
1204.53	13.0696
1206.15	14.8859
1207.77	15.1673
1209.38	15.9176
1211	15.6954
1212.62	16.5902
1214.23	16.8841
1215.84	18.2286
1217.46	19.15
1219.07	19.5379
1220.69	21.3318
1222.3	22.6236
1223.91	22.9657
1225.53	23.6695
1227.14	23.9985
1228.75	24.5526
1230.36	25.2206
1231.97	25.7129
1233.59	26.7462
1235.2	27.1247
1236.81	28.4579
1238.42	29.3782
1240.03	29.6539
1241.64	30.0653
1243.25	30.0544
1244.85	30.8434
1246.46	31.2798
1248.07	32.4162
1249.68	32.6662
1251.29	31.9596
1252.9	32.7429
1254.5	34.0772
1256.11	33.8513
1257.72	34.7222
1259.32	34.424
1260.93	35.6616
1262.54	36.328
1264.14	36.9529
1265.75	37.8564
1267.35	37.8924
1268.96	39.0693
1270.56	38.9178
1272.16	39.1326
1273.77	39.6709
1275.37	39.8419
1276.97	39.8547
1278.57	39.6346
1280.18	39.9906
1281.78	40.669
1283.38	40.7735
1284.98	41.7056
1286.58	42.3845
1288.18	41.9641
1289.78	42.5727
1291.38	42.8253
1292.99	43.1144
1294.58	43.6902
1296.18	44.4099
1297.78	44.7868
1299.38	45.4404
1300.98	46.6243
1302.58	46.2541
1304.17	46.4272
1305.77	46.8953
1307.37	47.5417
1308.97	47.9798
1310.56	48.614
1312.16	48.9265
1313.76	49.5381
1315.35	50.6321
1316.95	51.8487
1318.54	51.313
1320.14	51.52
1321.73	51.4776
1323.32	51.8559
1324.92	52.7994
1326.51	52.4886
1328.1	52.4205
1329.7	52.2001
1331.29	52.4687
1332.88	53.2167
1334.47	52.9468
1336.07	52.1754
1337.66	52.4628
1339.25	51.816
1340.84	52.1605
1342.43	50.9729
1344.02	49.9168
1345.61	48.8256
1347.2	47.5266
1348.79	46.4407
1350.37	44.8655
1351.96	43.7
1353.55	42.7609
1355.14	41.1629
1356.73	39.4366
1358.31	39.7931
1359.9	38.3028
1361.49	36.9479
1363.07	35.3415
1364.66	34.1311
1366.25	32.2478
1367.83	30.7949
1369.42	29.7562
1371	28.7334
1372.59	27.7031
1374.17	27.458
1375.75	26.6467
1377.34	26.0884
1378.92	25.4174
1380.5	24.5027
1382.09	23.7085
1383.67	23.5256
1385.25	22.8881
1386.83	22.5031
1388.42	21.8313
1390	22.0546
1391.58	21.4953
1393.16	21.0102
1394.74	21.7856
1396.32	21.058
1397.9	20.8789
1399.48	21.039
1401.06	21.0718
1402.64	21.6516
1404.21	21.4007
1405.79	21.635
1407.37	21.8817
1408.95	22.5863
1410.53	23.6478
1412.1	24.7462
1413.68	24.8999
1415.26	25.9069
1416.83	26.2695
1418.41	27.0036
1419.98	27.8462
1421.56	28.8426
1423.13	29.8099
1424.71	30.8745
1426.28	32.1274
1427.86	34.2406
1429.43	35.4039
1431	36.2532
1432.58	36.9882
1434.15	37.8165
1435.72	39.1351
1437.29	41.2002
1438.87	41.4258
1440.44	42.7482
1442.01	44.2035
1443.58	44.5976
1445.15	46.0786
1446.72	46.6578
1448.29	47.3589
1449.86	48.3568
1451.43	49.0291
1453	48.1837
1454.57	47.1392
1456.14	46.6832
1457.71	45.8937
1459.27	45.3148
1460.84	44.1638
1462.41	43.4545
1463.98	41.7672
1465.54	40.6728
1467.11	39.8749
1468.67	38.6211
1470.24	37.0526
1471.81	35.2868
1473.37	33.3405
1474.94	31.9042
1476.5	30.4737
1478.07	28.6738
1479.63	27.1168
1481.19	25.9631
1482.76	24.0519
1484.32	22.5651
1485.88	21.3382
1487.45	20.5646
1489.01	19.7618
1490.57	18.1089
1492.13	16.4589
1493.69	15.7658
1495.26	14.3192
1496.82	13.9829
1498.38	13.6635
1499.94	13.371
1501.5	13.403
1503.06	13.553
1504.62	13.6209
1506.17	13.5132
1507.73	12.4987
1509.29	12.4802
1510.85	12.67
1512.41	12.4949
1513.97	13.0928
1515.52	13.6068
1517.08	14.1076
1518.64	14.606
1520.19	15.1792
1521.75	15.4976
1523.31	17.0322
1524.86	17.9977
1526.42	19.3047
1527.97	20.0357
1529.52	20.5077
1531.08	20.7547
1532.63	22.4186
1534.19	24.4175
1535.74	25.6055
1537.29	27.1987
1538.85	28.1573
1540.4	30.224
1541.95	30.8998
1543.5	32.0418
1545.06	33.3591
1546.61	34.1807
1548.16	36.2384
1549.71	37.6719
1551.26	39.2685
1552.81	41.838
1554.36	42.6827
1555.91	44.128
1557.46	45.4689
1559.01	46.8831
1560.56	47.4541
1562.11	49.3912
1563.65	50.6616
1565.2	52.2017
1566.75	53.1887
1568.29	54.3759
1569.84	55.3083
1571.39	56.1171
1572.94	56.8815
1574.48	57.841
1576.03	58.2861
1577.57	58.8706
1579.12	59.0507
1580.66	58.3494
1582.21	58.2371
1583.75	57.456
1585.3	57.1312
1586.84	57.0246
1588.38	57.0232
1589.93	56.6125
1591.47	56.6572
1593.01	55.8715
1594.55	55.1202
1596.1	54.3874
1597.64	53.2006
1599.18	51.7893
1600.72	51.388
1602.26	50.3108
1603.8	48.8856
1605.34	48.1228
1606.88	47.6596
1608.42	46.8644
1609.96	46.5776
1611.5	46.2482
1613.04	44.5827
1614.58	43.9133
1616.12	42.7761
1617.65	42.5689
1619.19	42.1327
1620.73	42.9425
1622.27	43.3375
1623.8	43.2961
1625.34	42.9718
1626.87	43.0465
1628.41	43.163
1629.95	43.2795
1631.48	42.8846
1633.02	43.7199
1634.55	43.9298
1636.09	44.3515
1637.62	44.7296
1639.15	45.121
1640.69	44.8556
1642.22	44.8166
1643.76	44.7811
1645.29	44.8148
1646.82	45.0528
1648.35	44.7812
1649.88	44.8574
1651.42	44.6042
1652.95	44.6955
1654.48	44.2951
1656.01	44.231
1657.54	44.144
1659.07	43.3549
1660.6	42.8918
1662.13	42.4315
1663.66	42.4982
1665.19	42.3446
1666.72	41.1679
1668.24	39.7338
1669.77	38.6352
1671.3	37.4893
1672.83	36.6678
1674.35	35.0077
1675.88	33.9176
1677.41	33.1898
1678.93	31.4454
1680.46	30.198
1681.99	29.0305
1683.51	26.9529
1685.04	25.7036
1686.56	24.7984
1688.09	23.7209
1689.61	22.6778
1691.13	22.2104
1692.66	21.8604
1694.18	21.1197
1695.71	20.0074
1697.23	19.1383
1698.75	17.0669
1700.27	15.887
1701.8	15.5327
1703.32	14.9932
1704.84	13.7494
1706.36	12.9057
1707.88	11.8734
1709.4	10.8858
1710.92	9.17884
1712.44	8.40054
1713.96	6.96489
1715.48	5.69853
1717	4.68127
1718.52	3.99348
1720.04	4.43001
1721.56	3.83687
1723.07	3.48611
1724.59	2.86135
1726.11	3.15288
1727.63	3.16396
1729.14	3.0382
1730.66	2.56647
1732.18	2.75176
1733.69	2.14814
1735.21	2.17406
1736.72	2.54416
1738.24	2.36484
1739.75	2.78844
1741.27	2.51973
1742.78	2.50823
1744.3	2.30492
1745.81	2.32602
1747.32	2.27824
1748.84	2.23953
1750.35	1.84266
1751.86	2.22321
1753.37	2.84209
1754.89	2.88605
1756.4	3.41043
1757.91	3.48528
1759.42	3.75685
1760.93	4.84618
1762.44	5.36382
1763.95	5.70859
1765.46	5.73427
1766.97	5.47536
1768.48	5.49466
1769.99	5.10579
1771.5	5.09714
1773.01	5.11059
1774.52	4.97921
1776.03	5.21449
1777.53	5.19381
1779.04	4.52121
1780.55	4.46879
1782.06	4.78846
1783.56	4.53413
1785.07	4.41497
1786.57	4.32119
1788.08	4.76147
1789.59	4.52426
1791.09	4.74364
1792.6	4.69767
1794.1	5.25396
1795.6	5.97667
1797.11	5.37689
1798.61	5.73739
1800.12	6.17131
1801.62	6.18969
1803.12	6.28758
1804.63	5.96019
1806.13	6.07512
1807.63	6.17243
1809.13	6.1131
1810.63	6.447
1812.14	6.3262
1813.64	6.72686
1815.14	6.51094
1816.64	6.71545
1818.14	7.13387
1819.64	7.09106
1821.14	7.71844
1822.64	7.90615
1824.14	8.12596
1825.63	8.17626
1827.13	8.63919
1828.63	9.02809
1830.13	9.13543
1831.63	9.83425
1833.12	9.46545
1834.62	9.5807
1836.12	9.62904
1837.62	9.43371
1839.11	9.16634
1840.61	8.94185
1842.1	9.61502
1843.6	9.74509
1845.09	9.69784
1846.59	9.49855
1848.08	9.81435
1849.58	10.2443
1851.07	10.4432
1852.57	11.142
1854.06	11.4951
1855.55	11.8158
1857.04	12.1636
1858.54	12.2076
1860.03	12.8455
1861.52	12.977
1863.01	13.2919
1864.5	13.2908
1866	13.1339
1867.49	13.2355
1868.98	13.2931
1870.47	13.6794
1871.96	14.0284
1873.45	14.1582
1874.94	13.9821
1876.43	13.7535
1877.92	13.6576
1879.41	13.592
1880.89	13.4035
1882.38	13.7308
1882.48	13.9979
1883.97	14.9724
1885.47	15.6952
1886.96	16.1713
1888.46	16.5001
1889.95	17.502
1891.44	17.6123
1892.94	17.5947
1894.43	18.1582
1895.92	17.7959
1897.41	17.7818
1898.9	18.2372
1900.4	19.0209
1901.89	19.7701
1903.38	19.9163
1904.87	19.1258
1906.36	18.3907
1907.85	18.8035
1909.34	18.6069
1910.83	18.4697
1912.32	18.271
1913.81	18.9204
1915.29	18.8453
1916.78	18.0185
1918.27	17.5651
1919.76	17.5321
1921.25	17.3049
1922.74	17.4756
1924.22	17.0881
1925.71	17.0926
1927.2	16.5256
1928.68	15.7863
1930.17	15.6307
1931.65	15.3085
1933.14	15.5432
1934.63	14.396
1936.11	14.5212
1937.59	14.3316
1939.08	14.0956
1940.56	13.87
1942.05	13.643
1943.53	13.7426
1945.01	13.6174
1946.5	12.7212
1947.98	12.4297
1949.46	12.6852
1950.94	12.8432
1952.43	13.1519
1953.91	13.5922
1955.39	14.9456
1956.87	15.1421
1958.35	14.9388
1959.83	15.0124
1961.31	14.3211
1962.79	14.6117
1964.27	14.5287
1965.75	13.9546
1967.23	13.6819
1968.71	13.6845
1970.19	13.4084
1971.67	13.9372
1973.14	14.4562
1974.62	14.5871
1976.1	14.5613
1977.58	14.2414
1979.05	14.0499
1980.53	14.5171
1982.01	15.1644
1983.48	15.0331
1984.96	15.7035
1986.43	16.0875
1987.91	16.3713
1989.38	15.7075
1990.86	15.984
1992.33	16.4338
1993.81	16.9495
1995.28	17.2533
1996.76	17.7285
1998.23	17.7248
1999.7	18.2465
2001.18	18.5611
2002.65	19.0886
2004.12	19.9584
2005.59	20.1372
2007.06	21.0861
2008.54	20.6709
2010.01	21.4219
2011.48	21.6363
2012.95	21.8802
2014.42	21.5427
2015.89	21.5945
2017.36	21.8038
2018.83	21.9839
2020.3	21.84
2021.77	22.1461
2023.24	22.601
2024.71	22.3585
2026.17	22.0859
2027.64	21.9262
2029.11	21.5455
2030.58	21.1763
2032.04	20.8798
2033.51	21.1122
2034.98	20.9174
2036.45	21.3534
2037.91	20.9454
2039.38	20.6932
2040.84	21.407
2042.31	21.6523
2043.77	21.7874
2045.24	21.815
2046.7	21.3048
2048.17	21.6357
2049.63	21.3774
2051.1	20.7273
2052.56	20.3718
2054.02	20.3403
2055.48	20.5316
2056.95	20.5821
2058.41	20.6242
2059.87	20.4837
2061.33	20.5106
2062.8	20.6374
2064.26	20.7783
2065.72	21.0731
2067.18	21.0689
2068.64	21.5038
2070.1	22.1983
2071.56	22.7462
2073.02	23.1431
2074.48	23.6152
2075.94	24.2807
2077.4	24.4468
2078.86	24.4824
2080.31	25.0636
2081.77	25.1011
2083.23	25.8924
2084.69	25.9217
2086.14	26.6607
2087.6	26.6873
2089.06	27.3386
2090.52	27.9421
2091.97	27.9477
2093.43	27.9793
2094.88	28.0995
2096.34	28.0487
2097.79	28.1859
2099.25	28.567
2100.7	28.9347
2102.16	29.5485
2103.61	30.0761
2105.07	30.5294
2106.52	31.1589
2107.97	32.2182
2109.43	32.7896
2110.88	32.6529
2112.33	33.3481
2113.78	33.4582
2115.24	33.0442
2116.69	33.1026
2118.14	33.7893
2119.59	34.2071
2121.04	34.4454
2122.49	34.5849
2123.94	35.1002
2125.39	36.1117
2126.84	37.3722
2128.29	38.5337
2129.74	39.2537
2131.19	40.2253
2132.64	41.1375
2134.09	42.3197
2135.54	42.9943
2136.98	43.6883
2138.43	45.2114
2139.88	46.4229
2141.33	47.3781
2142.77	48.3648
2144.22	48.8353
2145.67	49.793
2147.11	51.2231
2148.56	51.9606
2150.01	52.5914
2151.45	53.9706
2152.9	55.1432
2154.34	56.0611
2155.79	56.6014
2157.23	57.2297
2158.67	57.6643
2160.12	57.5791
2161.56	57.7223
2163	57.9029
2164.45	58.0657
2165.89	58.4399
2167.33	58.7715
2168.78	58.7794
2170.22	58.6707
2171.66	58.6376
2173.1	58.5726
2174.54	58.7858
2175.98	58.5371
2177.42	58.2458
2178.86	57.7299
2180.3	57.4054
2181.74	56.5057
2183.18	55.219
2184.62	54.5405
2186.06	53.4917
2187.5	53.2719
2188.94	52.8721
2190.38	52.6605
2191.82	51.9675
2193.25	51.4278
2194.69	50.8959
2196.13	50.2622
2197.57	49.7258
2199	49.4136
2200.44	48.4122
2201.88	47.3762
2203.31	46.6041
2204.75	45.58
2206.18	44.9122
2207.62	43.6017
2209.05	42.8568
2210.49	42.3159
2211.92	41.6572
2213.36	40.354
2214.79	39.7099
2216.22	39.6243
2217.66	39.0452
2219.09	38.6824
2220.52	37.4456
2221.96	36.8279
2223.39	36.4029
2224.82	35.4432
2226.25	34.862
2227.68	34.0821
2229.11	33.4928
2230.55	32.6016
2231.98	32.0269
2233.41	32.3052
2234.84	31.9496
2236.27	31.1534
2237.7	30.6544
2239.12	29.853
2240.55	29.4332
2241.98	28.4843
2243.41	28.0521
2244.84	27.5374
2246.27	26.6036
2247.7	26.1127
2249.12	25.7238
2250.55	25.216
2251.98	24.6449
2253.41	24.2501
2254.83	23.8803
2256.26	24.1408
2257.68	24.3916
2259.11	24.146
2260.54	23.815
2261.96	23.2964
2263.39	23.1397
2264.81	22.7701
2266.24	22.4372
2267.66	23.1143
2269.08	23.0889
2270.51	22.9764
2271.93	21.9056
2273.35	21.7557
2274.78	21.0253
2276.2	20.4599
2277.62	19.4378
2279.04	18.756
2280.47	18.3363
2281.89	18.1449
2283.31	17.9338
2284.73	17.32
2286.15	17.4116
2287.57	17.4591
2288.99	16.4258
2290.41	16.3466
2291.83	15.7603
2293.25	15.8303
2294.67	16.1777
2296.09	16.0181
2297.51	16.0922
2298.93	16.2415
2300.35	16.4914
2301.76	16.4077
2303.18	16.572
2304.6	17.5857
2306.02	16.9506
2307.44	17.0968
2308.85	17.0996
2310.27	17.0636
2311.69	17.3012
2313.1	16.8749
2314.52	17.2796
2315.93	17.4104
2317.35	17.3266
2318.76	17.6391
2320.18	16.8112
2321.59	15.8516
2323.01	16.0357
2324.42	16.5017
2325.83	16.4527
2327.25	16.6196
2328.66	15.654
2330.07	15.6584
2331.49	15.2963
2332.9	15.2094
2334.31	14.8112
2335.72	14.4627
2337.13	13.8884
2338.55	13.7832
2339.96	12.687
2341.37	11.3769
2342.78	10.42
2344.19	9.89896
2345.6	8.65062
2347.01	8.34319
2348.42	7.81647
2349.83	7.83017
2351.24	7.40904
2352.65	6.87344
2354.05	6.15472
2355.46	5.8191
2356.87	5.39556
2358.28	4.82424
2359.69	4.83952
2361.09	4.82305
2362.5	4.24021
2363.91	4.17428
2365.31	4.31572
2366.72	4.77593
2368.13	5.4091
2369.53	5.80691
2370.94	5.78602
2372.34	5.60305
2373.75	6.09364
2375.15	5.97346
2376.56	5.58655
2377.96	5.18894
2379.37	4.95125
2380.77	5.07372
2382.17	4.86122
2383.58	4.634
2384.98	4.66288
2386.38	4.62108
2387.79	4.69077
2389.19	4.59837
2390.59	4.40252
2391.99	4.74568
2393.39	5.56797
2394.8	5.78893
2396.2	5.83642
2397.6	6.1638
2399	6.28526
2400.4	7.30364
2401.8	7.36851
2403.2	7.61199
2404.6	7.7189
2406	8.01064
2407.4	8.53646
2408.79	9.03304
2410.19	8.90105
2411.59	9.17265
2412.99	9.62211
2414.39	9.2187
2415.78	9.65923
2417.18	10.1203
2418.58	10.3668
2419.98	9.97795
2421.37	9.44819
2422.77	9.4624
2424.16	9.53005
2425.56	9.56732
2426.96	9.16945
2428.35	8.76619
2429.74	8.53066
2431.14	7.8877
2432.53	7.26949
2433.93	7.45491
2435.32	7.61079
2436.72	7.54471
2438.11	7.02398
2439.5	6.33666
2440.9	5.65744
2442.29	5.04394
2443.68	4.60883
2445.07	3.72815
2446.47	3.43519
2447.86	2.73985
2449.25	3.06301
2450.64	2.87408
2452.03	2.88451
2453.42	3.15253
2454.81	2.84212
2456.2	2.70177
2457.59	2.83723
2458.98	2.53392
2460.37	2.62063
2461.76	2.56188
2463.15	2.58146
2464.54	3.18288
2465.93	3.40382
2467.32	3.58039
2468.7	3.64443
2470.09	3.50217
2471.48	3.68832
2472.87	3.48046
2474.25	3.51084
2475.64	3.56078
2477.03	3.48409
2478.41	3.33779
2479.8	3.31482
2481.18	3.56852
2482.57	3.03844
2483.95	3.03633
2485.34	3.36999
2486.72	3.05355
2488.11	2.28425
2489.49	1.11162
2490.88	1.16066
2492.26	1.15358
2493.65	0.485854
2495.03	0.363403
2496.41	-0.297101
2497.79	-0.391832
2499.18	-0.352146
2500.56	-0.0395356
2501.94	0.0392531
2503.32	0.441844
2504.7	0.95136
2506.09	0.751847
2507.47	0.76381
2508.85	1.19996
2510.23	1.42809
2511.61	1.58826
2512.99	1.85377
2514.37	2.01832
2515.75	2.21779
2517.13	2.30806
2518.51	2.78302
2519.89	2.58588
2521.26	2.9449
2522.64	3.17294
2524.02	3.34991
2525.4	3.58712
2526.78	3.80153
2528.15	3.10874
2529.53	3.33003
2530.91	3.26695
2532.28	3.4692
2533.66	4.00356
2535.04	3.89719
2536.41	4.1586
2537.79	4.0651
2539.16	4.74709
2540.54	4.62668
2541.91	4.35819
2543.29	4.22654
2544.66	4.13636
2546.04	4.04696
2547.41	4.10199
2548.78	3.59781
2550.16	3.02199
2551.53	2.40001
2552.9	2.41356
2554.27	1.95169
2555.65	1.67646
2557.02	1.04962
2558.39	1.01673
2559.76	1.25977
2561.13	1.09827
2562.51	1.14086
2563.88	1.22709
2565.25	1.14469
2566.62	1.59497
2567.99	1.67268
2569.36	1.92528
2570.73	1.2968
2572.1	1.20781
2573.47	1.04455
2574.84	0.50405
2576.2	0.616322
2577.57	0.895025
2578.94	0.232216
2580.31	0.151527
2581.68	-0.0441498
2583.05	-0.112038
2584.41	-0.12046
2585.78	-0.705993
2587.15	-1.08652
2588.51	-1.10071
2589.88	-1.3646
2591.24	-1.60046
2592.61	-1.69538
2593.98	-2.20686
2595.34	-2.12791
2596.71	-1.91852
2598.07	-1.15522
2599.44	-0.609564
2600.8	-0.415252
2602.16	-0.137085
2603.53	-0.0162547
2604.89	0.347254
2606.26	-0.108482
2607.62	0.775065
2608.98	0.235285
2610.34	0.541055
2611.71	0.913989
2613.07	0.906665
2614.43	0.800431
2615.79	0.844484
2617.15	1.18639
2618.52	1.54979
2619.88	2.03914
2621.24	2.31129
2622.6	2.77852
2623.96	2.58804
2625.32	2.57951
2626.68	3.05524
2628.04	3.11682
2629.4	2.8871
2630.75	3.14816
2632.11	3.18142
2633.47	3.57137
2634.83	4.14361
2636.19	4.34692
2637.55	4.24205
2638.9	4.57819
2640.26	4.70013
2641.62	4.75465
2642.98	4.85887
2644.33	5.3284
2645.69	4.99492
2647.04	4.73012
2648.4	4.79986
2649.76	4.61291
2651.11	4.57136
2652.47	4.78101
2653.82	4.52848
2655.18	4.22035
2656.53	4.13532
2657.88	4.10023
2659.24	4.16751
2660.59	4.34551
2661.95	4.47823
2663.3	4.69496
2664.65	4.88299
2666	5.22012
2667.36	5.35797
2668.71	4.78499
2670.06	4.71067
2671.41	4.8372
2672.76	4.54163
2674.12	4.03899
2675.47	4.49683
2676.82	4.17843
2678.17	3.91764
2679.52	4.07084
2680.87	3.60673
2682.22	3.50098
2683.57	3.8186
2684.92	3.94294
2686.27	3.56272
2687.62	3.45239
2688.97	3.59754
2690.31	3.66235
2691.66	3.13411
2693.01	3.68805
2694.36	3.45923
2695.71	3.27041
2697.05	3.37667
2698.4	4.20421
2699.75	4.40161
2701.09	4.77508
2702.44	5.30192
2703.78	5.05068
2705.13	5.07228
2706.48	5.13987
2707.82	5.00731
2709.17	5.50951
2710.51	5.94914
2711.86	5.99868
2713.2	5.48045
2714.54	6.25967
2715.89	6.22042
2717.23	6.08598
2718.57	5.7113
2719.92	5.90443
2721.26	5.35805
2722.6	5.3133
2723.95	5.62989
2725.29	5.74701
2726.63	5.57842
2727.97	5.82472
2729.31	5.65797
2730.65	5.57445
2732	5.96984
2733.34	6.18363
2734.68	5.47052
2736.02	4.77673
2737.36	4.54908
2738.7	4.68997
2740.04	4.30353
2741.38	3.94127
2742.72	3.64123
2744.05	3.29441
2745.39	2.82164
2746.73	2.65664
2748.07	2.15803
2749.41	2.12861
2750.75	2.25014
2752.08	2.0514
2753.42	1.75583
2754.76	2.04378
2756.09	2.10013
2757.43	1.84999
2758.77	1.86926
2760.1	1.93073
2761.44	1.42168
2762.78	1.42096
2764.11	1.82048
2765.44	2.90334
2766.78	2.19958
2768.11	2.26937
2769.45	2.46577
2770.78	2.42211
2772.12	2.34837
2773.45	1.94257
2774.78	2.43109
2776.12	2.43373
2777.45	2.28792
2778.78	1.88445
2780.12	1.66958
2781.45	1.63458
2782.78	1.17565
2784.11	0.819314
2785.44	0.690687
2786.78	1.12824
2788.11	1.44891
2789.44	1.60524
2790.77	0.961808
2792.1	0.713558
2793.43	0.698299
2794.76	0.366021
2796.09	0.513959
2797.42	0.496379
2798.75	0.387819
2800.08	0.13256
2801.4	-0.425836
2802.73	-0.339916
2804.06	0.176076
2805.39	-0.0392431
2806.72	0.1068
2808.05	-0.411951
2809.37	-0.16682
2810.7	0.0185617
2812.03	0.135597
2813.35	0.521109
2814.68	1.06035
2816.01	1.69692
2817.33	2.10644
2818.66	2.92352
2819.98	3.8212
2821.31	5.0228
2822.63	5.95141
2823.96	7.03805
2825.28	8.28199
2826.61	9.26207
2827.93	10.5081
2829.25	11.9647
2830.58	13.4793
2831.9	14.8548
2833.23	15.359
2834.55	17.0805
2835.87	17.7753
2837.19	18.6268
2838.52	20.1163
2839.84	21.3678
2841.16	23.2411
2842.48	25.0032
2843.8	26.809
2845.12	28.6794
2846.44	30.4732
2847.77	32.8936
2849.08	35.2612
2850.4	37.4427
2851.73	39.8469
2853.05	42.7223
2854.36	45.2715
2855.68	47.0948
2857	49.4536
2858.32	51.9923
2859.64	54.7645
2860.96	57.0628
2862.28	59.8476
2863.59	61.7225
2864.91	63.6362
2866.23	66.2972
2867.55	67.7342
2868.86	69.3141
2870.18	71.0885
2871.5	72.3035
2872.81	74.0796
2874.13	74.8173
2875.44	76.0136
2876.76	77.1577
2878.07	78.6928
2879.39	79.8255
2880.7	81.0625
2882.02	82.3078
2883.33	83.3345
2884.65	84.4104
2885.96	86.1209
2887.28	87.4738
2888.59	88.0268
2889.9	89.4491
2891.21	90.9397
2892.53	92.081
2893.84	93.582
2895.15	94.992
2896.46	95.9095
2897.78	96.9885
2899.09	97.8964
2900.4	99.5576
2901.71	101.863
2903.02	104.8
2904.33	107.965
2905.64	110.18
2906.95	112.764
2908.26	115.746
2909.57	118.589
2910.88	122.271
2912.19	125.906
2913.5	129.384
2914.81	132.641
2916.12	135.486
2917.43	138.497
2918.73	141.785
2920.04	143.988
2921.35	146.241
2922.66	148.753
2923.96	150.17
2925.27	151.891
2926.58	153.262
2927.88	154.643
2929.19	155.321
2930.5	156.343
2931.8	157.294
2933.11	156.773
2934.41	156.678
2935.72	156.83
2937.02	156.53
2938.33	155.434
2939.63	153.994
2940.94	153.012
2942.24	152.251
2943.54	150.754
2944.85	149.023
2946.15	147.267
2947.45	144.972
2948.76	142.203
2950.06	140.476
2951.36	138.673
2952.66	135.488
2953.97	132.813
2955.27	130.659
2956.57	127.776
2957.87	125.57
2959.17	123.366
2960.47	121.094
2961.77	118.2
2963.07	115.986
2964.37	113.904
2965.67	112.023
2966.97	110.02
2968.27	107.745
2969.57	105.628
2970.87	102.619
2972.17	100.382
2973.47	98.7177
2974.77	96.923
2976.07	94.916
2977.36	92.0423
2978.66	89.6294
2979.96	87.1523
2981.26	84.8953
2982.55	82.4953
2983.85	79.984
2985.15	77.2914
2986.44	74.8013
2987.74	72.0054
2989.03	68.8967
2990.33	66.8009
2991.63	64.8174
2992.92	62.2677
2994.21	59.8147
2995.51	57.6103
2996.8	54.9623
2998.1	52.3591
2999.39	50.0563
3000.69	47.8116
3001.98	45.4004
3003.27	42.7648
3004.57	40.7316
3005.86	39.2117
3007.15	37.0353
3008.44	34.944
3009.74	33.12
3011.03	31.1711
3012.32	29.888
3013.61	28.334
3014.9	27.1383
3016.19	25.1927
3017.48	23.8505
3018.78	23.0463
3020.07	22.3301
3021.36	21.8405
3022.65	21.2188
3023.94	20.3056
3025.23	19.3267
3026.51	18.2263
3027.8	17.549
3029.09	17.0475
3030.38	16.7737
3031.67	17.0729
3032.96	16.7199
3034.24	16.4648
3035.53	16.2157
3036.82	16.7375
3038.11	16.6995
3039.39	17.1867
3040.68	17.7464
3041.97	18.3986
3043.25	18.8137
3044.54	18.7986
3045.83	18.894
3047.11	18.4545
3048.4	18.4658
3049.68	18.3002
3050.97	17.7475
3052.25	17.5964
3053.54	17.4213
3054.82	17.4912
3056.11	17.41
3057.39	16.9796
3058.67	17.0939
3059.96	16.8294
3061.24	16.0714
3062.52	15.5985
3063.81	14.7559
3065.09	14.2206
3066.37	14.1765
3067.65	13.5294
3068.94	13.22
3070.22	12.8845
3071.5	12.2396
3072.78	11.6005
3074.06	11.0139
3075.34	10.7377
3076.62	9.81401
3077.9	8.91982
3079.18	8.20743
3080.46	8.13849
3081.74	7.99895
3083.02	7.05298
3084.3	6.34685
3085.58	5.16682
3086.86	4.46415
3088.14	3.71818
3089.42	2.89186
3090.69	2.69089
3091.97	2.23891
3093.25	2.12436
3094.53	2.29886
3095.8	2.34664
3097.08	1.58765
3098.36	1.85775
3099.63	1.5261
3100.91	1.8285
3102.19	1.83823
3103.46	2.17704
3104.74	1.88784
3106.01	1.52618
3107.29	1.11062
3108.56	1.25224
3109.84	0.890753
3111.11	1.12239
3112.39	1.13603
3113.66	0.964994
3114.94	0.551096
3116.21	0.534048
3117.48	0.395267
3118.76	0.487786
3120.03	0.606075
3121.3	0.743192
3122.57	0.720077
3123.85	0.218819
3125.12	-0.193808
3126.39	-0.0551567
3127.66	-0.0942453
3128.93	0.434765
3130.21	0.69853
3131.48	0.315098
3132.75	0.74395
3134.02	0.640729
3135.29	0.46701
3136.56	0.555056
3137.83	1.01228
3139.1	1.28531
3140.37	1.12629
3141.64	1.41958
3142.91	1.27777
3144.17	1.0881
3145.44	1.17122
3146.71	1.77729
3147.98	2.20639
3149.25	3.68311
