#Acq. time (s)=	45
#Accumulations=	2
#Range (cm-¹)=	200...3150
#Windows=	2
#Auto scanning=	Off
#Autofocus=	Off
#Macrospot=	Off
#AutoExposure=	Off
#Spike filter=	Multiple accum.
#Delay time (s)=	0
#Binning=	1
#Readout mode=	Signal
#DeNoise=	Off
#ICS correction=	On
#Dark correction=	Off
#Inst. Process=	Off
#Detector Gain=	Best Dynamic Range
#Detector ADC=	20 kHz       
#Detector temperature (°C)=	-69.85
#Instrument=	LabRAM HR Evol
#Detector=	Synapse
#Objective=	x100
#Grating=	600 gr/mm
#ND Filter=	100%
#Laser (nm)=	532 
#Hole=	100.021
#Range=	Auto
#Laser Pol.=	No
#Raman. Pol.=	No
#Laser Pol. (°)=	-0.0007625
#Raman Pol. (°)=	89.9995
#Collection=	Microscope
#StageXY=	Marzhauser
#StageZ=	Marzhauser
#X (µm)=	1973.1
#Y (µm)=	-91.6
#Z (µm)=	425.4
#Full time(mm:ss)=	3:18
#Project=	
#Sample=	
#Site=	
#Title=	Thy_40_11_03_2x_45s_532 nm_x100_100%_600 gr_mm
#Remark=	
#Date=	05.07.2022 10:04
#Acquired=	05.07.2022 10:04:45
#Base:Fit=	10.08.2022 10:00:48
#Base:Fit=	10.08.2022 10:01:07
#Base:Fit=	10.08.2022 10:01:15
#Base:Fit=	10.08.2022 10:01:35
#Base:Sub=	10.08.2022 10:01:52
#Filter:Polynom=	16.08.2022 10:21:53
#AxisType[0]=Intens
#AxisUnit[0]=Cnt
#AxisType[1]=Spectr
#AxisUnit[1]=1/cm
200.43	15.7363
202.244	15.1117
204.059	12.0202
205.873	10.7482
207.688	10.8391
209.501	10.7436
211.314	10.4664
213.127	9.85816
214.941	10.1277
216.753	9.85176
218.564	9.3536
220.375	9.3154
222.186	8.8412
223.999	7.24632
225.809	6.62763
227.618	5.37921
229.428	5.15717
231.236	5.00966
233.045	5.48684
234.855	5.60139
236.663	5.99384
238.471	5.81804
240.278	4.45236
242.085	3.87803
243.891	4.38179
245.698	4.20403
247.503	3.7917
249.309	3.66965
251.116	3.84348
252.921	4.63669
254.725	4.57743
256.529	4.40508
258.333	4.61467
260.136	4.28499
261.939	5.22427
263.742	4.90003
265.544	3.93622
267.346	2.80566
269.148	4.15293
270.949	3.87558
272.75	3.45449
274.55	3.99075
276.351	3.85058
278.15	3.99482
279.95	4.88784
281.749	4.19011
283.548	4.10888
285.346	3.44519
287.144	3.72871
288.942	2.80746
290.739	2.87152
292.536	3.9528
294.333	5.68201
296.129	5.49593
297.925	5.02012
299.721	5.50888
301.514	6.09637
303.309	6.05829
305.104	6.30604
306.898	5.84515
308.692	5.54587
310.486	5.74404
312.279	5.29953
314.072	5.03663
315.862	6.27913
317.654	7.06872
319.446	7.03314
321.238	7.90692
323.029	8.69448
324.819	8.81434
326.608	9.18467
328.398	8.82492
330.188	9.48869
331.977	11.3668
333.766	12.0206
335.553	12.1926
337.341	12.207
339.129	12.7055
340.917	13.3798
342.704	14.1499
344.489	13.0004
346.275	13.2048
348.062	12.664
349.845	12.6208
351.631	12.6941
353.416	11.5134
355.201	10.621
356.984	11.8217
358.768	13.3074
360.552	12.1824
362.333	11.2034
364.116	10.4036
365.899	8.98335
367.68	8.23898
369.462	6.30757
371.243	4.98549
373.023	5.72216
374.804	4.8643
376.585	5.07612
378.363	6.60152
380.143	7.14417
381.923	7.68039
383.7	7.07565
385.479	6.77382
387.256	6.97842
389.034	6.81568
390.812	6.86363
392.588	4.74667
394.365	5.01197
396.14	4.6779
397.916	5.2709
399.691	6.20909
401.467	5.72876
403.24	6.66195
405.015	7.06144
406.788	7.26031
408.563	7.43262
410.335	9.28567
412.109	10.4688
413.88	10.2611
415.654	10.6519
417.424	11.7713
419.197	12.0752
420.967	11.9875
422.739	12.2339
424.508	12.3262
426.279	12.483
428.048	12.8053
429.819	13.0135
431.587	12.5435
433.356	11.2223
435.124	11.0542
436.891	10.4176
438.66	10.989
440.426	11.4456
442.194	10.3589
443.96	10.0121
445.725	9.82554
447.492	9.86437
449.257	9.04779
451.021	9.29957
452.787	8.69441
454.551	9.41697
456.314	9.19023
458.079	9.78817
459.842	11.0217
461.604	12.4365
463.368	12.6662
465.13	13.2068
466.891	12.5829
468.654	11.7904
470.415	12.1725
472.175	13.6439
473.935	14.8969
475.696	15.6326
477.456	16.2072
479.215	17.3292
480.973	17.8762
482.733	19.781
484.491	20.8251
486.249	22.7575
488.006	23.0927
489.765	24.129
491.522	25.1483
493.278	25.6776
495.034	27.2545
496.789	29.0646
498.544	30.4884
500.301	31.5603
502.056	31.6881
503.81	32.5594
505.564	33.8797
507.317	33.492
509.071	34.8488
510.825	34.1546
512.578	33.6744
514.33	33.8128
516.082	33.2407
517.833	32.4887
519.585	31.6262
521.335	31.1968
523.086	29.5535
524.836	29.5637
526.586	29.0246
528.335	28.689
530.085	27.2856
531.835	26.9861
533.584	26.7642
535.332	26.7348
537.08	25.4621
538.827	24.9004
540.574	24.1788
542.321	23.7992
544.068	22.0253
545.814	22.4774
547.56	20.1225
549.305	18.5046
551.05	16.9296
552.795	15.0093
554.54	14.9775
556.282	15.8522
558.025	15.5171
559.769	14.6541
561.512	13.0375
563.255	12.1835
564.997	11.105
566.739	9.8322
568.481	9.18126
570.223	8.52973
571.964	7.84645
573.705	8.17026
575.443	7.05903
577.183	7.63408
578.923	5.98907
580.663	5.75317
582.402	6.24961
584.141	6.46522
585.879	4.65419
587.615	4.53017
589.353	3.11171
591.09	2.68939
592.828	3.08329
594.564	1.98669
596.299	1.74373
598.035	0.501544
599.771	1.64728
601.506	1.05644
603.242	1.38012
604.974	1.15821
606.709	1.78143
608.443	2.08351
610.177	2.72049
611.908	4.44737
613.642	5.0775
615.374	6.79109
617.105	7.27424
618.837	8.37553
620.569	9.58804
622.3	11.062
624.03	11.7
625.761	12.351
627.491	13.4762
629.219	13.055
630.949	14.4114
632.677	15.6451
634.406	15.9707
636.135	17.4386
637.861	19.2244
639.59	20.4917
641.318	21.8782
643.043	22.5127
644.77	22.8476
646.495	23.3042
648.222	24.3925
649.948	24.8183
651.672	25.0123
653.398	25.3727
655.121	26.173
656.846	25.434
658.569	26.1345
660.293	27.2224
662.015	27.082
663.738	28.6486
665.46	27.7497
667.183	29.095
668.903	30.1606
670.626	30.5721
672.346	30.5819
674.067	32.4668
675.787	32.3811
677.508	33.2817
679.226	33.134
680.947	33.3138
682.665	33.251
684.385	33.9968
686.102	33.8266
687.821	34.0964
689.538	36.2397
691.254	37.3084
692.972	38.1898
694.688	38.8491
696.406	40.0192
698.121	40.5826
699.835	40.6454
701.552	41.7453
703.266	42.9184
704.98	45.0228
706.695	46.1851
708.409	45.9381
710.121	45.7137
711.836	46.4451
713.548	47.6263
715.26	48.1721
716.973	49.1632
718.685	48.3719
720.396	48.718
722.108	49.6897
723.818	50.1743
725.528	50.7769
727.238	50.847
728.949	51.9172
730.658	51.675
732.367	50.8711
734.075	49.9522
735.785	50.0954
737.493	50.3916
739.2	51.6349
740.907	53.0959
742.614	54.0489
744.322	55.9755
746.028	57.3745
747.734	59.5726
749.439	61.2952
751.144	61.1102
752.849	63.838
754.555	65.7382
756.26	67.3871
757.963	68.6752
759.667	69.9516
761.37	69.5207
763.073	70.4255
764.775	72.1746
766.477	74.2199
768.179	74.8992
769.883	77.3979
771.584	78.7718
773.285	80.9665
774.986	82.0528
776.686	82.617
778.386	84.2006
780.085	84.7648
781.785	85.8518
783.484	86.9092
785.182	88.1084
786.881	90.6155
788.579	91.7325
790.276	91.6494
791.974	90.6598
793.671	90.6412
795.367	90.7112
797.064	92.1224
798.76	92.5446
800.456	92.7617
802.151	91.9173
803.846	91.6252
805.541	91.7387
807.234	92.0653
808.928	92.3976
810.622	93.0757
812.315	93.8333
814.008	93.2022
815.701	93.1132
817.394	94.0046
819.086	93.8433
820.778	95.2704
822.468	95.6598
824.159	95.9474
825.85	95.5176
827.541	94.9415
829.231	95.3841
830.921	95.506
832.609	95.2549
834.298	94.8352
835.987	94.5725
837.676	95.309
839.364	94.7685
841.051	93.8951
842.738	93.2532
844.426	92.3659
846.113	91.4103
847.798	91.7495
849.484	91.55
851.171	90.5154
852.857	89.8729
854.54	89.1601
856.226	88.2332
857.911	87.1177
859.593	86.0915
861.278	86.7494
862.961	85.8483
864.645	84.0497
866.327	83.7093
868.01	83.0081
869.692	83.3165
871.373	82.0726
873.055	80.732
874.735	80.1574
876.416	79.2953
878.097	79.5766
879.776	78.9352
881.457	77.8308
883.135	75.794
884.815	75.0683
886.495	73.9427
888.172	74.6705
889.851	75.8335
891.528	76.5578
893.206	76.7409
894.882	77.3372
896.56	77.5811
898.237	75.5938
899.912	74.9793
901.589	72.8555
903.263	70.3214
904.94	70.2507
906.614	68.9973
908.289	67.6513
909.962	66.1998
911.635	65.6671
913.31	65.9617
914.982	64.9807
916.656	64.8136
918.328	65.0201
920.001	65.1546
921.672	64.7614
923.345	65.3638
925.015	65.1987
926.685	63.6248
928.357	62.5
930.026	62.7401
931.698	62.1644
933.366	61.6997
935.035	60.7822
936.705	60.3989
938.373	59.7744
940.041	60.2885
941.71	58.6065
943.377	57.7102
945.044	57.33
946.712	54.9734
948.378	55.2293
950.044	55.617
951.709	55.9505
953.376	55.9606
955.041	55.9912
956.706	56.5758
958.372	56.0005
960.036	55.0515
961.699	54.9237
963.362	54.8549
965.027	54.0747
966.69	55.7306
968.352	56.8735
970.014	57.4242
971.676	58.3376
973.339	57.6432
975	56.7088
976.661	55.3445
978.322	54.7601
979.982	51.8835
981.642	49.5296
983.303	49.6038
984.962	48.9793
986.621	48.633
988.28	48.2618
989.938	48.8708
991.596	48.6947
993.254	49.0926
994.911	51.1181
996.57	52.0938
998.227	51.4439
999.884	51.7655
1001.54	51.8887
1003.2	53.0036
1004.85	52.471
1006.51	52.365
1008.16	50.9164
1009.82	50.059
1011.47	50.7268
1013.12	50.8755
1014.78	50.3819
1016.43	50.6605
1018.08	51.4741
1019.74	52.0429
1021.39	51.3179
1023.04	51.4138
1024.69	49.9753
1026.34	50.5894
1028	51.1859
1029.65	51.5267
1031.3	52.819
1032.95	52.9609
1034.6	52.8625
1036.25	53.7087
1037.9	53.6931
1039.54	52.8181
1041.19	52.0951
1042.84	52.7596
1044.49	52.2939
1046.14	51.7998
1047.78	51.1907
1049.43	50.8451
1051.08	50.1556
1052.72	48.6242
1054.37	46.6586
1056.02	44.1625
1057.66	42.1864
1059.31	40.1943
1060.95	39.6164
1062.6	38.283
1064.24	37.9675
1065.88	37.0468
1067.53	35.0637
1069.17	35.0326
1070.81	34.7767
1072.45	35.7944
1074.1	34.4899
1075.74	34.7231
1077.38	33.8377
1079.02	32.5383
1080.66	30.005
1082.3	28.5285
1083.94	28.1524
1085.58	29.1512
1087.22	27.9307
1088.86	27.6314
1090.5	27.6177
1092.14	27.2957
1093.78	27.1698
1095.42	26.8634
1097.05	27.4162
1098.69	27.9556
1100.33	27.2071
1101.96	27.26
1103.6	26.5337
1105.24	27.8174
1106.87	26.542
1108.51	26.9415
1110.14	27.6507
1111.78	27.5781
1113.41	27.7933
1115.05	28.4976
1116.68	28.578
1118.31	28.7384
1119.95	27.4343
1121.58	26.8514
1123.21	26.0325
1124.85	24.7259
1126.48	23.3144
1128.11	21.8901
1129.74	20.5761
1131.37	19.5299
1133	19.2852
1134.63	17.524
1136.26	17.0768
1137.89	16.6532
1139.52	16.2435
1141.15	16.4215
1142.78	16.8613
1144.41	15.9622
1146.04	15.7458
1147.66	16.2291
1149.29	16.4534
1150.92	15.3659
1152.55	14.7632
1154.17	14.0467
1155.8	13.8829
1157.43	12.8106
1159.05	10.8142
1160.68	10.8618
1162.3	9.79881
1163.93	11.5333
1165.55	12.829
1167.17	13.2926
1168.8	13.5403
1170.42	13.8927
1172.05	13.4629
1173.67	14.2197
1175.29	15.2651
1176.91	16.9073
1178.54	16.5742
1180.16	16.3967
1181.78	16.7838
1183.4	18.5709
1185.02	18.4306
1186.64	18.8943
1188.26	18.4245
1189.88	20.1782
1191.5	20.6859
1193.12	20.4637
1194.74	21.4728
1196.36	21.8861
1197.97	22.1484
1199.59	22.2032
1201.21	22.3749
1202.83	22.8187
1204.44	23.711
1206.06	25.2574
1207.68	26.1083
1209.29	26.0413
1210.91	27.8974
1212.52	30.3577
1214.14	32.1612
1215.75	33.7573
1217.37	36.0683
1218.98	37.8762
1220.59	39.2391
1222.21	41.2496
1223.82	42.412
1225.43	43.1055
1227.05	44.7544
1228.66	45.987
1230.27	46.7021
1231.88	47.1865
1233.49	49.5692
1235.1	50.1521
1236.72	50.8781
1238.33	51.9631
1239.94	54.2157
1241.55	56.5621
1243.16	58.177
1244.76	60.5789
1246.37	61.5865
1247.98	62.6517
1249.59	64.6646
1251.2	65.4895
1252.8	66.5123
1254.41	68.1176
1256.02	68.3243
1257.62	69.3097
1259.23	68.9226
1260.84	70.9421
1262.44	72.7115
1264.05	73.8383
1265.66	75.6635
1267.26	77.4371
1268.86	78.096
1270.47	79.6043
1272.07	80.395
1273.67	82.8116
1275.28	84.4523
1276.88	84.7596
1278.48	85.973
1280.09	88.137
1281.69	89.2005
1283.29	90.047
1284.89	91.3933
1286.49	92.8254
1288.09	92.3551
1289.69	93.2842
1291.29	94.625
1292.89	95.2105
1294.49	96.3253
1296.09	97.3391
1297.69	98.5091
1299.29	99.2165
1300.89	98.7523
1302.49	99.7389
1304.08	100.883
1305.68	100.697
1307.28	101.251
1308.88	102.334
1310.47	103.363
1312.07	103.717
1313.66	103.62
1315.26	104.69
1316.85	105.602
1318.45	106.362
1320.04	105.129
1321.64	104.04
1323.23	103.197
1324.83	102.647
1326.42	101.515
1328.01	100.639
1329.61	100.955
1331.2	100.227
1332.79	98.9778
1334.38	98.1395
1335.97	98.4242
1337.56	97.4805
1339.16	95.9421
1340.75	93.9824
1342.34	92.2638
1343.93	90.7321
1345.52	88.713
1347.11	86.0839
1348.7	83.097
1350.29	81.5128
1351.87	78.5498
1353.46	76.806
1355.05	74.1041
1356.64	70.9945
1358.22	69.6378
1359.81	67.6784
1361.4	63.727
1362.98	62.4661
1364.57	60.6391
1366.16	57.9095
1367.74	56.1779
1369.33	55.0836
1370.91	54.6328
1372.5	53.5811
1374.08	53.2324
1375.67	51.6836
1377.25	50.4084
1378.83	49.2586
1380.41	48.7782
1382	48.6101
1383.58	47.3351
1385.16	46.4326
1386.74	47.0793
1388.33	47.4988
1389.91	46.7171
1391.49	45.4722
1393.07	44.7517
1394.65	45.4087
1396.23	43.8271
1397.81	42.2298
1399.39	42.6024
1400.97	42.5016
1402.55	42.7012
1404.13	43.6285
1405.7	43.0346
1407.28	43.7066
1408.86	44.4573
1410.44	44.2897
1412.01	45.2558
1413.59	45.9004
1415.17	46.7969
1416.74	46.8999
1418.32	47.086
1419.89	47.5225
1421.47	48.612
1423.04	49.6201
1424.62	51.5165
1426.19	52.7985
1427.77	54.0203
1429.34	55.0451
1430.91	56.8402
1432.49	60.7672
1434.06	63.6162
1435.63	65.1939
1437.2	69.4519
1438.78	71.2485
1440.35	74.3722
1441.92	77.9274
1443.49	78.1023
1445.06	80.041
1446.63	81.6245
1448.2	82.2451
1449.77	82.6377
1451.34	81.6565
1452.91	82.345
1454.48	81.8752
1456.05	81.5613
1457.62	80.8787
1459.18	78.9982
1460.75	77.4777
1462.32	75.788
1463.89	74.0244
1465.45	70.6311
1467.02	68.0838
1468.59	65.3594
1470.15	63.2038
1471.72	60.5793
1473.28	57.3482
1474.85	54.4641
1476.41	51.1978
1477.98	48.6978
1479.54	44.916
1481.1	42.1623
1482.67	37.4564
1484.23	33.3966
1485.79	30.3068
1487.36	27.8262
1488.92	24.9208
1490.48	23.3235
1492.04	20.4864
1493.61	18.7561
1495.17	16.812
1496.73	14.8749
1498.29	13.6551
1499.85	12.8995
1501.41	12.6964
1502.97	12.2247
1504.53	11.5894
1506.09	12.0561
1507.65	12.8064
1509.2	14.261
1510.76	14.5512
1512.32	15.0154
1513.88	15.064
1515.43	15.8869
1516.99	15.5179
1518.55	16.1862
1520.1	15.5559
1521.66	14.5289
1523.22	15.4917
1524.77	15.2062
1526.33	16.2463
1527.88	17.2148
1529.44	18.5426
1530.99	19.7858
1532.54	20.3182
1534.1	21.6687
1535.65	22.8314
1537.21	23.8917
1538.76	25.1669
1540.31	25.423
1541.86	25.6464
1543.42	27.0739
1544.97	29.1241
1546.52	30.3869
1548.07	32.0688
1549.62	33.356
1551.17	34.3283
1552.72	36.6964
1554.27	37.0524
1555.82	39.0073
1557.37	39.3611
1558.92	40.8945
1560.47	41.3859
1562.02	42.8304
1563.56	45.0362
1565.11	47.3062
1566.66	49.0918
1568.21	51.599
1569.75	53.2782
1571.3	55.3602
1572.85	57.445
1574.39	58.7603
1575.94	60.5229
1577.49	62.2686
1579.03	63.0766
1580.57	64.1202
1582.12	65.6175
1583.66	67.367
1585.21	68.791
1586.75	69.7447
1588.3	69.8652
1589.84	71.795
1591.38	72.5293
1592.92	72.0978
1594.47	72.7349
1596.01	73.2266
1597.55	73.9352
1599.09	74.7979
1600.63	75.5603
1602.17	76.8902
1603.71	77.439
1605.25	76.5053
1606.79	77.7223
1608.33	76.8405
1609.87	77.5414
1611.41	77.6495
1612.95	77.1657
1614.49	78.1613
1616.03	76.9725
1617.57	78.283
1619.1	79.1254
1620.64	80.0513
1622.18	80.7614
1623.72	81.8008
1625.25	84.2134
1626.79	85.4592
1628.32	86.4661
1629.86	89.0399
1631.39	89.6129
1632.93	91.1352
1634.46	91.7971
1636	93.8541
1637.53	94.9953
1639.07	96.5187
1640.6	99.6745
1642.13	100.891
1643.67	103.315
1645.2	104.5
1646.73	105.303
1648.26	105.998
1649.8	107.893
1651.33	107.97
1652.86	108.559
1654.39	108.436
1655.92	108.05
1657.45	108.34
1658.98	108.42
1660.51	107.923
1662.04	106.877
1663.57	105.742
1665.1	105.1
1666.63	104.493
1668.16	102.758
1669.68	100.028
1671.21	98.6463
1672.74	95.7991
1674.27	92.3538
1675.79	87.8121
1677.32	84.1909
1678.85	80.6906
1680.37	76.3398
1681.9	71.9661
1683.42	69.1181
1684.95	64.4696
1686.47	61.5999
1688	58.4987
1689.52	54.9362
1691.05	52.4064
1692.57	47.7816
1694.09	45.517
1695.62	41.2464
1697.14	37.8448
1698.66	35.4411
1700.18	33.0349
1701.71	31.0337
1703.23	27.5328
1704.75	25.9561
1706.27	23.5322
1707.79	21.2523
1709.31	19.7127
1710.83	18.8546
1712.35	17.703
1713.87	16.8089
1715.39	15.4574
1716.91	14.0514
1718.43	12.4852
1719.95	12.0178
1721.47	10.1263
1722.99	10.0877
1724.5	9.55448
1726.02	9.86768
1727.54	9.14874
1729.06	8.48393
1730.57	7.89932
1732.09	7.65142
1733.61	8.27013
1735.12	8.59686
1736.64	8.35392
1738.15	8.22565
1739.67	8.53742
1741.18	8.84539
1742.7	7.8168
1744.21	7.21326
1745.72	6.90558
1747.24	6.74577
1748.75	5.67385
1750.26	5.3883
1751.77	4.82768
1753.29	5.394
1754.8	5.68456
1756.31	5.44018
1757.82	4.94401
1759.33	5.49322
1760.84	5.61626
1762.36	5.56463
1763.87	5.68773
1765.38	4.58832
1766.89	4.38671
1768.4	3.5734
1769.91	3.21193
1771.41	2.58132
1772.92	2.84067
1774.43	3.12019
1775.94	2.90565
1777.45	2.6451
1778.95	2.52269
1780.46	3.54635
1781.97	3.26325
1783.48	4.04969
1784.98	4.15747
1786.49	4.61358
1787.99	4.41074
1789.5	4.18925
1791.01	4.05463
1792.51	4.61704
1794.01	5.1168
1795.52	5.36951
1797.02	4.91987
1798.53	4.92948
1800.03	4.363
1801.53	4.48827
1803.04	3.80193
1804.54	3.00141
1806.04	3.27099
1807.54	3.85409
1809.05	3.8847
1810.55	2.6664
1812.05	2.16655
1813.55	2.03758
1815.05	2.38175
1816.55	2.19036
1818.05	2.57909
1819.55	2.89528
1821.05	3.02053
1822.55	2.50251
1824.05	2.28594
1825.55	2.01822
1827.05	2.032
1828.55	2.73694
1830.04	3.17408
1831.54	2.37112
1833.04	2.37035
1834.54	2.46261
1836.03	2.3252
1837.53	2.39234
1839.03	2.21338
1840.52	2.2224
1842.02	2.39641
1843.51	2.43191
1845.01	2.53476
1846.5	2.84233
1848	2.94883
1849.49	2.75044
1850.99	2.7272
1852.48	3.03804
1853.97	3.31806
1855.47	3.96531
1856.96	4.44526
1858.45	4.87376
1859.94	4.28806
1861.44	4.60064
1862.93	4.56811
1864.42	4.56243
1865.91	4.9434
1867.4	5.57234
1868.89	4.85292
1870.38	4.82561
1871.87	4.20436
1873.36	4.11757
1874.85	5.2443
1876.34	4.68849
1877.83	4.78627
1879.32	4.55271
1880.81	5.36333
1882.3	4.78577
1882.57	4.00001
1884.07	3.52238
1885.56	3.9755
1887.06	3.81066
1888.55	3.81203
1890.04	3.39769
1891.54	3.25357
1893.03	2.52284
1894.52	2.55954
1896.02	2.30778
1897.51	2.24088
1899	1.92739
1900.49	1.95504
1901.98	1.67456
1903.47	1.67356
1904.96	1.36484
1906.45	1.62591
1907.94	1.11619
1909.43	1.12236
1910.92	1.22637
1912.41	0.802657
1913.9	0.854008
1915.39	0.308068
1916.88	-0.0302615
1918.37	0.0578573
1919.85	-0.432125
1921.34	-1.29223
1922.83	-1.6064
1924.32	-1.37388
1925.8	-1.3583
1927.29	-1.09207
1928.78	-0.494038
1930.26	-0.654038
1931.75	-0.922852
1933.23	-1.04501
1934.72	-0.0646731
1936.2	-0.355491
1937.69	-0.280365
1939.17	-0.660952
1940.66	-0.713562
1942.14	-0.249702
1943.63	-0.439543
1945.11	-0.396658
1946.59	0.331848
1948.07	0.445683
1949.56	0.078969
1951.04	0.895657
1952.52	1.11971
1954	1.83048
1955.48	0.837881
1956.96	0.773058
1958.45	1.00013
1959.93	1.27392
1961.41	1.14943
1962.89	1.32113
1964.37	0.999508
1965.85	1.75081
1967.32	1.94877
1968.8	2.3158
1970.28	2.26225
1971.76	2.58896
1973.24	3.03497
1974.72	3.11912
1976.19	3.38632
1977.67	3.47564
1979.15	3.23387
1980.63	3.93188
1982.1	3.71758
1983.58	4.06044
1985.05	4.0171
1986.53	3.58551
1988	3.82938
1989.48	3.37741
1990.95	3.2363
1992.43	3.54297
1993.9	3.39693
1995.38	3.17401
1996.85	2.83425
1998.32	3.45081
1999.8	3.15238
2001.27	2.88802
2002.74	3.20358
2004.22	3.23029
2005.69	2.68064
2007.16	2.36722
2008.63	2.43037
2010.1	2.16223
2011.57	2.21002
2013.04	1.92946
2014.51	2.21726
2015.98	2.50605
2017.45	1.85763
2018.92	2.48415
2020.39	3.16326
2021.86	3.30359
2023.33	3.8925
2024.8	3.62175
2026.27	3.55745
2027.74	3.39717
2029.2	3.46782
2030.67	3.00646
2032.14	3.41376
2033.61	3.75524
2035.07	3.89869
2036.54	4.15677
2038.01	4.34049
2039.47	5.50207
2040.94	4.61749
2042.4	5.19135
2043.87	5.56253
2045.33	5.77832
2046.8	6.53602
2048.26	6.65583
2049.72	7.21388
2051.19	7.60551
2052.65	7.67881
2054.12	8.26211
2055.58	7.71796
2057.04	8.24407
2058.5	7.97302
2059.97	8.48155
2061.43	9.80174
2062.89	10.0657
2064.35	10.8563
2065.81	11.2026
2067.27	10.8689
2068.73	11.2302
2070.19	11.4928
2071.65	13.0973
2073.11	13.0536
2074.57	14.3597
2076.03	15.2097
2077.49	15.7313
2078.95	15.9225
2080.41	17.4138
2081.87	18.7602
2083.32	19.3075
2084.78	19.7718
2086.24	21.0798
2087.7	22.3992
2089.15	23.7253
2090.61	24.7557
2092.07	25.9715
2093.52	27.1404
2094.98	28.1439
2096.43	29.1552
2097.89	29.3836
2099.34	30.6239
2100.8	31.8938
2102.25	33.3807
2103.71	34.469
2105.16	36.7329
2106.61	37.7414
2108.07	39.3958
2109.52	41.9512
2110.97	42.7909
2112.43	44.58
2113.88	45.805
2115.33	48.6488
2116.78	50.8887
2118.23	53.0226
2119.68	55.5436
2121.13	56.7998
2122.59	58.454
2124.04	60.239
2125.49	61.87
2126.94	64.0656
2128.39	65.8318
2129.83	67.912
2131.28	70.0782
2132.73	73.4219
2134.18	75.3738
2135.63	76.7747
2137.08	78.9091
2138.53	80.507
2139.97	82.0882
2141.42	84.8764
2142.87	86.4608
2144.31	89.1414
2145.76	91.934
2147.21	94.9943
2148.65	96.8353
2150.1	99.5087
2151.54	101.284
2152.99	103.097
2154.43	104.633
2155.88	105.786
2157.32	107.59
2158.77	109.429
2160.21	110.848
2161.65	111.43
2163.1	112.682
2164.54	114.82
2165.98	114.729
2167.43	115.465
2168.87	115.431
2170.31	115.546
2171.75	116.403
2173.19	117.148
2174.64	117.635
2176.07	117.881
2177.52	117.699
2178.96	116.9
2180.4	117.261
2181.84	116.679
2183.28	115.382
2184.72	115.28
2186.15	114.463
2187.59	113.345
2189.03	111.404
2190.47	109.259
2191.91	107.288
2193.35	104.815
2194.78	103.54
2196.22	101.127
2197.66	99.2797
2199.09	96.2842
2200.53	94.1343
2201.97	91.9734
2203.4	89.8557
2204.84	87.6458
2206.27	84.574
2207.71	82.2855
2209.14	80.6162
2210.58	79.0715
2212.01	76.828
2213.45	75.82
2214.88	74.3363
2216.31	73.6579
2217.75	71.9573
2219.18	69.6482
2220.61	68.0124
2222.05	66.1204
2223.48	63.7672
2224.91	61.9043
2226.34	60.3995
2227.78	58.7363
2229.21	57.5103
2230.64	55.5098
2232.07	53.8789
2233.5	52.2048
2234.93	50.8142
2236.36	49.5838
2237.79	47.2481
2239.22	46.0846
2240.65	44.4026
2242.08	43.2154
2243.5	41.9387
2244.93	41.4121
2246.36	39.9849
2247.79	38.6775
2249.22	37.693
2250.64	36.3366
2252.07	35.5758
2253.5	34.4445
2254.92	33.468
2256.35	32.4278
2257.78	31.1432
2259.2	29.9058
2260.63	29.6426
2262.05	28.9026
2263.48	28.0666
2264.9	27.2389
2266.33	26.765
2267.75	26.2102
2269.18	26.3189
2270.6	25.305
2272.02	25.995
2273.45	24.9522
2274.87	24.788
2276.29	25.5433
2277.71	25.0527
2279.14	25.3813
2280.56	24.9165
2281.98	24.1247
2283.4	23.9798
2284.82	24.4587
2286.24	23.9425
2287.66	23.1347
2289.08	22.561
2290.5	21.8707
2291.92	21.2011
2293.34	19.7028
2294.76	19.4634
2296.18	18.8658
2297.6	18.852
2299.02	18.9787
2300.44	19.0051
2301.86	18.8231
2303.27	19.0584
2304.69	19.0129
2306.11	18.5024
2307.53	18.909
2308.94	17.7097
2310.36	17.3728
2311.78	17.721
2313.19	17.9062
2314.61	17.9007
2316.02	17.4873
2317.44	17.3493
2318.85	17.1925
2320.27	16.7958
2321.68	16.1899
2323.1	16.3575
2324.51	16.356
2325.92	16.4629
2327.34	16.2845
2328.75	15.8795
2330.16	16.3747
2331.58	16.1258
2332.99	14.1852
2334.4	13.3574
2335.81	13.3626
2337.23	13.4868
2338.64	12.9046
2340.05	11.7751
2341.46	11.3349
2342.87	10.5641
2344.28	9.04816
2345.69	9.13839
2347.1	7.91973
2348.51	6.37986
2349.92	5.77682
2351.33	4.33303
2352.74	3.75344
2354.15	3.95548
2355.55	3.00346
2356.96	1.38459
2358.37	0.627576
2359.78	-0.24315
2361.19	-0.751256
2362.59	-1.2446
2364	-1.67232
2365.41	-0.404004
2366.81	-0.063513
2368.22	0.688388
2369.62	0.786713
2371.03	0.53399
2372.44	0.43856
2373.84	0.460355
2375.24	0.164261
2376.65	0.241723
2378.05	0.709554
2379.46	0.67172
2380.86	1.32995
2382.26	1.80555
2383.67	1.39804
2385.07	0.955097
2386.47	1.44481
2387.88	2.29298
2389.28	2.53255
2390.68	2.35332
2392.08	2.70728
2393.48	3.00917
2394.89	3.59136
2396.29	3.8957
2397.69	3.59166
2399.09	3.40255
2400.49	3.46353
2401.89	2.80074
2403.29	3.09458
2404.69	4.59283
2406.09	5.5813
2407.48	6.34369
2408.88	6.51036
2410.28	6.84971
2411.68	7.74475
2413.08	7.77855
2414.48	8.13652
2415.87	9.12967
2417.27	9.44843
2418.67	9.89741
2420.06	10.4075
2421.46	10.6174
2422.86	11.1177
2424.25	11.614
2425.65	11.7148
2427.04	11.7306
2428.44	11.4964
2429.83	11.6326
2431.23	11.4556
2432.62	10.8128
2434.02	11.5162
2435.41	11.9345
2436.81	11.5364
2438.2	11.3832
2439.59	11.0678
2440.99	11.3828
2442.38	10.9069
2443.77	10.5362
2445.16	10.2668
2446.56	10.228
2447.95	9.73559
2449.34	9.28663
2450.73	8.23323
2452.12	8.24793
2453.51	7.0596
2454.9	6.48734
2456.29	6.8087
2457.68	6.53924
2459.07	6.06631
2460.46	5.00991
2461.85	5.40719
2463.24	5.34551
2464.63	5.15684
2466.02	4.70148
2467.4	4.43239
2468.79	4.31049
2470.18	4.5637
2471.57	4.81462
2472.95	5.52228
2474.34	6.3136
2475.73	6.19739
2477.12	7.15453
2478.5	7.63919
2479.89	7.87665
2481.27	8.53183
2482.66	8.83256
2484.04	8.87216
2485.43	8.67715
2486.81	8.44633
2488.2	8.42124
2489.58	8.56389
2490.97	8.07607
2492.35	8.03694
2493.73	8.29365
2495.12	8.24761
2496.5	6.97448
2497.88	6.12402
2499.27	6.49394
2500.65	6.6562
2502.03	6.70268
2503.41	7.11775
2504.79	7.18662
2506.17	7.04257
2507.56	6.38167
2508.94	5.92201
2510.32	5.7105
2511.7	4.49311
2513.08	4.10284
2514.46	4.49663
2515.84	4.24237
2517.22	4.02026
2518.59	3.87375
2519.97	3.61068
2521.35	4.07333
2522.73	3.57436
2524.11	3.7417
2525.49	4.49789
2526.86	3.59895
2528.24	3.51625
2529.62	3.4587
2530.99	3.95109
2532.37	3.81589
2533.75	4.0881
2535.12	4.37522
2536.5	4.42527
2537.88	4.267
2539.25	4.27661
2540.63	4.07608
2542	4.72841
2543.38	5.11845
2544.75	5.34325
2546.12	5.91408
2547.5	5.61857
2548.87	4.55888
2550.24	4.04243
2551.62	2.85298
2552.99	2.62125
2554.36	2.37823
2555.74	2.48635
2557.11	2.54243
2558.48	2.12342
2559.85	2.1675
2561.22	2.54231
2562.59	3.26795
2563.96	2.54322
2565.34	2.87277
2566.71	3.52371
2568.08	3.82453
2569.45	3.77051
2570.82	3.10716
2572.18	3.33587
2573.55	3.49894
2574.92	3.63946
2576.29	3.50663
2577.66	4.33143
2579.03	4.18718
2580.4	4.28919
2581.77	5.27057
2583.13	6.10052
2584.5	5.89442
2585.87	5.93917
2587.23	5.84057
2588.6	6.07183
2589.97	6.07504
2591.33	6.18972
2592.7	6.12082
2594.06	6.66045
2595.43	6.3098
2596.79	6.63944
2598.16	6.02318
2599.52	6.0322
2600.89	6.23907
2602.25	5.78094
2603.62	5.68017
2604.98	5.03394
2606.34	4.53852
2607.71	4.372
2609.07	4.25367
2610.43	4.71673
2611.79	3.92
2613.16	3.68575
2614.52	3.33078
2615.88	2.84116
2617.24	2.41394
2618.6	2.49833
2619.96	2.50054
2621.32	3.42368
2622.68	3.34625
2624.04	3.55796
2625.4	4.35279
2626.76	4.70178
2628.12	5.23354
2629.48	5.40871
2630.84	5.22121
2632.2	4.70142
2633.56	4.69077
2634.92	4.37838
2636.28	3.98614
2637.63	3.99255
2638.99	4.21425
2640.35	4.77182
2641.71	5.19801
2643.06	5.34643
2644.42	5.09834
2645.77	6.15937
2647.13	5.60121
2648.49	5.08814
2649.84	5.03601
2651.2	4.65966
2652.55	4.18888
2653.91	3.89996
2655.26	3.55695
2656.62	3.6619
2657.97	2.77201
2659.33	2.65934
2660.68	2.5714
2662.03	2.7979
2663.39	2.23503
2664.74	2.0396
2666.09	2.41789
2667.44	2.86691
2668.8	2.99763
2670.15	3.03155
2671.5	3.35176
2672.85	2.69419
2674.2	3.03206
2675.55	3.07063
2676.91	3.29462
2678.26	3.97472
2679.61	4.79723
2680.96	5.80082
2682.31	6.76866
2683.66	6.70048
2685	6.51627
2686.35	6.29017
2687.7	6.49151
2689.05	6.75568
2690.4	6.39289
2691.75	6.32965
2693.1	7.17112
2694.44	6.94763
2695.79	6.48957
2697.14	6.53823
2698.49	6.39567
2699.83	6.26609
2701.18	6.27812
2702.52	6.23152
2703.87	6.2969
2705.22	6.80956
2706.56	7.07473
2707.91	7.44549
2709.25	7.84593
2710.6	8.08489
2711.94	8.08638
2713.29	8.07671
2714.63	7.19812
2715.97	7.20185
2717.32	7.35304
2718.66	7.30234
2720.01	7.25607
2721.35	6.96588
2722.69	6.24839
2724.03	6.42631
2725.38	6.12785
2726.72	6.63851
2728.06	7.18083
2729.4	7.01641
2730.74	6.56133
2732.08	6.20706
2733.42	6.26525
2734.76	5.84067
2736.1	6.02952
2737.44	6.20635
2738.78	6.11139
2740.12	5.77413
2741.46	6.40606
2742.8	6.09273
2744.14	6.98404
2745.48	6.66821
2746.82	6.1986
2748.16	5.80385
2749.49	5.38816
2750.83	4.53944
2752.17	4.51863
2753.51	4.41601
2754.84	5.03397
2756.18	4.90426
2757.52	4.44768
2758.85	5.216
2760.19	5.59814
2761.53	5.70579
2762.86	6.04878
2764.2	5.9606
2765.53	5.45693
2766.87	5.0635
2768.2	5.57588
2769.54	5.24301
2770.87	5.99314
2772.2	6.61744
2773.54	6.82154
2774.87	6.95348
2776.2	6.98143
2777.54	6.90397
2778.87	6.76298
2780.2	6.57415
2781.53	6.37175
2782.87	6.58404
2784.2	5.77312
2785.53	5.34728
2786.86	5.19024
2788.19	4.06126
2789.52	3.5079
2790.85	3.80706
2792.18	3.32429
2793.51	3.05899
2794.84	2.54037
2796.17	2.08634
2797.5	1.79765
2798.83	1.42867
2800.16	1.86917
2801.49	1.57598
2802.82	1.32138
2804.15	0.225009
2805.47	-0.16736
2806.8	-0.6523
2808.13	-0.48685
2809.46	-1.02322
2810.78	-0.864775
2812.11	-1.44497
2813.44	-1.15349
2814.76	-0.956013
2816.09	-1.20514
2817.42	-0.583946
2818.74	-0.194799
2820.07	0.536629
2821.39	1.74476
2822.72	3.01247
2824.04	4.28208
2825.37	5.82235
2826.69	7.05048
2828.02	9.62578
2829.34	11.3169
2830.66	12.7296
2831.99	14.8784
2833.31	16.9527
2834.63	19.4766
2835.96	22.2063
2837.28	24.892
2838.6	27.332
2839.92	29.2595
2841.24	32.2524
2842.57	35.5822
2843.89	39.4946
2845.21	43.8889
2846.53	47.2271
2847.85	51.1059
2849.17	55.7488
2850.49	59.9328
2851.81	64.7165
2853.13	69.0606
2854.45	73.9818
2855.77	79.6074
2857.09	84.642
2858.41	89.0611
2859.72	94.3092
2861.04	99.3397
2862.36	103.652
2863.68	107.503
2865	111.975
2866.31	115.972
2867.63	119.301
2868.95	122.375
2870.26	124.907
2871.58	128.403
2872.9	131.037
2874.21	134.218
2875.53	137.541
2876.84	139.977
2878.16	142.526
2879.47	145.157
2880.79	147.878
2882.1	151.094
2883.42	154.481
2884.73	156.925
2886.05	159.791
2887.36	162.854
2888.67	165.079
2889.99	167.316
2891.3	170.446
2892.61	173.775
2893.92	177.483
2895.24	179.73
2896.55	183.337
2897.86	186.669
2899.17	190.163
2900.48	194.672
2901.79	199.086
2903.11	203.075
2904.42	208.536
2905.73	214.602
2907.04	221.234
2908.35	228.054
2909.66	234.371
2910.97	241.408
2912.27	247.3
2913.58	254.785
2914.89	262.462
2916.2	269.202
2917.51	275.839
2918.82	282.237
2920.13	288.968
2921.43	294.524
2922.74	299.558
2924.05	304.134
2925.35	308.419
2926.66	311.751
2927.97	313.738
2929.27	316.129
2930.58	318.401
2931.89	318.933
2933.19	319.367
2934.5	318.314
2935.8	317.499
2937.11	316.931
2938.41	315.211
2939.72	313.016
2941.02	309.55
2942.32	305.193
2943.63	301.565
2944.93	296.487
2946.24	291.367
2947.54	285.622
2948.84	279.325
2950.14	273.792
2951.45	267.07
2952.75	261.137
2954.05	254.728
2955.35	248.484
2956.65	242.107
2957.95	235.003
2959.26	227.949
2960.56	221.05
2961.86	215.094
2963.16	207.958
2964.46	201.63
2965.76	196.391
2967.06	190.162
2968.36	185.235
2969.66	179.777
2970.96	174.174
2972.25	168.301
2973.55	163.087
2974.85	157.535
2976.15	152.944
2977.45	148.506
2978.74	143.678
2980.04	138.818
2981.34	133.395
2982.64	128.691
2983.93	123.703
2985.23	118.455
2986.52	113.272
2987.82	107.742
2989.12	102.655
2990.41	97.5556
2991.71	93.131
2993	88.1783
2994.3	83.6588
2995.59	79.3595
2996.89	74.6304
2998.18	70.4226
2999.48	65.9312
3000.77	62.3874
3002.06	58.028
3003.36	53.7254
3004.65	49.5929
3005.94	46.1605
3007.23	42.8454
3008.53	39.1039
3009.82	35.7339
3011.11	32.7385
3012.4	30.6956
3013.69	28.6659
3014.99	27.5448
3016.28	25.1096
3017.57	23.7821
3018.86	21.9111
3020.15	19.549
3021.44	18.5115
3022.73	17.5359
3024.02	16.3905
3025.31	15.7492
3026.6	15.2531
3027.89	14.8849
3029.18	14.5785
3030.46	14.4002
3031.75	13.5376
3033.04	13.4664
3034.33	12.9503
3035.62	13.4006
3036.9	13.5402
3038.19	13.9595
3039.48	14.3162
3040.76	14.2529
3042.05	14.5034
3043.34	14.5846
3044.62	15.3442
3045.91	16.1426
3047.19	16.9991
3048.48	17.4473
3049.77	17.5193
3051.05	17.8389
3052.34	18.6153
3053.62	19.0171
3054.9	19.1978
3056.19	19.6549
3057.47	19.8119
3058.76	19.6852
3060.04	19.9982
3061.32	20.43
3062.61	20.4039
3063.89	20.2633
3065.17	20.0643
3066.45	20.0785
3067.74	19.781
3069.02	19.0934
3070.3	18.1795
3071.58	17.4852
3072.86	16.5571
3074.14	16.0004
3075.42	15.3995
3076.7	15.8128
3077.99	14.4982
3079.26	14.0474
3080.54	12.4195
3081.82	11.2171
3083.1	10.3459
3084.38	9.96162
3085.66	9.53279
3086.94	8.39373
3088.22	7.15198
3089.5	6.46824
3090.78	6.15355
3092.05	5.47523
3093.33	4.8428
3094.61	4.58578
3095.89	4.19129
3097.16	3.8037
3098.44	3.84167
3099.72	3.90402
3100.99	3.88807
3102.27	3.56675
3103.54	3.34826
3104.82	3.3276
3106.1	4.44224
3107.37	5.39565
3108.65	5.57504
3109.92	5.94021
3111.2	5.98925
3112.47	6.07744
3113.74	6.27559
3115.02	6.94801
3116.29	7.73879
3117.56	8.12993
3118.84	8.80695
3120.11	9.23601
3121.38	9.90353
3122.66	10.4624
3123.93	11.5155
3125.2	12.2753
3126.47	12.7
3127.74	13.4393
3129.01	13.8583
3130.29	14.2769
3131.56	13.7832
3132.83	13.8344
3134.1	14.1804
3135.37	15.1207
3136.64	15.0289
3137.91	15.3445
3139.18	15.7915
3140.45	15.9321
3141.72	15.7663
3142.99	16.0616
3144.26	16.2314
3145.52	16.3078
3146.79	16.1351
3148.06	15.4959
3149.33	17.0054
