#Acq. time (s)=	45
#Accumulations=	2
#Range (cm-¹)=	200...3150
#Windows=	2
#Auto scanning=	Off
#Autofocus=	Off
#Macrospot=	Off
#AutoExposure=	Off
#Spike filter=	Multiple accum.
#Delay time (s)=	0
#Binning=	1
#Readout mode=	Signal
#DeNoise=	Off
#ICS correction=	On
#Dark correction=	Off
#Inst. Process=	Off
#Detector Gain=	Best Dynamic Range
#Detector ADC=	20 kHz       
#Detector temperature (°C)=	-69.62
#Instrument=	LabRAM HR Evol
#Detector=	Synapse
#Objective=	x100
#Grating=	600 gr/mm
#ND Filter=	100%
#Laser (nm)=	532 
#Hole=	100.021
#Range=	Auto
#Laser Pol.=	No
#Raman. Pol.=	No
#Laser Pol. (°)=	-0.0007625
#Raman Pol. (°)=	89.9995
#Collection=	Microscope
#StageXY=	Marzhauser
#StageZ=	Marzhauser
#X (µm)=	9026
#Y (µm)=	-3094.5
#Z (µm)=	-55.1
#Full time(mm:ss)=	3:18
#Project=	
#Sample=	
#Site=	
#Title=	Thy_00_07_12_2x_45s_532 nm_x100_100%_600 gr_mm
#Remark=	
#Date=	28.06.2022 10:53
#Acquired=	28.06.2022 10:53:58
#Base:Fit=	10.08.2022 10:06:44
#Base:Fit=	10.08.2022 10:07:16
#Base:Fit=	10.08.2022 10:07:25
#Base:Fit=	10.08.2022 10:07:44
#Base:Fit=	10.08.2022 10:07:56
#Base:Sub=	10.08.2022 10:08:39
#Filter:Polynom=	16.08.2022 10:26:06
#AxisType[0]=Intens
#AxisUnit[0]=Cnt
#AxisType[1]=Spectr
#AxisUnit[1]=1/cm
200.407	36.7021
202.221	39.2753
204.035	39.7085
205.849	41.2947
207.665	42.1123
209.478	42.9156
211.291	43.5872
213.104	43.9937
214.916	44.2949
216.73	44.2917
218.541	43.5774
220.352	43.7008
222.163	43.0556
223.973	42.3326
225.785	41.3266
227.595	40.1809
229.404	38.2137
231.213	38.2873
233.022	38.3994
234.83	37.3923
236.638	35.3467
238.448	32.3232
240.255	30.7521
242.062	28.7685
243.868	27.7298
245.675	25.7797
247.48	23.5622
249.286	21.7046
251.091	20.5589
252.896	19.3917
254.702	18.374
256.506	17.2968
258.31	17.2913
260.113	16.4352
261.916	16.1092
263.719	15.4751
265.521	14.3711
267.323	12.3366
269.125	10.4163
270.926	10.2059
272.727	8.70878
274.527	8.4011
276.328	8.36272
278.127	7.90374
279.927	6.74482
281.726	6.41345
283.525	6.37497
285.323	7.24646
287.121	6.52863
288.919	7.18788
290.716	7.90623
292.513	8.55392
294.31	9.22947
296.104	10.0048
297.9	11.6567
299.696	12.8103
301.491	13.4839
303.286	13.7484
305.081	14.6887
306.875	15.6531
308.669	15.8727
310.463	17.3122
312.256	17.1103
314.047	17.5664
315.839	18.0285
317.631	18.179
319.423	18.9984
321.215	20.191
323.006	19.4695
324.794	18.9236
326.585	18.9802
328.375	18.2968
330.165	19.6327
331.954	19.3963
333.741	19.8262
335.53	19.2122
337.318	19.7715
339.106	19.2214
340.894	18.9002
342.679	19.0445
344.466	18.0336
346.253	16.3277
348.039	15.9543
349.823	15.6196
351.608	16.0112
353.393	15.466
355.176	14.0627
356.961	13.5233
358.745	13.319
360.529	12.988
362.31	12.418
364.093	11.3802
365.876	9.70353
367.657	10.4516
369.439	10.3543
371.221	10.675
373	11.2212
374.781	11.3578
376.56	10.9803
378.34	11.2498
380.12	11.4579
381.898	12.7571
383.677	12.4868
385.456	13.1803
387.233	13.3327
389.011	12.7798
390.787	11.4561
392.565	12.5389
394.34	12.0418
396.117	11.335
397.894	11.3064
399.668	12.4137
401.444	12.348
403.217	14.084
404.993	13.989
406.766	13.9336
408.54	15.2498
410.312	16.6219
412.086	17.4646
413.858	17.8361
415.631	18.1769
417.402	17.4166
419.174	18.3759
420.944	17.8573
422.716	17.664
424.486	17.9103
426.257	17.7317
428.025	16.1567
429.794	15.6667
431.564	16.4617
433.332	14.2443
435.101	14.2224
436.868	14.538
438.637	15.2853
440.403	14.5087
442.169	14.3241
443.937	12.7364
445.703	14.0632
447.468	14.3436
449.234	14.2441
450.999	14.8594
452.765	13.9578
454.528	15.1358
456.292	16.048
458.057	15.5378
459.819	15.8518
461.582	15.8357
463.344	15.2975
465.107	14.6935
466.868	15.641
468.629	15.2791
470.392	15.2901
472.152	13.7123
473.912	14.6578
475.672	15.5164
477.433	15.5746
479.192	16.3432
480.951	17.6316
482.709	19.0072
484.469	20.3169
486.226	22.0258
487.984	23.6164
489.74	24.6847
491.499	26.3345
493.255	26.7305
495.011	28.5344
496.767	29.8062
498.522	31.1338
500.277	31.0296
502.033	31.8894
503.788	33.0907
505.541	33.5111
507.295	34.3162
509.048	34.1946
510.801	33.7863
512.553	32.7529
514.308	30.5179
516.06	29.3701
517.811	28.8118
519.562	27.8261
521.313	25.9509
523.063	25.3894
524.814	25.0064
526.563	24.4463
528.313	23.9938
530.062	25.3239
531.811	24.96
533.559	25.2675
535.308	24.3155
537.055	23.0491
538.803	23.73
540.55	22.6883
542.297	21.3758
544.043	19.6507
545.789	19.6114
547.535	19.0942
549.281	17.6595
551.026	17.611
552.771	16.8963
554.515	16.5281
556.259	15.9046
558.003	16.3158
559.747	16.7034
561.49	17.2546
563.233	16.5199
564.975	15.4939
566.717	16.5908
568.459	16.5048
570.2	16.0431
571.942	14.3448
573.68	14.4844
575.421	14.0805
577.161	12.9751
578.901	12.664
580.64	12.809
582.379	12.4424
584.118	12.3403
585.855	12.8937
587.593	12.5664
589.331	12.5861
591.068	11.6761
592.805	11.0992
594.54	9.77811
596.277	9.49674
598.013	7.2835
599.749	6.74351
601.484	7.27877
603.217	8.29917
604.952	7.89684
606.687	7.7267
608.421	8.15516
610.153	7.5269
611.886	8.94775
613.619	9.08504
615.35	8.73005
617.083	8.77362
618.815	7.30167
620.547	7.29833
622.276	7.64155
624.008	7.40131
625.738	8.14838
627.467	7.75554
629.197	8.62969
630.927	9.36935
632.655	10.5273
634.384	10.1524
636.113	9.69271
637.839	9.2889
639.568	9.08821
641.293	9.08028
643.021	8.99574
644.748	9.08049
646.473	8.96519
648.2	9.83561
649.924	10.107
651.65	10.3068
653.376	10.5525
655.099	8.66928
656.824	9.09994
658.546	10.351
660.271	10.5557
661.993	11.3804
663.716	13.0158
665.438	14.862
667.161	15.9129
668.881	15.5073
670.604	15.5338
672.324	16.7786
674.045	18.2688
675.765	19.5528
677.486	20.3417
679.204	21.4796
680.925	21.6767
682.643	23.8031
684.361	24.1566
686.08	26.4156
687.797	27.3695
689.516	28.5789
691.232	28.7245
692.95	28.2444
694.666	27.6157
696.382	28.528
698.099	30.5031
699.813	30.6669
701.528	30.7961
703.244	31.2573
704.958	31.5876
706.673	31.7664
708.387	32.9557
710.099	34.0631
711.814	35.9363
713.526	36.5474
715.238	36.2476
716.949	35.7574
718.663	36.0473
720.374	35.4821
722.084	35.8887
723.796	37.4574
725.506	39.7784
727.216	40.393
728.925	40.9265
730.636	43.4657
732.345	45.5034
734.053	46.6669
735.761	47.3925
737.471	49.3968
739.178	51.0271
740.885	52.76
742.592	55.2874
744.298	57.7495
746.006	59.0203
747.712	61.056
749.417	62.148
751.122	62.9185
752.827	64.5261
754.532	66.7151
756.236	69.1242
757.942	71.4433
759.645	73.3127
761.348	73.9783
763.051	74.5602
764.753	75.9574
766.456	77.3031
768.158	78.5603
769.859	79.3499
771.56	79.3824
773.261	79.0004
774.964	79.2515
776.664	78.2531
778.364	77.7298
780.064	79.0667
781.763	79.4991
783.462	78.5373
785.16	76.6458
786.859	76.4712
788.557	76.3388
790.255	76.8144
791.952	76.4392
793.649	77.3271
795.346	77.0946
797.042	77.1074
798.738	75.7288
800.434	75.3143
802.127	74.3713
803.823	73.353
805.517	73.6859
807.212	73.2238
808.906	72.2106
810.6	71.1146
812.293	70.2119
813.987	69.768
815.68	70.8693
817.372	69.9352
819.064	68.9835
820.754	69.2243
822.446	68.8588
824.137	68.9994
825.828	69.2118
827.519	70.0815
829.209	69.4963
830.897	69.0007
832.587	69.019
834.276	68.9271
835.966	69.0191
837.654	68.7147
839.341	68.7451
841.029	67.6888
842.717	67.3074
844.404	66.5756
846.091	65.0213
847.776	64.2447
849.463	62.7648
851.149	61.3764
852.833	59.2806
854.519	58.601
856.204	57.0555
857.889	56.5371
859.572	56.1506
861.256	55.4166
862.94	54.3514
864.622	54.2148
866.305	53.2233
867.988	53.2915
869.669	53.3146
871.351	53.1904
873.033	52.5172
874.713	51.3958
876.395	51.1009
878.074	50.4016
879.755	50.3943
881.435	48.5091
883.114	47.0557
884.794	45.8929
886.471	44.2889
888.15	43.8047
889.829	42.464
891.506	41.7443
893.184	42.0343
894.861	41.7136
896.538	40.7949
898.214	40.0307
899.891	39.7206
901.566	39.1214
903.242	39.9573
904.916	41.0563
906.592	42.4769
908.266	41.9924
909.941	40.6913
911.614	40.1109
913.288	39.3839
914.961	40.2504
916.635	39.0438
918.306	38.2526
919.979	37.942
921.651	37.3343
923.321	38.5398
924.994	36.4421
926.664	35.2724
928.336	34.1653
930.005	34.2335
931.674	34.6939
933.345	35.1049
935.014	36.0359
936.682	36.5783
938.352	37.4195
940.019	37.7667
941.687	37.5092
943.356	36.7462
945.022	36.9989
946.689	37.6421
948.357	38.3054
950.022	39.1167
951.688	38.9061
953.355	37.8944
955.02	36.959
956.684	37.1428
958.348	36.9173
960.014	35.6764
961.678	34.0255
963.341	34.3095
965.004	34.6079
966.669	36.3002
968.331	37.5281
969.993	38.321
971.655	39.4646
973.316	40.1947
974.979	41.7174
976.64	42.1483
978.3	42.0147
979.961	42.319
981.62	43.3068
983.28	43.7723
984.941	45.3797
986.6	45.2507
988.259	43.6168
989.917	41.621
991.575	39.7431
993.233	39.4137
994.89	38.8831
996.547	38.4026
998.204	37.2132
999.86	36.0411
1001.52	36.5496
1003.17	38.1301
1004.83	38.8487
1006.49	40.169
1008.14	40.1376
1009.79	41.8221
1011.45	43.7553
1013.1	45.5249
1014.76	46.3776
1016.41	46.825
1018.06	47.2699
1019.72	46.9792
1021.37	46.6745
1023.02	46.3413
1024.67	45.8538
1026.32	46.171
1027.97	45.7139
1029.62	44.6816
1031.27	43.3216
1032.92	41.175
1034.57	38.6027
1036.22	36.4289
1037.87	34.9404
1039.52	33.3483
1041.17	31.3419
1042.82	29.5923
1044.47	29.5542
1046.11	30.7104
1047.76	30.841
1049.41	29.9298
1051.06	28.0685
1052.7	27.1474
1054.35	26.1221
1055.99	24.0442
1057.64	22.5932
1059.28	21.6883
1060.93	20.1366
1062.57	18.3589
1064.22	16.2636
1065.86	15.2662
1067.5	14.2602
1069.15	11.8281
1070.79	10.7016
1072.43	10.36
1074.08	10.9431
1075.72	11.0846
1077.36	11.1328
1079	11.6607
1080.64	11.8703
1082.28	12.5907
1083.92	13.7085
1085.56	16.3667
1087.2	16.5129
1088.84	16.9966
1090.48	17.8121
1092.12	19.7411
1093.76	21.3496
1095.39	22.4751
1097.03	23.6641
1098.67	25.4858
1100.31	26.6425
1101.94	27.8635
1103.58	29.1961
1105.22	30.0642
1106.85	30.8836
1108.49	31.8667
1110.12	31.269
1111.76	31.7669
1113.39	31.6601
1115.03	29.4281
1116.66	29.5322
1118.29	29.7086
1119.93	29.5563
1121.56	29.8904
1123.19	30.1652
1124.82	29.2653
1126.46	29.0951
1128.09	29.5236
1129.72	28.2643
1131.35	27.0338
1132.98	26.8716
1134.61	27.2231
1136.24	26.7974
1137.87	27.2345
1139.5	27.7017
1141.13	28.6192
1142.76	29.274
1144.39	29.2368
1146.01	28.4263
1147.64	28.3876
1149.27	28.192
1150.9	28.2033
1152.53	27.4978
1154.15	26.4731
1155.78	26.1043
1157.4	24.9916
1159.03	22.5108
1160.65	20.1283
1162.28	18.7447
1163.9	17.4363
1165.53	16.7798
1167.15	17.383
1168.78	16.8669
1170.4	16.8444
1172.02	17.3476
1173.65	19.027
1175.27	18.4121
1176.89	18.7457
1178.51	19.2439
1180.14	18.5922
1181.76	19.0088
1183.38	18.9515
1185	18.1464
1186.62	18.3234
1188.24	19.218
1189.86	19.3364
1191.48	18.7458
1193.1	19.5821
1194.71	19.83
1196.33	20.7849
1197.95	22.4295
1199.57	23.9194
1201.19	25.6694
1202.8	26.9151
1204.42	27.7302
1206.04	27.8247
1207.65	31.4308
1209.27	33.0254
1210.88	35.0017
1212.5	37.4934
1214.12	40.7758
1215.73	43.1454
1217.35	46.5377
1218.96	49.4831
1220.57	51.3076
1222.19	53.4402
1223.8	55.536
1225.41	56.3177
1227.03	58.6435
1228.64	61.8327
1230.25	63.8245
1231.86	65.1341
1233.47	66.8373
1235.08	67.0558
1236.69	68.6749
1238.31	68.4941
1239.92	69.3362
1241.52	70.0659
1243.13	72.1979
1244.74	73.2043
1246.35	73.4675
1247.96	74.1643
1249.57	73.8612
1251.18	73.5609
1252.78	73.626
1254.39	72.6183
1256	71.1163
1257.6	70.2078
1259.21	69.1248
1260.82	67.855
1262.42	68.0353
1264.03	66.8106
1265.63	66.8528
1267.24	66.9459
1268.84	66.4829
1270.45	65.7758
1272.05	66.4947
1273.65	66.5677
1275.26	67.3615
1276.86	68.666
1278.46	69.6874
1280.06	71.4033
1281.67	72.8147
1283.27	73.9851
1284.87	76.0986
1286.47	78.1614
1288.07	81.1018
1289.67	82.528
1291.27	85.1926
1292.87	87.4911
1294.47	90.3737
1296.07	94.6241
1297.67	97.2886
1299.27	99.5916
1300.87	102.962
1302.47	105.484
1304.06	109.861
1305.66	114.161
1307.26	117.624
1308.85	120.221
1310.45	123.457
1312.05	126.698
1313.64	129.42
1315.24	130.711
1316.83	134.14
1318.43	136.279
1320.02	138.214
1321.62	137.316
1323.21	138.474
1324.8	138.168
1326.4	137.934
1327.99	138.538
1329.59	138.341
1331.18	137.527
1332.77	136.148
1334.36	135.092
1335.95	134.249
1337.54	132.457
1339.14	130.95
1340.73	129.777
1342.32	128.81
1343.91	126.828
1345.5	124.993
1347.09	122.882
1348.67	121.024
1350.26	119.508
1351.85	118.463
1353.44	116.061
1355.03	115.351
1356.62	113.903
1358.2	112.605
1359.79	110.478
1361.38	109.115
1362.96	107.27
1364.55	106.011
1366.14	104.767
1367.72	104.5
1369.31	103.623
1370.89	102.159
1372.48	101.469
1374.06	101.001
1375.64	101.168
1377.23	99.7179
1378.81	99.9278
1380.39	100.001
1381.98	99.1659
1383.56	99.5672
1385.14	99.3036
1386.72	98.5226
1388.3	99.0201
1389.89	98.1622
1391.47	95.2577
1393.05	94.7486
1394.63	93.6559
1396.21	93.0536
1397.79	90.4405
1399.37	88.6816
1400.95	86.5927
1402.52	87.3842
1404.1	86.1792
1405.68	85.4832
1407.26	85.5073
1408.84	84.8827
1410.42	84.7411
1411.99	85.9925
1413.57	87.6608
1415.15	89.0574
1416.72	90.5654
1418.3	93.0759
1419.87	95.1665
1421.45	97.9059
1423.02	100.179
1424.6	102.999
1426.17	106.154
1427.75	109.049
1429.32	111.618
1430.89	114.449
1432.47	116.246
1434.04	119.968
1435.61	123.246
1437.18	126.527
1438.76	128.382
1440.33	130.85
1441.9	132.874
1443.47	135.633
1445.04	137.262
1446.61	138.321
1448.18	138.486
1449.75	139.166
1451.32	139.106
1452.89	139.073
1454.46	138.981
1456.03	137.586
1457.6	136.453
1459.16	135.325
1460.73	132.981
1462.3	130.357
1463.87	127.932
1465.43	124.204
1467	119.927
1468.56	114.958
1470.13	111.259
1471.7	108.273
1473.26	102.569
1474.83	98.8415
1476.39	92.9041
1477.96	88.8848
1479.52	83.9864
1481.08	79.6739
1482.65	75.03
1484.21	71.4608
1485.77	69.4544
1487.34	67.0027
1488.9	65.2239
1490.46	62.4715
1492.02	60.1082
1493.58	57.6635
1495.15	54.2747
1496.71	53.2655
1498.27	51.1024
1499.83	49.5935
1501.39	47.5746
1502.95	46.0962
1504.51	45.6907
1506.07	44.8565
1507.63	44.5927
1509.18	43.7123
1510.74	43.3997
1512.3	44.6582
1513.86	44.008
1515.41	43.327
1516.97	43.0075
1518.53	42.9155
1520.08	44.658
1521.64	46.468
1523.2	47.1564
1524.75	47.7606
1526.31	49.1911
1527.86	50.143
1529.42	51.647
1530.97	53.7597
1532.52	55.2849
1534.08	56.6294
1535.63	59.2675
1537.19	61.1986
1538.74	63.0089
1540.29	65.1239
1541.84	66.5459
1543.4	69.0727
1544.95	71.0008
1546.5	72.6894
1548.05	74.4556
1549.6	76.6205
1551.15	79.1296
1552.7	82.0199
1554.25	84.1061
1555.8	87.0848
1557.35	90.7183
1558.9	94.1051
1560.45	98.576
1562	102.239
1563.54	105.495
1565.09	107.844
1566.64	110.347
1568.19	112.133
1569.73	114.919
1571.28	117.489
1572.83	120.052
1574.37	122.667
1575.92	124.726
1577.47	126.285
1579.01	128.589
1580.56	131.125
1582.1	133.032
1583.64	134.263
1585.19	136.053
1586.73	135.971
1588.28	137.291
1589.82	138.379
1591.36	138.972
1592.9	138.886
1594.45	139.874
1595.99	139.652
1597.53	140.441
1599.07	138.814
1600.61	137.166
1602.15	136.834
1603.69	135.525
1605.23	134.886
1606.77	133.506
1608.31	131.847
1609.85	130.235
1611.39	128.412
1612.93	128.17
1614.47	127.249
1616.01	125.573
1617.55	122.739
1619.08	121.672
1620.62	121.131
1622.16	120.195
1623.7	120.277
1625.23	120.131
1626.77	120.336
1628.3	120.721
1629.84	120.138
1631.37	120.174
1632.91	120.42
1634.44	122.014
1635.98	122.834
1637.51	123.021
1639.05	122.018
1640.58	121.849
1642.11	122.79
1643.65	124.031
1645.18	124.021
1646.71	124.54
1648.24	124.924
1649.78	124.34
1651.31	123.81
1652.84	124.555
1654.37	125.057
1655.9	125.052
1657.43	124.47
1658.96	123.078
1660.49	122.648
1662.02	120.272
1663.55	117.091
1665.08	115.201
1666.61	113.079
1668.14	110.893
1669.66	107.554
1671.19	104.974
1672.72	101.491
1674.25	99.1299
1675.77	95.5581
1677.3	93.0117
1678.83	89.6207
1680.35	86.0764
1681.88	82.7964
1683.4	78.9145
1684.93	75.6019
1686.45	72.358
1687.98	68.9651
1689.5	66.3741
1691.03	63.2022
1692.55	59.3131
1694.07	55.8358
1695.6	53.9788
1697.12	50.553
1698.64	47.8901
1700.17	44.8771
1701.69	41.7368
1703.21	39.4055
1704.73	37.7152
1706.25	35.3683
1707.77	33.4062
1709.29	32.5608
1710.81	31.1205
1712.33	29.2967
1713.85	27.279
1715.37	25.632
1716.89	24.808
1718.41	24.3676
1719.93	23.0676
1721.45	22.0779
1722.97	21.475
1724.49	20.51
1726	19.6705
1727.52	19.5508
1729.04	18.8229
1730.55	17.572
1732.07	15.9023
1733.59	15.2022
1735.1	14.6704
1736.62	13.9973
1738.13	12.552
1739.65	13.1161
1741.16	12.8327
1742.68	12.426
1744.19	11.794
1745.7	10.5223
1747.22	9.08372
1748.73	8.23435
1750.24	7.70667
1751.76	7.39929
1753.27	7.31869
1754.78	6.46142
1756.29	6.23798
1757.8	5.33675
1759.31	4.8296
1760.83	4.45555
1762.34	3.98979
1763.85	3.4399
1765.36	2.82128
1766.87	2.81368
1768.38	1.97838
1769.89	1.85093
1771.39	2.21032
1772.9	1.47758
1774.41	1.9621
1775.92	2.23999
1777.43	2.4493
1778.94	2.27073
1780.44	2.6342
1781.95	2.31976
1783.46	1.90618
1784.96	1.96575
1786.47	1.74892
1787.97	1.65016
1789.48	1.58832
1790.99	2.08641
1792.49	1.93744
1794	2.45014
1795.5	2.40866
1797	3.1688
1798.51	3.02754
1800.01	2.83936
1801.51	3.33791
1803.02	3.79052
1804.52	3.90923
1806.02	4.53227
1807.53	5.60693
1809.03	5.86865
1810.53	5.76519
1812.03	5.49866
1813.53	5.74534
1815.03	5.884
1816.53	5.2846
1818.03	5.75259
1819.53	6.04466
1821.03	5.95586
1822.53	6.2269
1824.03	6.35119
1825.53	6.47463
1827.03	6.16536
1828.53	5.57976
1830.02	6.37828
1831.52	6.78168
1833.02	6.36246
1834.52	5.78682
1836.01	5.56862
1837.51	5.92949
1839.01	6.45442
1840.5	6.67826
1842	7.45264
1843.49	8.25981
1844.99	8.28904
1846.48	8.18347
1847.98	7.73124
1849.47	8.10005
1850.97	7.90387
1852.46	7.76693
1853.95	6.88255
1855.45	7.09425
1856.94	6.49883
1858.43	6.93233
1859.93	7.40877
1861.42	7.76839
1862.91	8.47769
1864.4	9.01009
1865.89	9.11347
1867.38	8.91115
1868.87	9.16829
1870.36	8.99401
1871.85	9.60043
1873.34	9.77187
1874.83	10.0485
1876.32	10.3938
1877.81	10.2042
1879.3	9.75013
1880.79	10.0014
1882.28	9.3154
1882.52	8.60936
1884.02	8.16007
1885.51	8.54104
1887.01	8.87176
1888.5	8.80961
1889.99	8.50418
1891.49	8.79666
1892.98	7.80573
1894.47	7.09876
1895.97	6.60562
1897.46	5.49635
1898.95	5.06123
1900.44	4.35999
1901.93	4.42571
1903.42	4.22208
1904.91	3.3431
1906.4	2.82698
1907.89	2.95424
1909.38	2.99273
1910.87	3.64559
1912.36	3.8783
1913.85	3.73237
1915.34	3.83922
1916.83	4.17342
1918.32	3.53069
1919.8	3.45164
1921.29	3.60586
1922.78	4.06013
1924.27	3.86259
1925.75	4.36552
1927.24	3.96722
1928.73	3.99752
1930.21	3.99925
1931.7	4.18163
1933.18	3.77218
1934.67	3.02821
1936.15	3.62933
1937.64	3.81745
1939.12	4.7378
1940.61	4.40749
1942.09	4.84192
1943.57	5.19292
1945.06	5.65056
1946.54	5.3163
1948.02	5.38174
1949.51	5.05994
1950.99	4.84297
1952.47	4.74314
1953.95	5.17865
1955.43	4.72154
1956.91	5.20041
1958.4	5.28519
1959.88	4.82156
1961.36	4.63215
1962.84	4.16617
1964.32	3.57618
1965.8	3.47888
1967.27	2.86582
1968.75	2.59008
1970.23	2.25406
1971.71	2.20996
1973.19	2.38239
1974.67	2.14487
1976.14	2.1594
1977.62	2.09363
1979.1	2.61378
1980.58	2.89997
1982.05	3.12913
1983.53	3.27271
1985	3.68245
1986.48	3.72964
1987.95	3.61522
1989.43	4.08549
1990.9	4.80926
1992.38	4.74745
1993.85	5.32762
1995.33	5.52276
1996.8	6.3685
1998.27	6.32808
1999.75	7.00576
2001.22	6.08016
2002.69	6.19788
2004.16	6.18522
2005.64	6.41473
2007.11	6.12237
2008.58	5.98008
2010.05	6.83816
2011.52	7.25357
2012.99	7.38755
2014.46	6.54216
2015.93	7.15273
2017.4	6.641
2018.87	6.96055
2020.34	6.63454
2021.81	6.51027
2023.28	7.51721
2024.75	8.02151
2026.22	8.41989
2027.69	8.15788
2029.15	7.51485
2030.62	7.40169
2032.09	7.50955
2033.56	7.7939
2035.02	8.25061
2036.49	7.47208
2037.96	7.60913
2039.42	7.85939
2040.89	7.81766
2042.35	6.74463
2043.82	6.51821
2045.28	5.92408
2046.75	6.09826
2048.21	5.57776
2049.67	5.102
2051.14	5.48959
2052.6	6.09717
2054.07	6.12886
2055.53	5.95042
2056.99	6.43626
2058.45	6.65769
2059.92	6.82058
2061.38	7.70073
2062.84	8.33229
2064.3	8.45558
2065.76	8.70113
2067.22	9.21989
2068.68	8.89854
2070.14	9.27489
2071.6	8.83376
2073.06	8.87167
2074.52	8.32837
2075.98	8.05701
2077.44	8.22875
2078.9	8.31322
2080.36	8.48363
2081.82	8.72236
2083.27	8.6957
2084.73	9.10085
2086.19	9.10057
2087.65	9.17031
2089.1	9.39523
2090.56	9.2389
2092.02	9.07319
2093.47	9.25993
2094.93	10.1381
2096.38	9.86057
2097.84	9.16176
2099.29	8.88866
2100.75	8.75862
2102.2	8.6104
2103.66	8.44984
2105.11	8.75437
2106.56	8.41867
2108.02	8.40469
2109.47	8.13281
2110.92	7.9666
2112.38	7.83003
2113.83	7.23967
2115.28	6.14777
2116.73	5.77225
2118.18	5.53677
2119.63	5.89981
2121.09	4.71684
2122.54	4.65603
2123.99	5.56934
2125.44	5.19747
2126.89	5.04756
2128.34	4.96562
2129.79	4.9112
2131.23	4.96445
2132.68	4.10718
2134.13	4.6436
2135.58	4.33637
2137.03	4.83895
2138.48	5.03134
2139.92	5.37417
2141.37	5.01293
2142.82	5.03042
2144.27	5.41066
2145.71	5.26635
2147.16	5.96027
2148.6	5.30104
2150.05	5.24993
2151.49	5.16015
2152.94	5.4363
2154.38	5.80533
2155.83	5.47513
2157.27	6.10945
2158.72	5.66589
2160.16	5.6191
2161.6	5.21157
2163.05	5.04322
2164.49	4.85271
2165.93	5.2288
2167.38	4.38919
2168.82	3.57904
2170.26	4.17076
2171.7	4.32162
2173.14	4.85013
2174.58	4.70155
2176.03	4.81298
2177.47	5.47752
2178.91	4.79571
2180.35	4.84592
2181.79	3.31736
2183.23	2.63393
2184.67	3.52355
2186.1	2.98733
2187.54	2.74092
2188.98	3.20572
2190.42	3.7481
2191.86	4.12478
2193.3	4.09966
2194.73	4.56917
2196.17	4.43268
2197.61	4.5158
2199.05	5.06683
2200.48	5.26633
2201.92	5.91103
2203.35	6.63874
2204.79	6.04544
2206.22	6.34529
2207.66	5.73235
2209.1	6.3405
2210.53	5.94133
2211.97	5.57073
2213.4	4.65747
2214.83	4.91897
2216.27	5.52366
2217.7	5.02147
2219.13	5.16714
2220.57	3.67699
2222	4.14247
2223.43	4.65137
2224.86	4.27469
2226.29	4.20379
2227.72	3.22969
2229.16	3.81069
2230.59	3.34861
2232.02	3.17904
2233.45	3.36882
2234.88	3.98499
2236.31	3.30311
2237.74	3.2961
2239.17	2.57093
2240.6	2.25565
2242.03	2.34889
2243.45	2.56716
2244.88	2.57757
2246.31	2.32129
2247.74	1.31415
2249.17	1.02201
2250.59	0.955715
2252.02	1.62235
2253.45	1.8149
2254.87	2.83454
2256.3	3.68249
2257.73	4.17912
2259.15	4.98641
2260.58	4.68205
2262	4.94306
2263.43	4.93296
2264.85	5.35676
2266.28	6.40365
2267.7	7.09857
2269.13	8.28126
2270.55	8.17041
2271.97	7.88899
2273.4	7.88043
2274.82	6.93359
2276.24	6.04123
2277.67	5.85792
2279.09	6.72912
2280.51	7.85175
2281.93	7.04702
2283.35	6.64241
2284.77	6.99129
2286.2	7.39148
2287.62	7.33699
2289.04	6.71463
2290.46	6.72397
2291.88	6.2057
2293.3	5.84825
2294.72	5.48777
2296.13	5.23201
2297.55	5.46962
2298.97	5.44055
2300.39	5.8161
2301.81	6.17431
2303.23	6.46214
2304.64	6.86067
2306.06	6.31541
2307.48	5.34569
2308.89	4.94385
2310.31	4.56652
2311.73	5.15009
2313.14	5.29962
2314.56	5.07643
2315.98	4.50378
2317.39	4.13481
2318.81	3.74525
2320.22	3.88314
2321.64	3.89463
2323.05	3.98545
2324.46	3.88856
2325.88	4.95697
2327.29	5.24138
2328.7	5.62895
2330.12	5.31609
2331.53	5.19478
2332.94	6.20295
2334.35	5.73191
2335.77	6.31151
2337.18	5.96134
2338.59	5.39171
2340	5.13526
2341.41	4.36872
2342.82	4.18804
2344.23	3.78546
2345.64	3.21679
2347.05	3.25588
2348.46	4.59651
2349.87	4.87941
2351.28	4.26388
2352.69	3.20905
2354.1	3.36311
2355.51	2.96293
2356.91	3.23701
2358.32	2.82663
2359.73	2.59993
2361.14	2.54812
2362.54	1.93169
2363.95	1.85923
2365.36	2.90605
2366.76	2.84181
2368.17	3.25679
2369.58	4.05672
2370.98	4.18949
2372.39	4.53575
2373.79	4.65642
2375.2	4.37825
2376.6	4.61756
2378	5.43523
2379.41	5.37626
2380.81	4.99573
2382.22	4.91756
2383.62	4.1379
2385.02	3.88574
2386.43	3.4477
2387.83	3.37794
2389.23	2.91238
2390.63	2.30604
2392.03	2.85237
2393.44	3.50333
2394.84	3.18955
2396.24	3.71988
2397.64	2.541
2399.04	2.3246
2400.44	2.37403
2401.84	2.90851
2403.24	2.44361
2404.64	1.73872
2406.04	2.06048
2407.44	1.86322
2408.84	1.64828
2410.23	1.65584
2411.63	2.2724
2413.03	2.2332
2414.43	1.91714
2415.83	2.88896
2417.22	3.78379
2418.62	4.68832
2420.02	4.06363
2421.41	4.43132
2422.81	5.04499
2424.21	5.15159
2425.6	5.46889
2427	6.17199
2428.39	6.18349
2429.79	6.45466
2431.18	6.49069
2432.58	6.54111
2433.97	6.89639
2435.36	7.22851
2436.76	7.18283
2438.15	7.96946
2439.54	8.6024
2440.94	8.28577
2442.33	8.66424
2443.72	8.98536
2445.12	8.60424
2446.51	8.59352
2447.9	7.79751
2449.29	6.93723
2450.68	6.26837
2452.07	6.56357
2453.46	5.54675
2454.85	4.97133
2456.24	4.57349
2457.64	4.31164
2459.02	3.72571
2460.41	3.46599
2461.8	3.28509
2463.19	2.84717
2464.58	3.02967
2465.97	3.54192
2467.36	2.67065
2468.75	2.79656
2470.13	2.94363
2471.52	3.57138
2472.91	2.64366
2474.3	1.96357
2475.68	1.78467
2477.07	2.03371
2478.45	1.86398
2479.84	2.66904
2481.23	2.81786
2482.61	2.71455
2484	3.20095
2485.38	3.67004
2486.77	3.03916
2488.15	2.96658
2489.54	2.7425
2490.92	2.97265
2492.3	3.16509
2493.69	2.74238
2495.07	3.59947
2496.45	4.00422
2497.84	3.95048
2499.22	3.72639
2500.6	4.06921
2501.98	4.47192
2503.36	4.68044
2504.75	5.03259
2506.13	5.0871
2507.51	5.67565
2508.89	5.60945
2510.27	4.83308
2511.65	5.6264
2513.03	5.93847
2514.41	6.81499
2515.79	7.2161
2517.17	7.07617
2518.55	7.03663
2519.93	7.21518
2521.3	7.0959
2522.68	6.98313
2524.06	7.35739
2525.44	7.79709
2526.82	7.29131
2528.19	6.93521
2529.57	6.81266
2530.95	6.63823
2532.32	7.48885
2533.7	7.55848
2535.08	6.96964
2536.45	6.90067
2537.83	7.50426
2539.2	6.72346
2540.58	6.72453
2541.95	5.62622
2543.33	5.24084
2544.7	5.43045
2546.08	5.78963
2547.45	5.60712
2548.82	6.02
2550.2	5.99257
2551.57	6.01718
2552.94	5.04558
2554.32	4.66804
2555.69	5.03016
2557.06	5.35931
2558.43	5.57248
2559.8	5.29379
2561.18	5.969
2562.55	6.12195
2563.92	5.68151
2565.29	5.15625
2566.66	4.40955
2568.03	3.83123
2569.4	4.30794
2570.77	4.27786
2572.14	4.03787
2573.51	3.83632
2574.88	4.23291
2576.25	4.69176
2577.61	4.21264
2578.98	5.11209
2580.35	5.85776
2581.72	4.88266
2583.09	4.7497
2584.45	3.93814
2585.82	2.87054
2587.19	2.67698
2588.55	2.9345
2589.92	2.80397
2591.29	3.4471
2592.65	4.03246
2594.02	4.20411
2595.38	4.37866
2596.75	4.89295
2598.11	5.45716
2599.48	6.32619
2600.84	6.63544
2602.21	6.34273
2603.57	6.43783
2604.93	6.55438
2606.3	6.66601
2607.66	6.51822
2609.02	7.23337
2610.39	7.63559
2611.75	8.63677
2613.11	9.50533
2614.47	9.83771
2615.83	9.88285
2617.19	10.5328
2618.56	10.5633
2619.92	10.8047
2621.28	10.9572
2622.64	11.5777
2624	11.6989
2625.36	11.7071
2626.72	10.8349
2628.08	10.4788
2629.44	10.5145
2630.8	10.3729
2632.15	9.14541
2633.51	9.46407
2634.87	9.2382
2636.23	9.01131
2637.59	9.51523
2638.94	9.28326
2640.3	8.91331
2641.66	8.5853
2643.02	8.37975
2644.37	8.10926
2645.73	7.702
2647.09	7.35917
2648.44	6.44686
2649.8	6.06642
2651.15	5.83908
2652.51	5.76871
2653.86	5.45874
2655.22	5.74854
2656.57	6.27366
2657.93	6.78898
2659.28	6.86427
2660.63	7.26956
2661.99	6.81602
2663.34	7.5453
2664.69	7.52257
2666.05	7.61768
2667.4	7.54746
2668.75	7.08201
2670.1	7.76799
2671.45	7.43921
2672.81	8.41493
2674.16	9.28768
2675.51	10.127
2676.86	10.1649
2678.21	10.6191
2679.56	10.8528
2680.91	9.91767
2682.26	9.67232
2683.61	9.61941
2684.96	10.3328
2686.31	10.7136
2687.66	11.1318
2689	11.5489
2690.35	11.3231
2691.7	11.8619
2693.05	12.0038
2694.4	11.0171
2695.74	12.0382
2697.09	11.8492
2698.44	12.2605
2699.79	11.4409
2701.13	12.2921
2702.48	12.2653
2703.83	12.1292
2705.17	12.9333
2706.52	13.1523
2707.86	13.4285
2709.21	13.3662
2710.55	13.4615
2711.9	14.2323
2713.24	13.7934
2714.58	14.0957
2715.93	14.398
2717.27	14.4998
2718.62	14.7147
2719.96	14.5354
2721.3	14.3565
2722.65	14.5356
2723.99	14.8046
2725.33	14.7031
2726.67	14.9865
2728.01	15.3074
2729.35	15.1376
2730.7	15.6451
2732.04	15.846
2733.38	15.4491
2734.72	16.1017
2736.06	16.023
2737.4	15.915
2738.74	15.695
2740.08	15.8532
2741.42	15.622
2742.76	15.1036
2744.1	13.8542
2745.43	13.6798
2746.77	13.7566
2748.11	12.8792
2749.45	13.0493
2750.79	13.3778
2752.12	13.9491
2753.46	13.532
2754.8	12.4859
2756.14	11.9432
2757.47	11.4082
2758.81	11.388
2760.14	10.7447
2761.48	9.74279
2762.81	9.67355
2764.15	9.56809
2765.49	9.54323
2766.82	10.0753
2768.16	9.57802
2769.49	8.69842
2770.82	8.51581
2772.16	7.88289
2773.49	7.47564
2774.82	6.90634
2776.16	5.95348
2777.49	5.8033
2778.82	5.37804
2780.16	4.37524
2781.49	3.88832
2782.82	3.25666
2784.15	2.6949
2785.48	2.48693
2786.82	1.51116
2788.15	1.38867
2789.48	1.87723
2790.81	1.85303
2792.14	1.97737
2793.47	2.18652
2794.8	1.54984
2796.13	1.17027
2797.46	1.16059
2798.79	1.13745
2800.12	0.560793
2801.44	0.612701
2802.77	0.176099
2804.1	-0.404008
2805.43	-0.632888
2806.76	-1.03972
2808.08	-1.0683
2809.41	-1.15301
2810.74	-0.853241
2812.07	-0.366802
2813.39	0.0160863
2814.72	-0.307258
2816.05	0.88994
2817.37	2.33191
2818.7	3.48843
2820.02	4.3381
2821.35	6.40986
2822.67	9.45882
2824	11.7477
2825.32	13.7821
2826.65	16.6822
2827.97	20.0527
2829.3	23.4241
2830.62	26.5441
2831.94	29.3091
2833.26	32.7557
2834.59	35.4075
2835.91	39.007
2837.23	43.3092
2838.56	47.1638
2839.88	52.4904
2841.2	57.208
2842.52	62.6671
2843.84	68.7932
2845.16	75.2105
2846.48	82.3107
2847.8	89.1424
2849.12	96.7477
2850.45	103.727
2851.77	111.871
2853.08	118.68
2854.4	126.732
2855.72	134.752
2857.04	141.793
2858.36	148.593
2859.68	154.704
2861	160.748
2862.32	167.306
2863.63	174.085
2864.95	180.546
2866.27	186.262
2867.59	192.143
2868.9	198.084
2870.22	202.834
2871.54	208.138
2872.85	212.994
2874.17	217.568
2875.48	222.285
2876.8	226.289
2878.11	229.831
2879.43	232.9
2880.74	236.371
2882.06	239.915
2883.37	243.098
2884.69	245.84
2886	249.107
2887.31	252.163
2888.63	254.895
2889.94	257.575
2891.25	261.118
2892.57	265.514
2893.88	269.266
2895.19	271.969
2896.5	275.023
2897.82	278.68
2899.13	282.642
2900.44	287.109
2901.75	292.39
2903.06	298.314
2904.37	304.195
2905.68	311.491
2906.99	318.531
2908.3	325.598
2909.61	333.504
2910.92	340.384
2912.23	348.495
2913.54	355.383
2914.85	362.951
2916.16	370.525
2917.46	377.621
2918.77	383.334
2920.08	389.297
2921.39	394.697
2922.7	399.188
2924	402.397
2925.31	404.631
2926.62	406.822
2927.92	408.151
2929.23	409.048
2930.54	408.693
2931.84	407.84
2933.15	406.408
2934.45	404.216
2935.76	401.032
2937.06	397.313
2938.37	393.9
2939.67	388.819
2940.98	383.485
2942.28	376.992
2943.58	370.899
2944.89	364.309
2946.19	358.195
2947.49	351.523
2948.8	345.257
2950.1	338.288
2951.4	331.454
2952.7	323.587
2954.01	316.684
2955.31	309.921
2956.61	302.537
2957.91	294.946
2959.21	286.712
2960.51	279.133
2961.81	271.461
2963.11	264.746
2964.41	259.133
2965.71	252.975
2967.01	246.843
2968.31	241.152
2969.61	235.741
2970.91	229.983
2972.21	224.059
2973.51	218.289
2974.81	212.793
2976.1	206.291
2977.4	200.983
2978.7	194.493
2980	188.409
2981.29	182.667
2982.59	175.661
2983.89	168.764
2985.18	162.483
2986.48	155.609
2987.78	147.988
2989.07	139.522
2990.37	132.002
2991.66	124.738
2992.96	117.783
2994.25	111.609
2995.55	104.714
2996.84	97.8886
2998.14	91.7252
2999.43	85.942
3000.73	80.0596
3002.02	75.0768
3003.31	69.9986
3004.61	64.2125
3005.9	59.6649
3007.19	54.2855
3008.48	50.0218
3009.77	46.1479
3011.07	42.8621
3012.36	39.549
3013.65	36.2393
3014.94	31.941
3016.23	28.9335
3017.52	26.3034
3018.81	23.8268
3020.1	20.9035
3021.4	17.8086
3022.68	15.4319
3023.97	13.9757
3025.26	12.852
3026.55	11.2734
3027.84	9.95893
3029.13	9.50704
3030.42	8.00938
3031.71	7.66704
3033	8.08999
3034.28	8.2673
3035.57	8.11985
3036.86	9.18669
3038.15	9.24948
3039.43	10.3341
3040.72	11.3832
3042.01	12.6374
3043.29	13.3516
3044.58	14.4412
3045.87	15.2469
3047.15	15.4898
3048.44	16.5533
3049.72	17.547
3051.01	18.46
3052.29	19.0253
3053.58	18.9612
3054.86	20.6587
3056.15	20.8712
3057.43	21.845
3058.71	22.1695
3060	22.2515
3061.28	22.8313
3062.56	23.9791
3063.84	24.4671
3065.13	24.6695
3066.41	24.1154
3067.69	23.6198
3068.97	23.7035
3070.26	23.1534
3071.54	22.3667
3072.82	22.1744
3074.1	21.9582
3075.38	20.1012
3076.66	18.0114
3077.94	17.0817
3079.22	15.7879
3080.5	14.732
3081.78	13.3531
3083.06	11.3891
3084.34	9.90691
3085.62	9.34354
3086.9	8.92363
3088.18	7.98435
3089.45	6.35439
3090.73	5.01053
3092.01	4.59299
3093.29	5.18738
3094.56	4.98113
3095.84	5.22102
3097.12	5.63737
3098.4	5.43541
3099.67	5.7305
3100.95	6.22738
3102.22	6.17313
3103.5	6.5026
3104.78	6.16712
3106.05	5.43426
3107.33	5.16046
3108.6	5.74062
3109.88	6.25958
3111.15	6.79568
3112.43	7.71744
3113.7	8.13812
3114.97	8.99821
3116.25	8.85643
3117.52	9.48937
3118.79	10.9702
3120.07	11.386
3121.34	12.8582
3122.61	13.9652
3123.88	15.3744
3125.16	16.3854
3126.43	17.6101
3127.7	18.3403
3128.97	19.0923
3130.24	19.7985
3131.51	21.8735
3132.79	22.987
3134.06	23.555
3135.33	24.3503
3136.6	25.3594
3137.87	26.6836
3139.14	27.8708
3140.41	30.3867
3141.67	32.8916
3142.94	34.6375
3144.21	36.865
3145.48	39.2082
3146.75	41.7971
3148.02	43.8297
3149.29	46.768
