#Acq. time (s)=	45
#Accumulations=	2
#Range (cm-¹)=	200...3150
#Windows=	2
#Auto scanning=	Off
#Autofocus=	Off
#Macrospot=	Off
#AutoExposure=	Off
#Spike filter=	Multiple accum.
#Delay time (s)=	0
#Binning=	1
#Readout mode=	Signal
#DeNoise=	Off
#ICS correction=	On
#Dark correction=	Off
#Inst. Process=	Off
#Detector Gain=	Best Dynamic Range
#Detector ADC=	20 kHz       
#Detector temperature (°C)=	-69.85
#Instrument=	LabRAM HR Evol
#Detector=	Synapse
#Objective=	x100
#Grating=	600 gr/mm
#ND Filter=	100%
#Laser (nm)=	532 
#Hole=	100.021
#Range=	Auto
#Laser Pol.=	No
#Raman. Pol.=	No
#Laser Pol. (°)=	-0.0007625
#Raman Pol. (°)=	89.9995
#Collection=	Microscope
#StageXY=	Marzhauser
#StageZ=	Marzhauser
#X (µm)=	1967.9
#Y (µm)=	-51.5
#Z (µm)=	425.75
#Full time(mm:ss)=	3:19
#Project=	
#Sample=	
#Site=	
#Title=	Thy_40_11_16_2x_45s_532 nm_x100_100%_600 gr_mm
#Remark=	
#Date=	05.07.2022 11:01
#Acquired=	05.07.2022 11:01:36
#Base:Fit=	10.08.2022 10:01:35
#Base:Sub=	10.08.2022 10:01:52
#Filter:Polynom=	16.08.2022 10:21:53
#AxisType[0]=Intens
#AxisUnit[0]=Cnt
#AxisType[1]=Spectr
#AxisUnit[1]=1/cm
200.43	1.73562
202.244	6.56252
204.059	9.75659
205.873	12.4499
207.688	14.7047
209.501	16.0903
211.314	17.4985
213.127	18.6782
214.941	19.3568
216.753	19.6517
218.564	19.9612
220.375	19.5688
222.186	19.6732
223.999	18.8796
225.809	18.4358
227.618	19.0254
229.428	18.4167
231.236	18.4398
233.045	17.1234
234.855	16.1825
236.663	16.0648
238.471	14.72
240.278	14.0856
242.085	13.2947
243.891	13.5649
245.698	12.6977
247.503	10.3486
249.309	8.33525
251.116	5.57953
252.921	5.43819
254.725	4.62761
256.529	4.21212
258.333	3.87148
260.136	2.57117
261.939	4.084
263.742	3.98902
265.544	4.20526
267.346	4.46195
269.148	5.96585
270.949	5.60937
272.75	5.08733
274.55	5.6828
276.351	5.79027
278.15	5.13457
279.95	5.26011
281.749	5.7726
283.548	5.19174
285.346	5.60531
287.144	5.72744
288.942	5.91962
290.739	6.27827
292.536	7.52971
294.333	7.93009
296.129	7.46746
297.925	7.51214
299.721	9.16543
301.514	10.0443
303.309	9.54935
305.104	9.34863
306.898	9.57438
308.692	10.0369
310.486	10.7235
312.279	11.1727
314.072	11.6231
315.862	12.6731
317.654	13.5794
319.446	12.8872
321.238	12.8977
323.029	12.2961
324.819	12.7302
326.608	12.9642
328.398	11.749
330.188	11.7918
331.977	11.4957
333.766	11.4997
335.553	9.37197
337.341	9.11684
339.129	9.05882
340.917	8.59688
342.704	9.43879
344.489	9.21268
346.275	8.71933
348.062	8.51038
349.845	7.80889
351.631	8.59061
353.416	8.00037
355.201	7.69745
356.984	7.5976
358.768	7.93822
360.552	7.32627
362.333	7.50134
364.116	7.25511
365.899	6.5428
367.68	5.62791
369.462	6.33187
371.243	7.15373
373.023	6.58467
374.804	6.85166
376.585	6.46909
378.363	6.19835
380.143	5.77198
381.923	5.01434
383.7	4.92096
385.479	4.54772
387.256	4.68164
389.034	5.77128
390.812	5.04768
392.588	4.50865
394.365	4.78752
396.14	5.79885
397.916	6.88598
399.691	6.93832
401.467	6.58274
403.24	6.50067
405.015	6.27032
406.788	5.89258
408.563	4.19516
410.335	4.17572
412.109	4.06678
413.88	3.58161
415.654	4.10176
417.424	3.83857
419.197	4.16508
420.967	3.32634
422.739	3.19452
424.508	2.35283
426.279	3.25978
428.048	2.63186
429.819	3.04264
431.587	3.49304
433.356	3.19489
435.124	2.48745
436.891	2.82797
438.66	2.63738
440.426	3.33616
442.194	3.52313
443.96	3.42666
445.725	3.22399
447.492	2.60115
449.257	2.86238
451.021	2.32469
452.787	2.6929
454.551	2.97255
456.314	2.90319
458.079	3.61912
459.842	3.62936
461.604	3.36077
463.368	3.32761
465.13	3.71095
466.891	3.84709
468.654	4.60627
470.415	5.34532
472.175	6.72087
473.935	6.25533
475.696	6.029
477.456	7.59981
479.215	7.77969
480.973	8.33242
482.733	9.46523
484.491	10.9463
486.249	11.4379
488.006	10.8091
489.765	11.7341
491.522	11.1529
493.278	10.9416
495.034	10.9989
496.789	11.7522
498.544	13.3639
500.301	13.7089
502.056	14.7216
503.81	16.1725
505.564	16.0973
507.317	15.8106
509.071	15.4202
510.825	16.4076
512.578	15.9161
514.33	16.5845
516.082	16.8124
517.833	17.1198
519.585	16.3609
521.335	16.1639
523.086	16.1389
524.836	16.2119
526.586	16.0241
528.335	15.8864
530.085	15.3659
531.835	15.1884
533.584	14.5668
535.332	15.0109
537.08	15.0195
538.827	14.2485
540.574	14.2754
542.321	13.7337
544.068	12.6008
545.814	12.2095
547.56	11.4911
549.305	11.5052
551.05	10.8006
552.795	10.668
554.54	10.1289
556.282	10.1326
558.025	9.29658
559.769	8.48686
561.512	7.27479
563.255	7.00232
564.997	8.13681
566.739	7.70752
568.481	6.60169
570.223	5.84312
571.964	5.14088
573.705	4.33743
575.443	3.27761
577.183	3.16088
578.923	1.4909
580.663	1.91707
582.402	2.44142
584.141	3.12491
585.879	3.64214
587.615	3.60199
589.353	4.02493
591.09	3.41117
592.828	2.85847
594.564	1.87581
596.299	1.27134
598.035	1.7662
599.771	1.65961
601.506	2.23754
603.242	2.16533
604.974	2.0971
606.709	2.4938
608.443	3.29699
610.177	3.80958
611.908	3.94025
613.642	4.71048
615.374	4.73376
617.105	6.01498
618.837	5.90606
620.569	5.75199
622.3	6.35127
624.03	5.71137
625.761	6.45467
627.491	7.12614
629.219	7.39756
630.949	8.01825
632.677	9.18593
634.406	10.2261
636.135	10.8203
637.861	10.8349
639.59	11.605
641.318	12.2404
643.043	12.6177
644.77	12.4628
646.495	13.3766
648.222	14.2484
649.948	15.3763
651.672	15.3968
653.398	15.6465
655.121	15.9571
656.846	17.0545
658.569	17.7443
660.293	19.0887
662.015	20.4762
663.738	20.7326
665.46	20.8897
667.183	21.6629
668.903	21.8977
670.626	22.9959
672.346	22.4887
674.067	21.8089
675.787	22.2106
677.508	23.664
679.226	24.1403
680.947	24.3032
682.665	24.904
684.385	25.8655
686.102	26.5419
687.821	27.2489
689.538	28.663
691.254	29.8275
692.972	30.0619
694.688	30.7192
696.406	32.5497
698.121	33.3798
699.835	34.582
701.552	35.4606
703.266	37.5723
704.98	38.7391
706.695	39.4764
708.409	40.8192
710.121	41.4432
711.836	42.9422
713.548	44.0253
715.26	45.4795
716.973	46.8297
718.685	47.4124
720.396	47.9257
722.108	48.7067
723.818	49.9597
725.528	50.5059
727.238	50.6763
728.949	51.1492
730.658	51.4576
732.367	52.2933
734.075	52.1797
735.785	52.5299
737.493	52.9938
739.2	54.0216
740.907	54.5819
742.614	54.4618
744.322	55.1556
746.028	55.9582
747.734	56.2371
749.439	55.7257
751.144	56.5105
752.849	56.9978
754.555	58.2308
756.26	59.2497
757.963	59.8427
759.667	61.1643
761.37	62.2521
763.073	63.1011
764.775	62.6912
766.477	63.6363
768.179	65.5856
769.883	67.0321
771.584	68.099
773.285	69.2612
774.986	70.7226
776.686	70.9525
778.386	72.0346
780.085	73.0791
781.785	74.9993
783.484	75.0496
785.182	76.1516
786.881	76.1793
788.579	76.7731
790.276	76.7392
791.974	77.4164
793.671	78.148
795.367	79.0565
797.064	80.3271
798.76	81.0039
800.456	81.502
802.151	81.4607
803.846	82.2183
805.541	83.5181
807.234	84.1742
808.928	83.6979
810.622	83.558
812.315	83.3869
814.008	84.0716
815.701	83.8221
817.394	84.2467
819.086	84.0085
820.778	84.3783
822.468	84.3602
824.159	84.0641
825.85	83.7739
827.541	83.3707
829.231	84.0856
830.921	83.769
832.609	83.5282
834.298	82.5301
835.987	82.5325
837.676	82.0741
839.364	80.6011
841.051	79.8004
842.738	78.5039
844.426	76.9706
846.113	76.3782
847.798	75.3552
849.484	74.9184
851.171	73.9012
852.857	73.5309
854.54	70.9392
856.226	69.7758
857.911	68.6154
859.593	67.5033
861.278	66.083
862.961	65.0553
864.645	63.3139
866.327	63.4183
868.01	62.2415
869.692	61.1814
871.373	60.3032
873.055	60.2882
874.735	60.4539
876.416	59.923
878.097	59.8612
879.776	60.1928
881.457	59.9565
883.135	59.2693
884.815	59.5208
886.495	59.6983
888.172	60.0082
889.851	59.2949
891.528	58.6015
893.206	58.4596
894.882	58.1842
896.56	57.931
898.237	58.3784
899.912	57.5745
901.589	57.2573
903.263	56.7311
904.94	55.9905
906.614	55.381
908.289	55.0578
909.962	54.2363
911.635	53.2862
913.31	52.6383
914.982	50.7992
916.656	49.16
918.328	48.2416
920.001	47.7127
921.672	46.8914
923.345	45.2641
925.015	45.095
926.685	43.4643
928.357	42.4633
930.026	41.896
931.698	40.6757
933.366	40.0588
935.035	38.7536
936.705	38.7552
938.373	37.792
940.041	38.0136
941.71	37.4477
943.377	37.1021
945.044	36.491
946.712	35.7269
948.378	35.2846
950.044	36.2081
951.709	36.1043
953.376	36.437
955.041	36.8037
956.706	36.0941
958.372	35.9778
960.036	35.8345
961.699	36.51
963.362	35.9761
965.027	36.5699
966.69	36.759
968.352	37.8869
970.014	38.5098
971.676	38.5364
973.339	39.2118
975	39.8291
976.661	40.0257
978.322	40.4673
979.982	41.0912
981.642	41.7056
983.303	41.3448
984.962	41.695
986.621	42.0708
988.28	42.3098
989.938	42.6036
991.596	42.3627
993.254	40.4078
994.911	39.5906
996.57	38.9961
998.227	38.402
999.884	38.2782
1001.54	39.2061
1003.2	40.4632
1004.85	41.0363
1006.51	41.079
1008.16	42.0414
1009.82	41.8461
1011.47	42.3602
1013.12	42.8933
1014.78	43.1338
1016.43	44.1509
1018.08	45.1392
1019.74	45.8967
1021.39	45.7056
1023.04	46.4235
1024.69	46.919
1026.34	47.3269
1028	47.4478
1029.65	48.1527
1031.3	48.2691
1032.95	48.1144
1034.6	47.1452
1036.25	47.1629
1037.9	46.2048
1039.54	45.3483
1041.19	45.6971
1042.84	45.7312
1044.49	44.9893
1046.14	44.5812
1047.78	43.8722
1049.43	42.8535
1051.08	41.8464
1052.72	40.4805
1054.37	39.1912
1056.02	38.0633
1057.66	36.5345
1059.31	35.3463
1060.95	34.1961
1062.6	33.0724
1064.24	31.8391
1065.88	30.382
1067.53	28.9341
1069.17	26.9032
1070.81	24.9958
1072.45	22.6376
1074.1	20.2199
1075.74	18.978
1077.38	19.4806
1079.02	18.8105
1080.66	19.1487
1082.3	18.7132
1083.94	18.8641
1085.58	17.9694
1087.22	17.4909
1088.86	17.0681
1090.5	16.621
1092.14	15.8774
1093.78	16.2846
1095.42	16.298
1097.05	16.3254
1098.69	16.9342
1100.33	16.911
1101.96	16.0264
1103.6	16.0778
1105.24	16.9065
1106.87	16.7363
1108.51	16.7831
1110.14	15.3398
1111.78	15.3386
1113.41	14.5736
1115.05	14.3169
1116.68	13.9831
1118.31	14.3628
1119.95	13.6748
1121.58	13.1444
1123.21	12.9031
1124.85	11.7722
1126.48	10.3814
1128.11	9.59271
1129.74	9.59227
1131.37	9.23442
1133	8.96745
1134.63	8.74086
1136.26	9.30617
1137.89	8.24116
1139.52	8.63656
1141.15	8.49722
1142.78	9.00331
1144.41	9.02838
1146.04	7.69195
1147.66	7.07424
1149.29	6.7237
1150.92	6.18219
1152.55	5.84429
1154.17	6.16408
1155.8	6.78241
1157.43	7.1705
1159.05	6.61652
1160.68	5.26757
1162.3	5.14604
1163.93	3.66642
1165.55	3.10796
1167.17	2.98117
1168.8	3.21076
1170.42	2.31851
1172.05	3.02433
1173.67	2.90544
1175.29	2.99891
1176.91	2.78277
1178.54	3.08711
1180.16	3.69906
1181.78	2.666
1183.4	3.14294
1185.02	4.63751
1186.64	5.60654
1188.26	6.29751
1189.88	6.59531
1191.5	6.53299
1193.12	7.31895
1194.74	7.30864
1196.36	7.8495
1197.97	8.42
1199.59	9.08183
1201.21	9.67298
1202.83	9.44688
1204.44	9.49974
1206.06	10.6985
1207.68	11.9931
1209.29	14.8994
1210.91	17.1398
1212.52	18.1658
1214.14	20.3567
1215.75	22.8266
1217.37	24.6786
1218.98	25.9715
1220.59	28.2268
1222.21	29.081
1223.82	30.4391
1225.43	31.8973
1227.05	34.0828
1228.66	37.0229
1230.27	39.0822
1231.88	40.4679
1233.49	43.0519
1235.1	44.9185
1236.72	44.9517
1238.33	44.5751
1239.94	45.0094
1241.55	45.381
1243.16	46.5436
1244.76	46.462
1246.37	47.1526
1247.98	48.3854
1249.59	48.4383
1251.2	49.5565
1252.8	51.1848
1254.41	51.4028
1256.02	52.466
1257.62	52.7005
1259.23	53.4052
1260.84	54.0284
1262.44	53.9205
1264.05	55.0218
1265.66	55.9167
1267.26	55.8615
1268.86	55.3208
1270.47	54.9703
1272.07	54.2352
1273.67	53.5967
1275.28	54.2052
1276.88	54.7321
1278.48	54.2436
1280.09	54.2485
1281.69	55.2807
1283.29	55.7395
1284.89	56.9595
1286.49	58.2383
1288.09	58.9411
1289.69	60.4648
1291.29	60.9872
1292.89	61.9058
1294.49	62.9449
1296.09	63.8943
1297.69	64.3493
1299.29	64.548
1300.89	66.0377
1302.49	67.0115
1304.08	69.4333
1305.68	71.8328
1307.28	73.5466
1308.88	74.095
1310.47	74.778
1312.07	75.194
1313.66	76.1148
1315.26	75.6193
1316.85	74.8946
1318.45	75.3013
1320.04	76.0733
1321.64	76.7011
1323.23	76.7291
1324.83	76.6363
1326.42	75.5807
1328.01	75.9534
1329.61	75.0172
1331.2	75.2318
1332.79	74.9884
1334.38	73.7415
1335.97	73.2336
1337.56	72.1888
1339.16	71.2357
1340.75	70.5385
1342.34	68.8903
1343.93	68.1134
1345.52	66.8283
1347.11	64.99
1348.7	62.5447
1350.29	61.4027
1351.87	59.3054
1353.46	57.7269
1355.05	56.9581
1356.64	54.6685
1358.22	53.1298
1359.81	51.3577
1361.4	49.5313
1362.98	47.6445
1364.57	45.9819
1366.16	44.6621
1367.74	43.8856
1369.33	43.5689
1370.91	42.0504
1372.5	40.4759
1374.08	39.4566
1375.67	39.0968
1377.25	38.374
1378.83	37.2744
1380.41	38.3154
1382	37.455
1383.58	37.9408
1385.16	37.2136
1386.74	35.8387
1388.33	34.8878
1389.91	34.0631
1391.49	33.1555
1393.07	32.146
1394.65	32.3154
1396.23	30.6695
1397.81	30.7262
1399.39	30.752
1400.97	30.101
1402.55	29.888
1404.13	29.5034
1405.7	28.6051
1407.28	29.3255
1408.86	29.5836
1410.44	30.0368
1412.01	30.2257
1413.59	29.9293
1415.17	31.6794
1416.74	32.4593
1418.32	33.6785
1419.89	35.4451
1421.47	37.1101
1423.04	38.5101
1424.62	39.7124
1426.19	41.7795
1427.77	43.8067
1429.34	46.0719
1430.91	47.7564
1432.49	50.1232
1434.06	52.469
1435.63	54.4857
1437.2	56.8113
1438.78	57.9561
1440.35	59.8563
1441.92	61.5029
1443.49	63.0684
1445.06	63.8167
1446.63	64.6618
1448.2	65.4029
1449.77	65.0419
1451.34	64.9813
1452.91	65.0686
1454.48	64.9806
1456.05	64.3211
1457.62	63.8098
1459.18	63.6865
1460.75	62.0127
1462.32	60.8324
1463.89	58.8526
1465.45	57.4093
1467.02	55.757
1468.59	53.2902
1470.15	51.4292
1471.72	49.1229
1473.28	47.3621
1474.85	43.1562
1476.41	41.0061
1477.98	38.5618
1479.54	35.8339
1481.1	32.8697
1482.67	29.7729
1484.23	27.5326
1485.79	25.0667
1487.36	23.3365
1488.92	20.9534
1490.48	18.3816
1492.04	16.875
1493.61	16.8234
1495.17	15.9473
1496.73	16.0531
1498.29	14.9535
1499.85	15.0029
1501.41	14.1778
1502.97	14.2576
1504.53	14.8949
1506.09	15.192
1507.65	14.9312
1509.2	14.9809
1510.76	15.606
1512.32	15.8076
1513.88	16.2471
1515.43	16.0959
1516.99	16.4457
1518.55	17.7177
1520.1	18.6871
1521.66	19.8617
1523.22	20.4574
1524.77	22.3929
1526.33	23.4056
1527.88	24.435
1529.44	25.8264
1530.99	27.4318
1532.54	28.3603
1534.1	29.513
1535.65	30.7045
1537.21	32.062
1538.76	34.1238
1540.31	35.7802
1541.86	36.7554
1543.42	39.0679
1544.97	40.4632
1546.52	42.2259
1548.07	43.7615
1549.62	44.7013
1551.17	46.1172
1552.72	47.4356
1554.27	49.3927
1555.82	51.1825
1557.37	52.1555
1558.92	52.4592
1560.47	53.7458
1562.02	55.0374
1563.56	54.9175
1565.11	56.6132
1566.66	56.8754
1568.21	57.7621
1569.75	59.6163
1571.3	61.3981
1572.85	62.4904
1574.39	63.2909
1575.94	63.5911
1577.49	64.7372
1579.03	65.0886
1580.57	65.6173
1582.12	65.9868
1583.66	65.9436
1585.21	66.8586
1586.75	66.809
1588.3	67.5548
1589.84	68.0021
1591.38	68.3646
1592.92	68.7123
1594.47	68.91
1596.01	69.1098
1597.55	68.864
1599.09	68.9765
1600.63	68.6624
1602.17	68.6947
1603.71	67.5241
1605.25	67.1374
1606.79	67.0718
1608.33	66.9084
1609.87	66.4821
1611.41	67.0764
1612.95	67.5381
1614.49	67.9686
1616.03	68.3214
1617.57	67.6735
1619.1	68.2755
1620.64	69.8474
1622.18	70.6376
1623.72	71.1724
1625.25	71.7949
1626.79	72.785
1628.32	74.065
1629.86	75.1559
1631.39	75.6299
1632.93	76.091
1634.46	76.0524
1636	76.8565
1637.53	78.6374
1639.07	79.3563
1640.6	79.5049
1642.13	81.858
1643.67	82.43
1645.2	83.8237
1646.73	85.2757
1648.26	86.0948
1649.8	86.8779
1651.33	87.3416
1652.86	87.6313
1654.39	87.7122
1655.92	88.1979
1657.45	88.1474
1658.98	87.7352
1660.51	87.9411
1662.04	87.7231
1663.57	86.2431
1665.1	85.6128
1666.63	84.6097
1668.16	82.6313
1669.68	81.4789
1671.21	79.6204
1672.74	77.5553
1674.27	75.3479
1675.79	72.9125
1677.32	70.114
1678.85	67.4483
1680.37	64.5219
1681.9	62.1215
1683.42	60.3835
1684.95	57.3731
1686.47	54.0653
1688	51.6832
1689.52	49.1407
1691.05	46.0986
1692.57	43.7872
1694.09	41.6458
1695.62	39.8279
1697.14	37.6756
1698.66	35.2392
1700.18	32.3282
1701.71	29.8628
1703.23	27.6548
1704.75	25.5872
1706.27	23.8815
1707.79	21.5029
1709.31	19.512
1710.83	17.8995
1712.35	16.7275
1713.87	15.7471
1715.39	14.6357
1716.91	14.0171
1718.43	13.4701
1719.95	12.0493
1721.47	11.6946
1722.99	11.6334
1724.5	11.0782
1726.02	10.6593
1727.54	9.53082
1729.06	8.85595
1730.57	8.56059
1732.09	8.8709
1733.61	8.19962
1735.12	7.85157
1736.64	7.80404
1738.15	7.10946
1739.67	6.84429
1741.18	7.0493
1742.7	6.72881
1744.21	6.65709
1745.72	6.86262
1747.24	6.22809
1748.75	5.86995
1750.26	6.01701
1751.77	5.86331
1753.29	5.75513
1754.8	5.91121
1756.31	5.77567
1757.82	6.27607
1759.33	6.1667
1760.84	5.06661
1762.36	4.42608
1763.87	4.63806
1765.38	4.43861
1766.89	4.30072
1768.4	4.24829
1769.91	3.65296
1771.41	3.10459
1772.92	2.38702
1774.43	1.41364
1775.94	1.14418
1777.45	1.23394
1778.95	1.5711
1780.46	1.21331
1781.97	0.953097
1783.48	0.718339
1784.98	1.12267
1786.49	1.06562
1787.99	1.20709
1789.5	1.78992
1791.01	1.8132
1792.51	1.15336
1794.01	1.1913
1795.52	1.29104
1797.02	1.25415
1798.53	1.02476
1800.03	0.3251
1801.53	0.317663
1803.04	0.0399978
1804.54	0.469043
1806.04	1.24436
1807.54	1.36328
1809.05	1.71713
1810.55	1.90838
1812.05	1.83656
1813.55	2.20745
1815.05	2.31357
1816.55	2.45391
1818.05	2.50708
1819.55	3.01318
1821.05	2.99593
1822.55	2.95071
1824.05	2.80372
1825.55	2.98405
1827.05	2.88464
1828.55	2.98732
1830.04	3.23894
1831.54	2.9801
1833.04	3.04052
1834.54	2.32126
1836.03	1.98242
1837.53	1.94378
1839.03	1.91226
1840.52	1.56932
1842.02	1.07263
1843.51	0.762517
1845.01	0.469345
1846.5	0.236797
1848	0.0229873
1849.49	-0.0352851
1850.99	0.181977
1852.48	0.318267
1853.97	0.591433
1855.47	0.242582
1856.96	0.416103
1858.45	0.534512
1859.94	0.374664
1861.44	0.175154
1862.93	0.267537
1864.42	0.424395
1865.91	0.342071
1867.4	0.359178
1868.89	0.75497
1870.38	0.736146
1871.87	0.223624
1873.36	1.11968
1874.85	1.13032
1876.34	2.19963
1877.83	2.2714
1879.32	2.06279
1880.81	2.22448
1882.3	2.51792
1882.57	2.90543
1884.07	2.53935
1885.56	2.86601
1887.06	3.0673
1888.55	2.99578
1890.04	3.4764
1891.54	3.82557
1893.03	3.86931
1894.52	3.44587
1896.02	3.72703
1897.51	3.94833
1899	4.68182
1900.49	4.71506
1901.98	4.64337
1903.47	4.63691
1904.96	4.41718
1906.45	4.23457
1907.94	4.11111
1909.43	4.15843
1910.92	3.5572
1912.41	3.97865
1913.9	4.11172
1915.39	4.25452
1916.88	4.68162
1918.37	4.50958
1919.85	4.01674
1921.34	3.8886
1922.83	3.83484
1924.32	3.88632
1925.8	4.2851
1927.29	4.16418
1928.78	4.39107
1930.26	4.38387
1931.75	4.66158
1933.23	4.70278
1934.72	5.35389
1936.2	5.65509
1937.69	5.81504
1939.17	6.04575
1940.66	5.72114
1942.14	5.66612
1943.63	5.90324
1945.11	6.19267
1946.59	7.08635
1948.07	7.19442
1949.56	7.55473
1951.04	6.89708
1952.52	6.5023
1954	7.07554
1955.48	7.1139
1956.96	6.67068
1958.45	6.76316
1959.93	6.70798
1961.41	6.03958
1962.89	5.56753
1964.37	5.3008
1965.85	5.42764
1967.32	4.66788
1968.8	4.47237
1970.28	4.46852
1971.76	4.13154
1973.24	4.34391
1974.72	4.00584
1976.19	4.76776
1977.67	4.96251
1979.15	5.00603
1980.63	4.68215
1982.1	5.05606
1983.58	4.84975
1985.05	4.46783
1986.53	4.90534
1988	4.06266
1989.48	3.86174
1990.95	4.09501
1992.43	3.61653
1993.9	3.37325
1995.38	3.81611
1996.85	4.15409
1998.32	5.08975
1999.8	5.223
2001.27	5.51524
2002.74	5.95254
2004.22	5.41361
2005.69	5.63816
2007.16	5.73839
2008.63	6.38804
2010.1	5.94142
2011.57	5.88592
2013.04	6.34793
2014.51	6.79333
2015.98	7.98341
2017.45	8.76332
2018.92	8.87526
2020.39	8.86918
2021.86	9.52828
2023.33	9.2101
2024.8	9.11942
2026.27	9.43738
2027.74	9.50139
2029.2	9.8189
2030.67	9.92032
2032.14	10.1447
2033.61	10.4601
2035.07	10.3914
2036.54	10.777
2038.01	10.6971
2039.47	10.6725
2040.94	10.3708
2042.4	10.7608
2043.87	11.0912
2045.33	11.3911
2046.8	11.9938
2048.26	12.3697
2049.72	12.7377
2051.19	12.3865
2052.65	12.2095
2054.12	11.935
2055.58	12.0778
2057.04	11.3293
2058.5	11.4164
2059.97	12.0205
2061.43	11.981
2062.89	12.5959
2064.35	13.4046
2065.81	13.662
2067.27	14.448
2068.73	14.7803
2070.19	15.254
2071.65	15.8555
2073.11	15.3886
2074.57	15.1128
2076.03	15.3176
2077.49	15.3278
2078.95	15.5152
2080.41	16.518
2081.87	17.4168
2083.32	17.2408
2084.78	17.6276
2086.24	18.3359
2087.7	18.9982
2089.15	19.2557
2090.61	19.8067
2092.07	19.5557
2093.52	20.183
2094.98	20.8571
2096.43	20.8912
2097.89	21.2865
2099.34	21.9705
2100.8	23.1079
2102.25	24.0212
2103.71	24.3971
2105.16	25.2894
2106.61	25.6617
2108.07	25.9445
2109.52	26.6775
2110.97	27.1736
2112.43	27.8914
2113.88	29.2892
2115.33	30.0917
2116.78	31.249
2118.23	32.3546
2119.68	33.9263
2121.13	35.4332
2122.59	36.8199
2124.04	38.396
2125.49	39.7746
2126.94	41.6378
2128.39	42.7218
2129.83	44.1269
2131.28	46.3145
2132.73	47.3973
2134.18	48.9303
2135.63	51.1079
2137.08	52.8946
2138.53	54.585
2139.97	57.0218
2141.42	58.7978
2142.87	60.9715
2144.31	62.7971
2145.76	64.4361
2147.21	66.5574
2148.65	68.9754
2150.1	69.7492
2151.54	71.4735
2152.99	73.261
2154.43	74.2136
2155.88	75.106
2157.32	76.6538
2158.77	78.6392
2160.21	79.726
2161.65	80.5707
2163.1	81.4018
2164.54	82.5895
2165.98	83.6295
2167.43	84.4671
2168.87	85.0594
2170.31	86.1364
2171.75	86.8486
2173.19	87.1907
2174.64	87.6023
2176.07	87.3837
2177.52	87.5765
2178.96	87.389
2180.4	87.3253
2181.84	87.1364
2183.28	86.424
2184.72	85.4984
2186.15	85.1195
2187.59	84.2617
2189.03	83.2677
2190.47	82.1642
2191.91	81.587
2193.35	80.5865
2194.78	79.8392
2196.22	78.1458
2197.66	76.2643
2199.09	74.211
2200.53	71.6297
2201.97	69.7862
2203.4	68.3718
2204.84	66.2498
2206.27	65.2135
2207.71	63.237
2209.14	61.8167
2210.58	60.501
2212.01	59.3753
2213.45	56.9232
2214.88	54.7675
2216.31	52.5206
2217.75	50.5149
2219.18	48.5197
2220.61	46.4741
2222.05	44.3338
2223.48	43.269
2224.91	41.9636
2226.34	40.7692
2227.78	39.4701
2229.21	38.1159
2230.64	37.1755
2232.07	36.2096
2233.5	34.757
2234.93	33.7155
2236.36	33.5484
2237.79	31.9362
2239.22	31.7553
2240.65	31.373
2242.08	30.785
2243.5	29.8786
2244.93	29.5658
2246.36	29.246
2247.79	28.8868
2249.22	28.6539
2250.64	28.1879
2252.07	27.8972
2253.5	28.3533
2254.92	27.4829
2256.35	27.2832
2257.78	27.1694
2259.2	27.3685
2260.63	27.0933
2262.05	27.1835
2263.48	27.3602
2264.9	26.6409
2266.33	26.4079
2267.75	24.948
2269.18	23.859
2270.6	23.0721
2272.02	22.4267
2273.45	22.0453
2274.87	21.8245
2276.29	21.3958
2277.71	20.6722
2279.14	20.2968
2280.56	20.1372
2281.98	19.6265
2283.4	19.188
2284.82	18.216
2286.24	17.399
2287.66	17.0252
2289.08	17.0962
2290.5	16.4664
2291.92	16.1364
2293.34	15.7314
2294.76	15.1595
2296.18	14.8583
2297.6	14.5915
2299.02	13.8572
2300.44	13.722
2301.86	13.2738
2303.27	12.9638
2304.69	12.0541
2306.11	12.6124
2307.53	13.1135
2308.94	12.7066
2310.36	13.0702
2311.78	12.2792
2313.19	11.6639
2314.61	11.9288
2316.02	12.2592
2317.44	11.3876
2318.85	11.5449
2320.27	10.9056
2321.68	11.1016
2323.1	10.8147
2324.51	10.5991
2325.92	9.78409
2327.34	9.50834
2328.75	9.39151
2330.16	9.55035
2331.58	9.20601
2332.99	8.47167
2334.4	7.72745
2335.81	7.45853
2337.23	6.72352
2338.64	6.11236
2340.05	5.65937
2341.46	5.98441
2342.87	5.89301
2344.28	5.93873
2345.69	6.10857
2347.1	5.91305
2348.51	5.58605
2349.92	5.94505
2351.33	5.63922
2352.74	5.30906
2354.15	5.60067
2355.55	4.7333
2356.96	4.11562
2358.37	3.72364
2359.78	3.05184
2361.19	2.55376
2362.59	2.1685
2364	1.78693
2365.41	1.53859
2366.81	1.51829
2368.22	0.744454
2369.62	0.159921
2371.03	0.118772
2372.44	-0.287867
2373.84	0.020933
2375.24	-0.0485448
2376.65	0.677935
2378.05	0.268377
2379.46	0.205718
2380.86	0.166405
2382.26	-0.41198
2383.67	0.181658
2385.07	0.912668
2386.47	1.09258
2387.88	1.14424
2389.28	1.75966
2390.68	2.17719
2392.08	2.26181
2393.48	2.74818
2394.89	2.949
2396.29	2.93442
2397.69	3.10038
2399.09	3.68589
2400.49	3.92147
2401.89	3.821
2403.29	4.23534
2404.69	4.88668
2406.09	5.1796
2407.48	4.87379
2408.88	5.35232
2410.28	5.50225
2411.68	5.88387
2413.08	5.98792
2414.48	6.64313
2415.87	6.44323
2417.27	6.14286
2418.67	6.73565
2420.06	6.5703
2421.46	6.26429
2422.86	5.97142
2424.25	6.00232
2425.65	4.8741
2427.04	4.96673
2428.44	5.07419
2429.83	4.7526
2431.23	4.54665
2432.62	3.99872
2434.02	3.67241
2435.41	3.27338
2436.81	2.78611
2438.2	2.15947
2439.59	2.60636
2440.99	2.78077
2442.38	3.60614
2443.77	4.16485
2445.16	3.94372
2446.56	4.297
2447.95	4.20937
2449.34	4.92231
2450.73	5.06485
2452.12	5.51801
2453.51	5.78764
2454.9	5.95191
2456.29	5.80231
2457.68	5.78452
2459.07	5.59824
2460.46	5.83003
2461.85	5.57587
2463.24	5.30093
2464.63	4.94446
2466.02	4.98708
2467.4	5.01628
2468.79	5.29418
2470.18	5.23374
2471.57	4.77213
2472.95	5.20675
2474.34	4.36513
2475.73	3.77924
2477.12	3.68929
2478.5	3.64041
2479.89	3.44055
2481.27	3.09017
2482.66	3.40707
2484.04	2.90554
2485.43	2.31438
2486.81	2.45175
2488.2	2.50572
2489.58	1.58264
2490.97	1.3483
2492.35	1.19609
2493.73	1.09174
2495.12	0.74142
2496.5	0.687291
2497.88	0.947822
2499.27	0.204567
2500.65	0.14699
2502.03	0.467235
2503.41	0.197639
2504.79	0.43988
2506.17	1.22529
2507.56	1.39066
2508.94	2.12323
2510.32	2.52646
2511.7	2.98814
2513.08	2.53042
2514.46	2.64876
2515.84	3.18853
2517.22	3.49661
2518.59	4.07848
2519.97	4.01178
2521.35	3.84129
2522.73	3.31875
2524.11	3.78985
2525.49	3.97969
2526.86	4.25849
2528.24	4.02242
2529.62	4.01518
2530.99	4.23212
2532.37	4.82768
2533.75	5.37566
2535.12	5.55102
2536.5	5.48176
2537.88	5.60858
2539.25	5.27218
2540.63	5.24223
2542	5.85291
2543.38	5.21076
2544.75	5.55716
2546.12	5.59622
2547.5	5.56622
2548.87	5.19779
2550.24	4.98235
2551.62	4.91536
2552.99	4.20506
2554.36	4.75555
2555.74	4.7471
2557.11	4.66003
2558.48	4.5553
2559.85	4.69338
2561.22	4.37025
2562.59	4.17295
2563.96	4.48965
2565.34	4.99127
2566.71	5.88833
2568.08	5.6629
2569.45	6.33592
2570.82	7.18355
2572.18	7.42344
2573.55	7.76687
2574.92	8.15783
2576.29	7.43033
2577.66	7.42699
2579.03	7.04362
2580.4	7.02359
2581.77	6.4945
2583.13	6.27159
2584.5	6.00557
2585.87	6.17486
2587.23	5.80522
2588.6	5.16051
2589.97	4.80951
2591.33	4.72639
2592.7	5.07913
2594.06	5.06039
2595.43	5.39778
2596.79	5.15846
2598.16	5.22441
2599.52	4.94937
2600.89	4.93371
2602.25	4.31871
2603.62	4.09825
2604.98	3.49171
2606.34	3.14418
2607.71	3.09327
2609.07	3.02711
2610.43	3.02232
2611.79	2.71499
2613.16	3.0243
2614.52	2.57896
2615.88	2.54903
2617.24	2.25443
2618.6	2.34374
2619.96	2.34926
2621.32	2.20927
2622.68	2.42237
2624.04	2.78235
2625.4	2.89776
2626.76	3.15107
2628.12	3.06218
2629.48	2.94386
2630.84	3.60827
2632.2	4.31164
2633.56	4.70261
2634.92	5.21237
2636.28	4.88137
2637.63	5.01087
2638.99	4.73182
2640.35	4.28502
2641.71	3.80759
2643.06	3.33066
2644.42	2.82125
2645.77	2.77513
2647.13	2.47954
2648.49	2.78599
2649.84	2.95438
2651.2	3.33754
2652.55	3.32653
2653.91	3.20162
2655.26	2.92364
2656.62	3.3026
2657.97	3.87736
2659.33	4.16576
2660.68	4.29863
2662.03	4.40659
2663.39	4.58823
2664.74	4.01244
2666.09	4.04613
2667.44	4.24161
2668.8	4.92089
2670.15	4.54176
2671.5	4.87398
2672.85	5.0845
2674.2	5.28829
2675.55	5.58633
2676.91	5.33476
2678.26	5.66835
2679.61	5.33106
2680.96	4.95248
2682.31	5.02326
2683.66	5.62279
2685	5.4274
2686.35	5.68649
2687.7	5.50374
2689.05	5.58339
2690.4	6.09662
2691.75	6.0222
2693.1	5.46733
2694.44	5.14195
2695.79	4.83105
2697.14	4.30075
2698.49	4.57586
2699.83	4.67461
2701.18	4.95254
2702.52	4.82204
2703.87	4.66168
2705.22	4.90288
2706.56	4.9493
2707.91	5.23733
2709.25	4.99951
2710.6	5.29627
2711.94	5.46499
2713.29	6.29817
2714.63	6.96137
2715.97	7.06799
2717.32	7.35591
2718.66	6.97831
2720.01	6.90745
2721.35	7.38779
2722.69	8.06902
2724.03	8.96557
2725.38	9.14233
2726.72	9.00655
2728.06	9.25067
2729.4	10.1781
2730.74	10.2734
2732.08	10.1141
2733.42	10.3743
2734.76	10.6712
2736.1	10.6672
2737.44	10.5773
2738.78	10.3577
2740.12	9.76785
2741.46	9.05186
2742.8	8.96737
2744.14	8.63695
2745.48	8.78889
2746.82	8.5292
2748.16	8.4519
2749.49	8.31349
2750.83	7.67337
2752.17	6.90484
2753.51	6.35961
2754.84	5.62767
2756.18	5.10164
2757.52	4.76132
2758.85	4.13437
2760.19	3.96676
2761.53	3.70325
2762.86	3.91647
2764.2	3.52553
2765.53	3.99198
2766.87	3.67056
2768.2	3.33505
2769.54	2.9439
2770.87	2.63504
2772.2	2.53892
2773.54	2.2284
2774.87	1.81204
2776.2	1.26052
2777.54	1.48821
2778.87	0.928599
2780.2	1.16805
2781.53	0.803102
2782.87	-0.183511
2784.2	-0.249065
2785.53	-0.525287
2786.86	-0.326314
2788.19	-0.201598
2789.52	0.0964564
2790.85	0.0761959
2792.18	-0.823518
2793.51	-0.821284
2794.84	-0.061776
2796.17	0.430029
2797.5	0.453868
2798.83	0.488627
2800.16	0.635823
2801.49	0.825932
2802.82	0.97378
2804.15	1.03996
2805.47	1.06572
2806.8	1.60028
2808.13	2.34304
2809.46	2.4559
2810.78	2.62706
2812.11	2.73416
2813.44	2.59507
2814.76	2.09251
2816.09	2.58532
2817.42	3.23358
2818.74	3.83789
2820.07	4.60847
2821.39	5.39241
2822.72	6.76014
2824.04	7.99655
2825.37	8.67379
2826.69	9.98894
2828.02	11.674
2829.34	12.8609
2830.66	14.3938
2831.99	16.0975
2833.31	17.589
2834.63	18.8372
2835.96	19.949
2837.28	21.3869
2838.6	22.7067
2839.92	24.1553
2841.24	26.0587
2842.57	28.3199
2843.89	31.4098
2845.21	33.4193
2846.53	36.7969
2847.85	39.6171
2849.17	42.1301
2850.49	45.3382
2851.81	48.4744
2853.13	51.7196
2854.45	55.2514
2855.77	58.2534
2857.09	61.1979
2858.41	64.7543
2859.72	68.8079
2861.04	72.2462
2862.36	75.3446
2863.68	78.3483
2865	81.2328
2866.31	84.5747
2867.63	87.2156
2868.95	89.6159
2870.26	91.8983
2871.58	94.383
2872.9	96.9659
2874.21	99.6121
2875.53	101.263
2876.84	103.084
2878.16	104.429
2879.47	106.358
2880.79	108.519
2882.1	110.868
2883.42	112.346
2884.73	113.581
2886.05	115.569
2887.36	117.305
2888.67	119.599
2889.99	121.426
2891.3	123.156
2892.61	125.597
2893.92	127.703
2895.24	129.797
2896.55	132.097
2897.86	134.456
2899.17	136.85
2900.48	139.26
2901.79	143.031
2903.11	146.956
2904.42	150.56
2905.73	155.471
2907.04	160.805
2908.35	166.506
2909.66	171.81
2910.97	177.214
2912.27	182.975
2913.58	187.748
2914.89	193.09
2916.2	198.227
2917.51	203.062
2918.82	208.333
2920.13	212.482
2921.43	216.261
2922.74	220.081
2924.05	223.668
2925.35	226.269
2926.66	228.551
2927.97	230.94
2929.27	232.938
2930.58	234.964
2931.89	235.704
2933.19	235.989
2934.5	236.092
2935.8	236.025
2937.11	235.949
2938.41	235.029
2939.72	232.863
2941.02	230.242
2942.32	227.527
2943.63	225.37
2944.93	222.601
2946.24	219.287
2947.54	215.659
2948.84	211.344
2950.14	207.182
2951.45	202.979
2952.75	198.545
2954.05	193.953
2955.35	189.319
2956.65	184.394
2957.95	179.844
2959.26	175.196
2960.56	170.82
2961.86	165.969
2963.16	161.687
2964.46	157.119
2965.76	152.731
2967.06	148.725
2968.36	144.219
2969.66	140.619
2970.96	137.336
2972.25	133.825
2973.55	130.286
2974.85	126.518
2976.15	123.081
2977.45	118.875
2978.74	115.289
2980.04	111.882
2981.34	107.416
2982.64	103.036
2983.93	99.0354
2985.23	94.7943
2986.52	90.9917
2987.82	86.4486
2989.12	82.8286
2990.41	79.3287
2991.71	75.7536
2993	72.4242
2994.3	69.1962
2995.59	65.7166
2996.89	62.0117
2998.18	59.0623
2999.48	55.494
3000.77	52.6978
3002.06	49.9282
3003.36	47.055
3004.65	43.8729
3005.94	41.552
3007.23	39.2379
3008.53	36.9693
3009.82	34.1414
3011.11	32.0595
3012.4	29.969
3013.69	27.306
3014.99	25.4153
3016.28	23.3917
3017.57	22.0721
3018.86	20.7645
3020.15	19.2726
3021.44	18.2702
3022.73	17.2358
3024.02	16.2986
3025.31	15.4055
3026.6	14.3398
3027.89	13.7755
3029.18	13.2432
3030.46	12.8394
3031.75	12.8117
3033.04	13.2099
3034.33	13.2893
3035.62	12.8784
3036.9	13.0431
3038.19	13.4987
3039.48	14.0707
3040.76	14.5082
3042.05	14.9565
3043.34	15.2686
3044.62	15.5707
3045.91	15.9086
3047.19	16.357
3048.48	16.8969
3049.77	17.244
3051.05	17.423
3052.34	17.7742
3053.62	18.2456
3054.9	18.4441
3056.19	18.5137
3057.47	18.6787
3058.76	19.2448
3060.04	19.2018
3061.32	19.4311
3062.61	18.9168
3063.89	18.3399
3065.17	18.0993
3066.45	17.7247
3067.74	17.3571
3069.02	16.0861
3070.3	15.6136
3071.58	15.1192
3072.86	14.0295
3074.14	13.18
3075.42	12.2813
3076.7	11.5353
3077.99	10.0734
3079.26	9.45348
3080.54	8.22862
3081.82	7.54351
3083.1	6.81059
3084.38	5.99234
3085.66	5.78237
3086.94	4.83709
3088.22	3.90543
3089.5	3.39658
3090.78	2.30737
3092.05	2.09699
3093.33	1.47643
3094.61	1.16015
3095.89	1.00642
3097.16	0.801157
3098.44	0.386849
3099.72	0.395942
3100.99	0.812365
3102.27	0.949603
3103.54	1.26364
3104.82	1.15718
3106.1	0.781521
3107.37	1.14194
3108.65	1.52036
3109.92	1.86584
3111.2	1.24161
3112.47	1.69008
3113.74	1.97514
3115.02	2.23384
3116.29	2.8311
3117.56	2.76635
3118.84	3.46606
3120.11	3.94202
3121.38	4.30962
3122.66	5.00181
3123.93	4.89504
3125.2	5.25084
3126.47	5.32801
3127.74	5.86071
3129.01	6.20076
3130.29	6.61166
3131.56	6.89954
3132.83	6.92007
3134.1	7.62642
3135.37	8.173
3136.64	8.23584
3137.91	8.80156
3139.18	9.10312
3140.45	9.68284
3141.72	9.95093
3142.99	10.7477
3144.26	11.4777
3145.52	12.2586
3146.79	13.0763
3148.06	14.0042
3149.33	15.3497
