#Acq. time (s)=	45
#Accumulations=	2
#Range (cm-¹)=	200...3150
#Windows=	2
#Auto scanning=	Off
#Autofocus=	Off
#Macrospot=	Off
#AutoExposure=	Off
#Spike filter=	Multiple accum.
#Delay time (s)=	0
#Binning=	1
#Readout mode=	Signal
#DeNoise=	Off
#ICS correction=	On
#Dark correction=	Off
#Inst. Process=	Off
#Detector Gain=	Best Dynamic Range
#Detector ADC=	20 kHz       
#Detector temperature (°C)=	-69.85
#Instrument=	LabRAM HR Evol
#Detector=	Synapse
#Objective=	x100
#Grating=	600 gr/mm
#ND Filter=	100%
#Laser (nm)=	532 
#Hole=	100.021
#Range=	Auto
#Laser Pol.=	No
#Raman. Pol.=	No
#Laser Pol. (°)=	-0.0007625
#Raman Pol. (°)=	89.9995
#Collection=	Microscope
#StageXY=	Marzhauser
#StageZ=	Marzhauser
#X (µm)=	8998.3
#Y (µm)=	-3057.5
#Z (µm)=	-55.15
#Full time(mm:ss)=	3:18
#Project=	
#Sample=	
#Site=	
#Title=	Thy_00_07_26_2x_45s_532 nm_x100_100%_600 gr_mm
#Remark=	
#Date=	28.06.2022 12:02
#Acquired=	28.06.2022 12:02:00
#Base:Fit=	10.08.2022 10:07:56
#Base:Sub=	10.08.2022 10:08:40
#Filter:Polynom=	16.08.2022 10:26:06
#AxisType[0]=Intens
#AxisUnit[0]=Cnt
#AxisType[1]=Spectr
#AxisUnit[1]=1/cm
200.407	58.4658
202.221	55.6156
204.035	53.1831
205.849	50.7029
207.665	48.9021
209.478	47.1603
211.291	45.5495
213.104	43.2396
214.916	40.1662
216.73	37.717
218.541	34.6583
220.352	33.269
222.163	31.5018
223.973	28.1691
225.785	25.7039
227.595	23.9712
229.404	21.5808
231.213	19.7651
233.022	18.1157
234.83	18.026
236.638	17.7305
238.448	16.4751
240.255	14.9913
242.062	13.9008
243.868	13.3588
245.675	12.3675
247.48	11.7123
249.286	11.2691
251.091	9.92756
252.896	8.26676
254.702	9.086
256.506	9.15351
258.31	8.81862
260.113	8.55631
261.916	8.03271
263.719	7.8704
265.521	8.95541
267.323	8.46273
269.125	7.40617
270.926	7.39756
272.727	7.73398
274.527	7.65282
276.328	7.34614
278.127	7.35913
279.927	7.188
281.726	7.08789
283.525	5.42641
285.323	5.60101
287.121	6.47668
288.919	6.88754
290.716	6.97714
292.513	7.48769
294.31	8.3683
296.104	8.88902
297.9	8.81259
299.696	9.0235
301.491	7.21971
303.286	7.10626
305.081	6.69272
306.875	7.44034
308.669	7.54827
310.463	8.44126
312.256	8.06467
314.047	7.309
315.839	8.49807
317.631	9.26623
319.423	9.51469
321.215	10.1891
323.006	12.2829
324.794	13.7017
326.585	14.2848
328.375	14.8393
330.165	16.1109
331.954	16.7415
333.741	18.0758
335.53	18.6424
337.318	19.4414
339.106	19.9931
340.894	20.5109
342.679	21.4913
344.466	21.6227
346.253	21.8387
348.039	21.5191
349.823	21.4159
351.608	20.2694
353.393	20.135
355.176	18.433
356.961	17.1388
358.745	16.4918
360.529	17.3591
362.31	17.5576
364.093	16.3088
365.876	15.4747
367.657	15.0801
369.439	14.4779
371.221	14.1624
373	13.6396
374.781	14.5884
376.56	14.6631
378.34	13.5581
380.12	13.316
381.898	13.7356
383.677	13.6966
385.456	12.3016
387.233	11.0652
389.011	9.66451
390.787	8.64764
392.565	8.2888
394.34	7.61773
396.117	6.54845
397.894	5.58697
399.668	4.87452
401.444	5.13771
403.217	5.56238
404.993	7.00886
406.766	8.03314
408.54	8.98584
410.312	9.63225
412.086	10.8738
413.858	11.5554
415.631	11.9149
417.402	12.6059
419.174	12.5597
420.944	12.3999
422.716	13.7933
424.486	13.7824
426.257	14.0038
428.025	13.0734
429.794	12.7836
431.564	10.9109
433.332	9.5656
435.101	8.39377
436.868	7.27603
438.637	6.57349
440.403	7.53324
442.169	9.43231
443.937	10.8135
445.703	15.3502
447.468	18.8138
449.234	22.0105
450.999	24.7599
452.765	26.7996
454.528	30.1378
456.292	33.6181
458.057	36.8019
459.819	39.8251
461.582	42.4598
463.344	45.5273
465.107	47.422
466.868	48.7612
468.629	50.8069
470.392	52.126
472.152	52.9151
473.912	53.7967
475.672	54.9494
477.433	56.1817
479.192	57.2925
480.951	59.3487
482.709	61.5982
484.469	60.9602
486.226	62.7024
487.984	63.7472
489.74	65.1071
491.499	65.0964
493.255	65.3697
495.011	64.016
496.767	63.1616
498.522	62.2218
500.277	61.1606
502.033	59.4171
503.788	56.4657
505.541	54.7561
507.295	51.0222
509.048	48.5575
510.801	45.588
512.553	42.6372
514.308	38.7537
516.06	34.2789
517.811	32.0528
519.562	28.0033
521.313	26.3121
523.063	24.8932
524.814	25.7465
526.563	25.1218
528.313	24.8715
530.062	24.354
531.811	23.6357
533.559	23.2658
535.308	22.395
537.055	22.0826
538.803	21.1655
540.55	19.8354
542.297	19.3348
544.043	18.1243
545.789	18.4435
547.535	18.1382
549.281	18.1936
551.026	18.6054
552.771	17.7153
554.515	17.7743
556.259	18.6123
558.003	19.272
559.747	20.0451
561.49	20.3145
563.233	21.2939
564.975	23.462
566.717	24.1118
568.459	24.5062
570.2	24.1936
571.942	23.7828
573.68	24.7126
575.421	23.8836
577.161	24.2761
578.901	23.9596
580.64	23.8265
582.379	22.6411
584.118	22.0889
585.855	21.3087
587.593	20.1555
589.331	19.5507
591.068	20.3803
592.805	20.0731
594.54	18.5678
596.277	19.3455
598.013	17.7403
599.749	17.0856
601.484	14.8098
603.217	13.4845
604.952	12.6604
606.687	12.1409
608.421	11.8855
610.153	11.351
611.886	9.78479
613.619	7.71173
615.35	6.29719
617.083	5.53176
618.815	4.61472
620.547	4.32173
622.276	4.3247
624.008	3.95813
625.738	3.29301
627.467	3.78391
629.197	3.57829
630.927	4.63007
632.655	5.83073
634.384	4.87915
636.113	5.68602
637.839	5.27187
639.568	5.38586
641.293	6.19304
643.021	6.89187
644.748	7.90456
646.473	8.65631
648.2	8.32642
649.924	8.65678
651.65	8.71346
653.376	7.95601
655.099	7.98828
656.824	8.3714
658.546	8.49444
660.271	7.47961
661.993	6.60541
663.716	6.72356
665.438	6.33702
667.161	6.9485
668.881	6.59899
670.604	7.53003
672.324	8.14293
674.045	9.27021
675.765	10.4149
677.486	10.5912
679.204	10.1772
680.925	10.7524
682.643	12.0973
684.361	11.7524
686.08	12.7407
687.797	14.2019
689.516	15.5217
691.232	17.0333
692.95	18.2257
694.666	17.5859
696.382	18.2211
698.099	16.7514
699.813	17.5243
701.528	17.7134
703.244	18.4374
704.958	18.6267
706.673	19.0255
708.387	19.5267
710.099	21.4428
711.814	23.1233
713.526	24.2689
715.238	25.0653
716.949	26.6279
718.663	28.1184
720.374	28.5378
722.084	29.9669
723.796	31.3171
725.506	33.3502
727.216	34.2033
728.925	34.2736
730.636	35.8567
732.345	36.7005
734.053	37.6173
735.761	38.3868
737.471	39.944
739.178	42.1884
740.885	43.3556
742.592	45.1029
744.298	46.9668
746.006	47.7552
747.712	50.2887
749.417	52.2944
751.122	55.0068
752.827	56.7829
754.532	58.8465
756.236	60.7606
757.942	62.2658
759.645	65.1374
761.348	66.3253
763.051	68.4495
764.753	70.4247
766.456	71.426
768.158	72.3995
769.859	73.361
771.56	73.9287
773.261	74.997
774.964	73.7127
776.664	72.3254
778.364	71.3061
780.064	70.3485
781.763	70.0559
783.462	69.1763
785.16	69.7319
786.859	68.6396
788.557	68.0179
790.255	68.7106
791.952	69.5586
793.649	69.5624
795.346	70.8271
797.042	70.1094
798.738	69.262
800.434	68.8765
802.127	68.3083
803.823	68.7007
805.517	67.6938
807.212	67.4333
808.906	67.74
810.6	68.0659
812.293	69.1205
813.987	70.1483
815.68	72.4208
817.372	73.0597
819.064	74.896
820.754	76.3579
822.446	79.2748
824.137	82.352
825.828	84.8635
827.519	87.0214
829.209	88.9317
830.897	90.1958
832.587	92.7471
834.276	94.2413
835.966	96.0322
837.654	97.3718
839.341	99.5646
841.029	100.263
842.717	101.809
844.404	103.244
846.091	102.912
847.776	103.165
849.463	101.689
851.149	100.768
852.833	99.7665
854.519	98.1739
856.204	95.7707
857.889	93.9768
859.572	91.3471
861.256	89.401
862.94	87.9564
864.622	85.8492
866.305	83.7955
867.988	80.7951
869.669	77.4093
871.351	74.9006
873.033	73.1638
874.713	70.9293
876.395	68.201
878.074	65.1255
879.755	63.4003
881.435	59.9677
883.114	57.3529
884.794	56.4517
886.471	55.5362
888.15	54.5871
889.829	52.5631
891.506	51.7834
893.184	52.1243
894.861	52.7214
896.538	52.1519
898.214	51.9654
899.891	52.8239
901.566	54.4831
903.242	57.0239
904.916	59.648
906.592	62.4516
908.266	65.3926
909.941	68.1597
911.614	70.3667
913.288	73.3665
914.961	75.3038
916.635	77.5651
918.306	79.6326
919.979	81.1248
921.651	82.5933
923.321	83.7609
924.994	83.7296
926.664	83.7437
928.336	83.7656
930.005	82.6085
931.674	82.0834
933.345	81.2034
935.014	79.9835
936.682	78.2154
938.352	76.594
940.019	75.0772
941.687	72.5352
943.356	71.1363
945.022	69.0777
946.689	66.4284
948.357	64.0539
950.022	61.7319
951.688	59.8903
953.355	57.5725
955.02	55.4882
956.684	52.4355
958.348	48.5306
960.014	45.6103
961.678	42.8911
963.341	41.2252
965.004	38.893
966.669	39.3039
968.331	39.6034
969.993	38.4663
971.655	37.4396
973.316	37.7078
974.979	37.8159
976.64	38.357
978.3	38.7282
979.961	39.0812
981.62	40.6772
983.28	42.764
984.941	44.6728
986.6	46.232
988.259	46.9281
989.917	47.4995
991.575	48.7387
993.233	49.8708
994.89	50.4176
996.547	50.7901
998.204	50.7388
999.86	51.7086
1001.52	53.1042
1003.17	53.3708
1004.83	53.1936
1006.49	55.1371
1008.14	56.7777
1009.79	58.8502
1011.45	60.7633
1013.1	62.2844
1014.76	62.9647
1016.41	62.2724
1018.06	60.4455
1019.72	59.3362
1021.37	59.939
1023.02	60.1689
1024.67	59.7672
1026.32	60.4804
1027.97	61.077
1029.62	61.9769
1031.27	62.791
1032.92	65.2049
1034.57	66.5451
1036.22	66.4076
1037.87	67.2362
1039.52	68.299
1041.17	69.9917
1042.82	70.9524
1044.47	73.7273
1046.11	75.5044
1047.76	77.7086
1049.41	80.4071
1051.06	81.3633
1052.7	82.3537
1054.35	83.4613
1055.99	84.2781
1057.64	83.3346
1059.28	83.998
1060.93	84.5085
1062.57	84.168
1064.22	84.2714
1065.86	84.5004
1067.5	83.3773
1069.15	83.1136
1070.79	82.9119
1072.43	82.9431
1074.08	84.1788
1075.72	84.2039
1077.36	83.8841
1079	83.0968
1080.64	83.6338
1082.28	84.1078
1083.92	84.3695
1085.56	83.7386
1087.2	83.4088
1088.84	84.8964
1090.48	83.8034
1092.12	82.7375
1093.76	82.2093
1095.39	80.7308
1097.03	79.1056
1098.67	77.5262
1100.31	77.4666
1101.94	79.0792
1103.58	81.1121
1105.22	81.9969
1106.85	82.8822
1108.49	83.8336
1110.12	85.595
1111.76	85.5023
1113.39	84.8295
1115.03	85.8296
1116.66	85.2053
1118.29	83.806
1119.93	83.7799
1121.56	84.1651
1123.19	82.9368
1124.82	82.054
1126.46	82.5645
1128.09	81.1663
1129.72	80.9386
1131.35	79.6804
1132.98	79.2243
1134.61	77.9593
1136.24	76.3969
1137.87	74.5239
1139.5	71.8327
1141.13	69.533
1142.76	67.2383
1144.39	63.715
1146.01	61.1816
1147.64	58.0792
1149.27	55.6606
1150.9	52.2417
1152.53	48.8958
1154.15	45.2465
1155.78	41.9421
1157.4	38.4359
1159.03	34.585
1160.65	30.8828
1162.28	28.5139
1163.9	25.6822
1165.53	22.0412
1167.15	18.9557
1168.78	17.0284
1170.4	16.2175
1172.02	13.9624
1173.65	13.7196
1175.27	13.0344
1176.89	12.1752
1178.51	11.9123
1180.14	10.7579
1181.76	10.6985
1183.38	10.7181
1185	10.7205
1186.62	10.2862
1188.24	9.85845
1189.86	10.4541
1191.48	11.3383
1193.1	11.6302
1194.71	12.0474
1196.33	14.8592
1197.95	15.8999
1199.57	17.8436
1201.19	20.0487
1202.8	22.3338
1204.42	23.9462
1206.04	27.0991
1207.65	30.341
1209.27	32.7407
1210.88	36.3724
1212.5	39.0293
1214.12	42.5816
1215.73	44.816
1217.35	46.4514
1218.96	48.2348
1220.57	49.9105
1222.19	51.9762
1223.8	54.5146
1225.41	56.4277
1227.03	58.0326
1228.64	59.4139
1230.25	61.0652
1231.86	62.1668
1233.47	64.2562
1235.08	65.5658
1236.69	66.4744
1238.31	68.6199
1239.92	68.9442
1241.52	70.1039
1243.13	70.2803
1244.74	70.2046
1246.35	70.3358
1247.96	71.3578
1249.57	72.1677
1251.18	71.4729
1252.78	70.2496
1254.39	70.3409
1256	68.796
1257.6	68.3343
1259.21	67.2555
1260.82	66.4846
1262.42	66.3582
1264.03	64.9153
1265.63	63.7366
1267.24	62.6859
1268.84	62.7947
1270.45	63.5123
1272.05	63.2554
1273.65	63.1444
1275.26	61.8776
1276.86	63.0463
1278.46	62.6021
1280.06	63.6337
1281.67	62.7951
1283.27	64.3584
1284.87	65.654
1286.47	66.6434
1288.07	68.4587
1289.67	68.9965
1291.27	71.1996
1292.87	72.0373
1294.47	74.5777
1296.07	76.1814
1297.67	77.5829
1299.27	79.8266
1300.87	82.3878
1302.47	85.0733
1304.06	87.8054
1305.66	91.4041
1307.26	94.6933
1308.85	98.9327
1310.45	102.574
1312.05	106.173
1313.64	109.088
1315.24	112.426
1316.83	115.192
1318.43	117.64
1320.02	118.204
1321.62	119.461
1323.21	120.369
1324.8	122.371
1326.4	124.532
1327.99	124.889
1329.59	125.219
1331.18	125.518
1332.77	126.063
1334.36	126.6
1335.95	126.958
1337.54	127.386
1339.14	126.842
1340.73	126.855
1342.32	126.064
1343.91	125.353
1345.5	125.537
1347.09	125.715
1348.67	125.13
1350.26	123.925
1351.85	122.263
1353.44	119.857
1355.03	117.285
1356.62	116.466
1358.2	114.839
1359.79	112.798
1361.38	110.913
1362.96	109.293
1364.55	107.188
1366.14	105.097
1367.72	104.004
1369.31	102.853
1370.89	101.324
1372.48	99.2335
1374.06	98.2993
1375.64	96.229
1377.23	95.0719
1378.81	95.4464
1380.39	94.8465
1381.98	94.8546
1383.56	94.4727
1385.14	95.051
1386.72	94.299
1388.3	93.4738
1389.89	92.6025
1391.47	91.3095
1393.05	90.0711
1394.63	88.9931
1396.21	86.9975
1397.79	84.5534
1399.37	83.6063
1400.95	82.2576
1402.52	81.8568
1404.1	81.7937
1405.68	81.2792
1407.26	79.5865
1408.84	78.968
1410.42	78.3927
1411.99	77.9713
1413.57	77.8076
1415.15	77.8864
1416.72	77.8001
1418.3	78.5306
1419.87	80.2523
1421.45	81.9398
1423.02	83.8947
1424.6	85.0915
1426.17	87.0563
1427.75	88.8887
1429.32	92.0947
1430.89	94.9457
1432.47	97.1902
1434.04	100.186
1435.61	102.56
1437.18	104.896
1438.76	107.01
1440.33	108.82
1441.9	110.124
1443.47	111.772
1445.04	112.87
1446.61	114.463
1448.18	115.825
1449.75	115.419
1451.32	115.086
1452.89	114.542
1454.46	114.822
1456.03	114.978
1457.6	113.863
1459.16	111.667
1460.73	109.698
1462.3	106.895
1463.87	103.447
1465.43	99.2907
1467	95.14
1468.56	91.437
1470.13	86.6191
1471.7	81.8692
1473.26	76.7804
1474.83	71.3877
1476.39	66.0088
1477.96	60.9479
1479.52	55.86
1481.08	52.5621
1482.65	47.6967
1484.21	42.2072
1485.77	36.477
1487.34	32.1634
1488.9	28.0835
1490.46	24.5621
1492.02	21.1439
1493.58	18.1539
1495.15	16.3058
1496.71	14.9713
1498.27	14.4681
1499.83	13.7424
1501.39	12.1042
1502.95	11.9215
1504.51	11.9509
1506.07	11.8738
1507.63	12.3461
1509.18	12.2606
1510.74	12.3704
1512.3	13.1732
1513.86	12.8127
1515.41	13.3272
1516.97	14.5847
1518.53	15.3105
1520.08	16.1993
1521.64	17.4225
1523.2	19.5057
1524.75	21.249
1526.31	22.0328
1527.86	22.4652
1529.42	23.8891
1530.97	25.5348
1532.52	27.4825
1534.08	28.2876
1535.63	28.1808
1537.19	29.0257
1538.74	30.2328
1540.29	30.9452
1541.84	31.7815
1543.4	32.0401
1544.95	32.1292
1546.5	33.208
1548.05	33.5755
1549.6	34.1172
1551.15	35.4811
1552.7	36.5538
1554.25	37.9663
1555.8	39.3433
1557.35	42.0295
1558.9	42.9014
1560.45	43.8221
1562	44.8691
1563.54	46.4058
1565.09	48.3035
1566.64	49.5649
1568.19	51.2629
1569.73	53.3642
1571.28	55.4814
1572.83	57.649
1574.37	59.3139
1575.92	61.4209
1577.47	62.598
1579.01	63.7531
1580.56	66.7781
1582.1	68.3606
1583.64	70.1589
1585.19	71.4247
1586.73	72.7
1588.28	73.1898
1589.82	74.1879
1591.36	74.6178
1592.9	75.4678
1594.45	76.3722
1595.99	76.72
1597.53	76.817
1599.07	77.5203
1600.61	77.4594
1602.15	77.0222
1603.69	76.6428
1605.23	76.2624
1606.77	75.747
1608.31	75.3678
1609.85	74.2653
1611.39	73.0571
1612.93	71.2063
1614.47	70.9969
1616.01	70.6625
1617.55	68.2991
1619.08	67.5559
1620.62	66.5717
1622.16	66.7318
1623.7	67.6071
1625.23	67.9627
1626.77	68.5741
1628.3	69.3933
1629.84	70.4285
1631.37	71.8395
1632.91	72.3938
1634.44	73.4495
1635.98	75.1356
1637.51	76.935
1639.05	78.237
1640.58	78.9834
1642.11	79.986
1643.65	81.3147
1645.18	83.2069
1646.71	85.1074
1648.24	85.7877
1649.78	86.9431
1651.31	88.009
1652.84	88.3222
1654.37	88.7528
1655.9	89.2569
1657.43	89.4385
1658.96	88.2622
1660.49	86.8099
1662.02	85.8274
1663.55	84.595
1665.08	83.2874
1666.61	81.8608
1668.14	80.8899
1669.66	78.5913
1671.19	76.9123
1672.72	75.1356
1674.25	73.3728
1675.77	70.8745
1677.3	67.6761
1678.83	65.1478
1680.35	61.6552
1681.88	58.3866
1683.4	55.2851
1684.93	52.409
1686.45	48.8224
1687.98	47.0075
1689.5	44.2492
1691.03	42.6278
1692.55	39.335
1694.07	36.6311
1695.6	35.0473
1697.12	32.9563
1698.64	31.6969
1700.17	30.3547
1701.69	28.799
1703.21	27.8574
1704.73	26.0667
1706.25	24.8949
1707.77	22.7641
1709.29	20.5761
1710.81	19.4578
1712.33	18.9279
1713.85	17.4799
1715.37	16.3167
1716.89	14.8823
1718.41	14.969
1719.93	13.672
1721.45	12.3588
1722.97	11.9775
1724.49	10.6843
1726	9.92058
1727.52	8.79583
1729.04	7.95399
1730.55	7.59977
1732.07	6.73456
1733.59	6.81766
1735.1	6.66162
1736.62	6.99242
1738.13	7.43551
1739.65	7.31597
1741.16	7.6428
1742.68	7.06805
1744.19	6.97221
1745.7	5.8201
1747.22	5.83571
1748.73	5.60262
1750.24	5.21156
1751.76	4.37273
1753.27	4.61338
1754.78	4.73845
1756.29	4.82847
1757.8	4.87792
1759.31	4.97397
1760.83	4.92116
1762.34	4.56073
1763.85	5.10589
1765.36	4.10697
1766.87	4.08888
1768.38	3.67135
1769.89	4.51787
1771.39	4.46594
1772.9	5.09015
1774.41	5.32811
1775.92	4.9403
1777.43	4.60269
1778.94	4.65481
1780.44	3.66369
1781.95	3.64153
1783.46	3.00808
1784.96	3.05442
1786.47	3.29962
1787.97	3.17154
1789.48	3.38642
1790.99	2.77833
1792.49	2.38511
1794	1.78086
1795.5	0.567555
1797	0.670428
1798.51	1.27746
1800.01	0.931402
1801.51	1.03314
1803.02	1.535
1804.52	1.81263
1806.02	2.26704
1807.53	2.69064
1809.03	3.61379
1810.53	3.23169
1812.03	3.68553
1813.53	3.23828
1815.03	3.43151
1816.53	3.85595
1818.03	3.49871
1819.53	3.07128
1821.03	3.6094
1822.53	4.23889
1824.03	4.09133
1825.53	3.87684
1827.03	4.39055
1828.53	5.35589
1830.02	5.36935
1831.52	5.45105
1833.02	5.3999
1834.52	5.47145
1836.01	5.73944
1837.51	5.99098
1839.01	6.28852
1840.5	6.40334
1842	6.84263
1843.49	6.93878
1844.99	7.25906
1846.48	7.51419
1847.98	8.05581
1849.47	7.1452
1850.97	7.82207
1852.46	7.21337
1853.95	7.12986
1855.45	6.53818
1856.94	6.01126
1858.43	4.92732
1859.93	5.03422
1861.42	4.72873
1862.91	4.26809
1864.4	3.65297
1865.89	2.65411
1867.38	2.55206
1868.87	2.16465
1870.36	2.54801
1871.85	3.1055
1873.34	3.2473
1874.83	2.95835
1876.32	2.72557
1877.81	2.22715
1879.3	2.38804
1880.79	2.38623
1882.28	2.14274
1882.52	2.31782
1884.02	2.63388
1885.51	2.91655
1887.01	2.81611
1888.5	3.03586
1889.99	2.91497
1891.49	2.10136
1892.98	2.85352
1894.47	3.52432
1895.97	3.46643
1897.46	2.8296
1898.95	2.92345
1900.44	4.19365
1901.93	4.59366
1903.42	4.55119
1904.91	4.10893
1906.4	4.64758
1907.89	4.07635
1909.38	4.29994
1910.87	4.47023
1912.36	4.14165
1913.85	3.73826
1915.34	3.8116
1916.83	4.00047
1918.32	4.53348
1919.8	4.28766
1921.29	4.39316
1922.78	3.93789
1924.27	4.46642
1925.75	3.94244
1927.24	4.00253
1928.73	4.0298
1930.21	3.78961
1931.7	4.10993
1933.18	4.65821
1934.67	3.91813
1936.15	3.7264
1937.64	3.82298
1939.12	4.12814
1940.61	4.34691
1942.09	3.85795
1943.57	3.54402
1945.06	3.64002
1946.54	3.31965
1948.02	2.91997
1949.51	2.80801
1950.99	2.78425
1952.47	3.56173
1953.95	3.38019
1955.43	3.52932
1956.91	3.58999
1958.4	3.58428
1959.88	2.89546
1961.36	2.90378
1962.84	2.9945
1964.32	2.85236
1965.8	2.69438
1967.27	2.80724
1968.75	1.93848
1970.23	1.57063
1971.71	1.78266
1973.19	2.40969
1974.67	2.70712
1976.14	2.62394
1977.62	2.07767
1979.1	2.26968
1980.58	2.38205
1982.05	1.6019
1983.53	2.02567
1985	2.3543
1986.48	2.22967
1987.95	2.98282
1989.43	3.82928
1990.9	3.85378
1992.38	4.02666
1993.85	4.27737
1995.33	4.48606
1996.8	4.34253
1998.27	4.70294
1999.75	4.8433
2001.22	4.98974
2002.69	5.38034
2004.16	5.23386
2005.64	5.21004
2007.11	5.60784
2008.58	6.00004
2010.05	5.92092
2011.52	6.84026
2012.99	6.88674
2014.46	6.44594
2015.93	6.40865
2017.4	6.36601
2018.87	6.82282
2020.34	6.59162
2021.81	6.6828
2023.28	6.73741
2024.75	6.90169
2026.22	7.31134
2027.69	6.59396
2029.15	6.39006
2030.62	6.22312
2032.09	6.14603
2033.56	6.253
2035.02	6.36528
2036.49	5.98361
2037.96	5.91115
2039.42	6.69843
2040.89	6.5943
2042.35	7.08752
2043.82	7.81239
2045.28	8.65056
2046.75	8.26984
2048.21	8.07653
2049.67	7.83936
2051.14	7.50499
2052.6	7.98071
2054.07	8.05894
2055.53	8.37617
2056.99	8.44965
2058.45	8.56973
2059.92	8.06758
2061.38	8.14422
2062.84	7.44309
2064.3	7.52056
2065.76	7.95588
2067.22	8.27394
2068.68	8.03949
2070.14	8.3175
2071.6	8.19203
2073.06	8.29104
2074.52	8.56687
2075.98	8.36295
2077.44	8.46292
2078.9	8.33482
2080.36	8.5776
2081.82	8.43209
2083.27	7.93318
2084.73	9.08398
2086.19	8.38888
2087.65	8.03521
2089.1	8.03947
2090.56	7.94186
2092.02	8.13724
2093.47	8.0085
2094.93	7.75377
2096.38	7.20164
2097.84	6.67653
2099.29	6.44469
2100.75	5.31399
2102.2	5.82855
2103.66	6.15903
2105.11	5.30493
2106.56	4.85732
2108.02	4.21489
2109.47	4.1914
2110.92	4.00874
2112.38	3.7244
2113.83	3.67654
2115.28	4.28257
2116.73	3.73092
2118.18	3.40255
2119.63	2.68284
2121.09	2.57717
2122.54	2.68072
2123.99	3.08697
2125.44	2.64525
2126.89	2.41762
2128.34	1.32663
2129.79	1.06154
2131.23	1.42253
2132.68	1.50529
2134.13	2.02106
2135.58	1.99413
2137.03	2.66888
2138.48	2.51086
2139.92	2.62799
2141.37	2.51586
2142.82	2.71909
2144.27	2.62036
2145.71	3.22829
2147.16	3.67896
2148.6	3.91778
2150.05	4.16909
2151.49	4.04045
2152.94	4.69019
2154.38	5.00506
2155.83	4.64651
2157.27	4.99299
2158.72	4.51191
2160.16	4.50457
2161.6	4.45777
2163.05	4.77869
2164.49	4.42194
2165.93	4.35923
2167.38	4.5282
2168.82	4.21644
2170.26	4.19822
2171.7	4.21506
2173.14	3.80449
2174.58	4.2626
2176.03	3.17782
2177.47	2.03585
2178.91	2.25927
2180.35	2.44551
2181.79	3.03935
2183.23	2.89192
2184.67	3.66334
2186.1	4.41307
2187.54	4.0333
2188.98	4.0212
2190.42	4.35269
2191.86	4.32194
2193.3	3.88611
2194.73	3.68728
2196.17	3.16404
2197.61	3.3628
2199.05	3.3248
2200.48	2.52355
2201.92	3.20531
2203.35	3.47155
2204.79	3.65827
2206.22	3.92982
2207.66	4.19717
2209.1	4.61268
2210.53	4.68456
2211.97	5.00587
2213.4	4.94012
2214.83	4.93962
2216.27	5.09264
2217.7	5.60309
2219.13	4.94232
2220.57	4.76113
2222	4.87345
2223.43	4.9925
2224.86	5.25118
2226.29	5.06672
2227.72	4.67209
2229.16	4.90719
2230.59	4.98894
2232.02	4.6294
2233.45	4.37381
2234.88	4.84295
2236.31	4.39748
2237.74	4.62975
2239.17	4.75292
2240.6	4.27705
2242.03	4.38256
2243.45	3.69917
2244.88	3.53398
2246.31	3.17905
2247.74	2.79595
2249.17	2.59613
2250.59	2.79379
2252.02	2.69781
2253.45	3.12146
2254.87	3.31887
2256.3	3.67585
2257.73	4.11732
2259.15	3.82525
2260.58	3.62908
2262	3.1996
2263.43	3.15658
2264.85	3.3792
2266.28	3.28709
2267.7	4.11308
2269.13	3.93591
2270.55	3.44268
2271.97	4.23769
2273.4	5.14047
2274.82	5.4943
2276.24	5.5697
2277.67	5.58725
2279.09	5.46626
2280.51	5.35902
2281.93	4.8369
2283.35	4.92527
2284.77	5.08295
2286.2	4.91504
2287.62	5.25066
2289.04	5.24299
2290.46	4.41984
2291.88	4.97174
2293.3	5.10216
2294.72	4.54297
2296.13	4.65871
2297.55	4.72552
2298.97	5.10337
2300.39	5.53011
2301.81	5.74735
2303.23	5.83331
2304.64	6.212
2306.06	6.00707
2307.48	5.87078
2308.89	5.62426
2310.31	5.76393
2311.73	4.77241
2313.14	4.55453
2314.56	4.33047
2315.98	3.97437
2317.39	3.94255
2318.81	4.33851
2320.22	4.35947
2321.64	4.79951
2323.05	5.61295
2324.46	6.44532
2325.88	6.2625
2327.29	6.28223
2328.7	6.41261
2330.12	6.00503
2331.53	6.16184
2332.94	6.50009
2334.35	6.5358
2335.77	6.45394
2337.18	5.59109
2338.59	6.09295
2340	5.34317
2341.41	6.14361
2342.82	5.86908
2344.23	4.94123
2345.64	4.88507
2347.05	4.29065
2348.46	4.13961
2349.87	4.27602
2351.28	4.2502
2352.69	3.63544
2354.1	3.80831
2355.51	3.48813
2356.91	3.50091
2358.32	3.44243
2359.73	2.74893
2361.14	2.46093
2362.54	2.94331
2363.95	3.2783
2365.36	3.52641
2366.76	4.03434
2368.17	3.96121
2369.58	3.74098
2370.98	3.18329
2372.39	3.08163
2373.79	2.20274
2375.2	1.85132
2376.6	1.0473
2378	1.23468
2379.41	0.869572
2380.81	0.989634
2382.22	0.940044
2383.62	1.12841
2385.02	1.6203
2386.43	1.21761
2387.83	1.18589
2389.23	0.711693
2390.63	0.424691
2392.03	0.502982
2393.44	0.404509
2394.84	0.222304
2396.24	0.154359
2397.64	0.509704
2399.04	0.644459
2400.44	1.02382
2401.84	1.31282
2403.24	1.75548
2404.64	1.76529
2406.04	1.7936
2407.44	2.25754
2408.84	2.60146
2410.23	3.05286
2411.63	4.05352
2413.03	4.04869
2414.43	5.03273
2415.83	5.94479
2417.22	6.60821
2418.62	7.80176
2420.02	7.99084
2421.41	7.79528
2422.81	8.11557
2424.21	9.28057
2425.6	10.0522
2427	10.4987
2428.39	10.6801
2429.79	10.8816
2431.18	11.6512
2432.58	11.6574
2433.97	11.9885
2435.36	11.9207
2436.76	12.0376
2438.15	11.8651
2439.54	12.173
2440.94	11.6627
2442.33	11.1417
2443.72	10.3616
2445.12	10.1255
2446.51	9.52462
2447.9	9.18659
2449.29	8.9996
2450.68	7.80878
2452.07	7.4383
2453.46	6.50581
2454.85	6.17075
2456.24	4.68563
2457.64	4.03048
2459.02	4.12688
2460.41	4.26798
2461.8	3.74411
2463.19	3.99565
2464.58	4.12289
2465.97	4.05706
2467.36	3.79723
2468.75	3.74446
2470.13	3.97225
2471.52	4.24894
2472.91	4.27741
2474.3	3.78896
2475.68	3.6624
2477.07	4.64566
2478.45	4.70653
2479.84	5.05317
2481.23	5.37067
2482.61	5.52171
2484	5.81691
2485.38	5.46083
2486.77	5.67652
2488.15	5.55908
2489.54	4.82132
2490.92	4.82437
2492.3	5.25079
2493.69	5.0273
2495.07	4.62277
2496.45	4.40144
2497.84	4.36521
2499.22	4.21877
2500.6	4.05263
2501.98	4.19691
2503.36	4.23871
2504.75	4.08395
2506.13	3.61436
2507.51	3.54028
2508.89	3.67648
2510.27	2.69888
2511.65	2.66028
2513.03	2.82957
2514.41	2.68354
2515.79	2.69978
2517.17	2.59959
2518.55	3.0763
2519.93	2.63903
2521.3	3.25425
2522.68	3.31346
2524.06	3.1931
2525.44	2.80298
2526.82	3.04328
2528.19	3.25956
2529.57	3.28572
2530.95	2.96314
2532.32	3.74
2533.7	3.53539
2535.08	4.01538
2536.45	4.48163
2537.83	5.0713
2539.2	5.50358
2540.58	5.72006
2541.95	5.27515
2543.33	5.06079
2544.7	5.62931
2546.08	6.12181
2547.45	5.72794
2548.82	5.59182
2550.2	5.56436
2551.57	5.29759
2552.94	4.96491
2554.32	4.47307
2555.69	4.31493
2557.06	3.57961
2558.43	3.21776
2559.8	3.29567
2561.18	2.81805
2562.55	2.7051
2563.92	2.91967
2565.29	3.07068
2566.66	3.16267
2568.03	3.35569
2569.4	3.41798
2570.77	3.83549
2572.14	3.89254
2573.51	3.82391
2574.88	4.03021
2576.25	4.02367
2577.61	3.79715
2578.98	3.45202
2580.35	3.52797
2581.72	3.43045
2583.09	3.53034
2584.45	3.57082
2585.82	3.21616
2587.19	2.93464
2588.55	2.86269
2589.92	3.08038
2591.29	2.18159
2592.65	1.45315
2594.02	1.78773
2595.38	2.33612
2596.75	2.35616
2598.11	2.3016
2599.48	2.02493
2600.84	2.79453
2602.21	2.92172
2603.57	3.09452
2604.93	3.08679
2606.3	2.88297
2607.66	3.03313
2609.02	3.05619
2610.39	2.57966
2611.75	2.8087
2613.11	3.20962
2614.47	2.93053
2615.83	2.6914
2617.19	2.3664
2618.56	1.8285
2619.92	2.01749
2621.28	1.25386
2622.64	0.877251
2624	0.734827
2625.36	1.02076
2626.72	1.08067
2628.08	1.0079
2629.44	0.935953
2630.8	1.33703
2632.15	1.19894
2633.51	1.53622
2634.87	1.57539
2636.23	1.84169
2637.59	2.26002
2638.94	2.55396
2640.3	2.5625
2641.66	2.56096
2643.02	2.26052
2644.37	2.10258
2645.73	2.58708
2647.09	2.70405
2648.44	2.52877
2649.8	2.58853
2651.15	2.64779
2652.51	1.90494
2653.86	2.10708
2655.22	2.42691
2656.57	3.07264
2657.93	3.33098
2659.28	2.95804
2660.63	3.77379
2661.99	4.57455
2663.34	4.35287
2664.69	4.43654
2666.05	4.58186
2667.4	5.16749
2668.75	6.33474
2670.1	6.32844
2671.45	6.57529
2672.81	6.55134
2674.16	6.45953
2675.51	6.89626
2676.86	6.92266
2678.21	6.60626
2679.56	7.0394
2680.91	6.71177
2682.26	6.20087
2683.61	6.18733
2684.96	6.15246
2686.31	5.71349
2687.66	5.62995
2689	5.13322
2690.35	5.59301
2691.7	5.65163
2693.05	5.82551
2694.4	5.53551
2695.74	5.55591
2697.09	5.81605
2698.44	5.78627
2699.79	5.90251
2701.13	6.09706
2702.48	6.20675
2703.83	7.07665
2705.17	7.61947
2706.52	7.44589
2707.86	7.71178
2709.21	7.80125
2710.55	7.70014
2711.9	8.25873
2713.24	8.28087
2714.58	8.64024
2715.93	9.01368
2717.27	9.11945
2718.62	9.6087
2719.96	9.65871
2721.3	10.1335
2722.65	10.8649
2723.99	11.4292
2725.33	12.0133
2726.67	12.141
2728.01	12.6493
2729.35	12.4159
2730.7	12.6417
2732.04	13.0333
2733.38	13.1336
2734.72	13.952
2736.06	14.0988
2737.4	12.8052
2738.74	12.5639
2740.08	12.0841
2741.42	12.1484
2742.76	12.4028
2744.1	12.0606
2745.43	10.9042
2746.77	10.1102
2748.11	9.28325
2749.45	8.42195
2750.79	7.89108
2752.12	7.01797
2753.46	6.56641
2754.8	6.03376
2756.14	5.6814
2757.47	5.35052
2758.81	4.58887
2760.14	4.23434
2761.48	3.13822
2762.81	3.081
2764.15	3.12752
2765.49	2.25771
2766.82	1.71616
2768.16	1.28706
2769.49	1.05896
2770.82	1.13785
2772.16	0.618517
2773.49	0.192771
2774.82	0.454656
2776.16	0.277819
2777.49	0.523973
2778.82	-0.0541421
2780.16	-0.152219
2781.49	0.307002
2782.82	-0.277001
2784.15	-0.419211
2785.48	-0.406268
2786.82	-0.738612
2788.15	-0.94565
2789.48	-0.601814
2790.81	-0.798535
2792.14	-0.568489
2793.47	-0.594837
2794.8	-0.487988
2796.13	-0.313708
2797.46	0.609755
2798.79	0.651853
2800.12	1.31322
2801.44	1.74839
2802.77	1.80994
2804.1	1.82845
2805.43	2.85239
2806.76	3.06071
2808.08	3.57941
2809.41	3.40579
2810.74	3.2739
2812.07	3.40141
2813.39	3.93923
2814.72	4.69858
2816.05	5.37311
2817.37	6.43429
2818.7	7.01048
2820.02	8.26251
2821.35	8.70995
2822.67	10.2222
2824	11.5311
2825.32	13.003
2826.65	14.7716
2827.97	16.8897
2829.3	18.8549
2830.62	20.7665
2831.94	22.0303
2833.26	24.8227
2834.59	27.4446
2835.91	29.6618
2837.23	32.7174
2838.56	35.7404
2839.88	38.9953
2841.2	43.3767
2842.52	47.4979
2843.84	51.5657
2845.16	56.2158
2846.48	61.3633
2847.8	66.3486
2849.12	71.8637
2850.45	78.4156
2851.77	84.0746
2853.08	90.1816
2854.4	96.8088
2855.72	104.18
2857.04	112.352
2858.36	120.65
2859.68	128.898
2861	137.205
2862.32	145.905
2863.63	154.753
2864.95	163.022
2866.27	172.14
2867.59	180.511
2868.9	189.468
2870.22	198.043
2871.54	206.57
2872.85	215.532
2874.17	224.332
2875.48	233.093
2876.8	242.217
2878.11	251.048
2879.43	259.69
2880.74	268.78
2882.06	277.337
2883.37	285.85
2884.69	293.632
2886	302.01
2887.31	310.116
2888.63	318.612
2889.94	325.868
2891.25	333.523
2892.57	340.239
2893.88	346.842
2895.19	352.976
2896.5	359.803
2897.82	366.293
2899.13	372.865
2900.44	378.492
2901.75	384.179
2903.06	390.73
2904.37	397.195
2905.68	402.802
2906.99	408.937
2908.3	413.744
2909.61	418.344
2910.92	423.285
2912.23	427.443
2913.54	431.804
2914.85	436.841
2916.16	441.093
2917.46	443.769
2918.77	447.203
2920.08	450.114
2921.39	453.209
2922.7	455.792
2924	457.672
2925.31	457.86
2926.62	458.033
2927.92	456.863
2929.23	455.477
2930.54	453.06
2931.84	450.157
2933.15	446.963
2934.45	444.192
2935.76	440.168
2937.06	436.201
2938.37	431.66
2939.67	426.074
2940.98	420.76
2942.28	415.634
2943.58	410.217
2944.89	404.575
2946.19	398.085
2947.49	391.047
2948.8	383.792
2950.1	375.863
2951.4	369.059
2952.7	362.113
2954.01	354.905
2955.31	347.035
2956.61	339.474
2957.91	331.783
2959.21	324.264
2960.51	317.808
2961.81	310.832
2963.11	303.126
2964.41	295.265
2965.71	288.013
2967.01	280.563
2968.31	274.011
2969.61	266.706
2970.91	258.91
2972.21	251.619
2973.51	243.79
2974.81	236.78
2976.1	229.473
2977.4	222.459
2978.7	215.558
2980	208.443
2981.29	200.362
2982.59	192.352
2983.89	185.257
2985.18	177.164
2986.48	169.848
2987.78	162.077
2989.07	154.105
2990.37	145.263
2991.66	136.883
2992.96	128.617
2994.25	121.091
2995.55	113.04
2996.84	106.262
2998.14	99.3204
2999.43	92.5471
3000.73	85.5566
3002.02	79.1184
3003.31	72.6757
3004.61	66.6369
3005.9	60.7014
3007.19	55.509
3008.48	50.3245
3009.77	44.4221
3011.07	39.1057
3012.36	34.5036
3013.65	30.089
3014.94	26.549
3016.23	24.0516
3017.52	21.1215
3018.81	18.3362
3020.1	15.3119
3021.4	13.4941
3022.68	11.269
3023.97	9.48013
3025.26	8.09649
3026.55	6.46757
3027.84	5.24449
3029.13	5.15184
3030.42	5.25262
3031.71	4.3151
3033	4.63763
3034.28	4.14907
3035.57	4.36725
3036.86	4.61656
3038.15	5.17257
3039.43	6.44398
3040.72	8.0333
3042.01	9.44481
3043.29	10.7125
3044.58	12.2202
3045.87	13.7173
3047.15	15.7565
3048.44	17.4893
3049.72	18.5768
3051.01	20.6733
3052.29	22.0005
3053.58	22.7525
3054.86	23.7425
3056.15	24.8418
3057.43	26.0854
3058.71	27.0731
3060	28.3624
3061.28	29.484
3062.56	29.5541
3063.84	30.0585
3065.13	30.7566
3066.41	31.033
3067.69	30.9002
3068.97	30.9035
3070.26	30.7514
3071.54	31.2751
3072.82	31.0441
3074.1	30.5736
3075.38	30.4602
3076.66	30.2342
3077.94	30.2757
3079.22	30.1874
3080.5	30.4127
3081.78	29.3625
3083.06	28.8195
3084.34	28.4056
3085.62	28.1978
3086.9	28.0998
3088.18	28.7269
3089.45	29.3527
3090.73	29.6144
3092.01	30.3587
3093.29	31.4905
3094.56	32.2381
3095.84	32.6004
3097.12	33.4705
3098.4	34.4847
3099.67	35.7015
3100.95	37.1229
3102.22	38.5876
3103.5	40.3587
3104.78	42.25
3106.05	43.3283
3107.33	45.4342
3108.6	47.3024
3109.88	48.8661
3111.15	50.4334
3112.43	52.2584
3113.7	54.3769
3114.97	56.3222
3116.25	57.9841
3117.52	59.9439
3118.79	62.0694
3120.07	64.1945
3121.34	66.4731
3122.61	68.9988
3123.88	71.2157
3125.16	73.2497
3126.43	75.1436
3127.7	77.4473
3128.97	80.0401
3130.24	81.9276
3131.51	84.1395
3132.79	86.5408
3134.06	88.5139
3135.33	90.8769
3136.6	92.7496
3137.87	94.9175
3139.14	96.9167
3140.41	99.5619
3141.67	102.026
3142.94	104.313
3144.21	106.834
3145.48	109.674
3146.75	112.151
3148.02	114.559
3149.29	116.526
