#Acq. time (s)=	45
#Accumulations=	2
#Range (cm-¹)=	200...3150
#Windows=	2
#Auto scanning=	Off
#Autofocus=	Off
#Macrospot=	Off
#AutoExposure=	Off
#Spike filter=	Multiple accum.
#Delay time (s)=	0
#Binning=	1
#Readout mode=	Signal
#DeNoise=	Off
#ICS correction=	On
#Dark correction=	Off
#Inst. Process=	Off
#Detector Gain=	Best Dynamic Range
#Detector ADC=	20 kHz       
#Detector temperature (°C)=	-69.85
#Instrument=	LabRAM HR Evol
#Detector=	Synapse
#Objective=	x100
#Grating=	600 gr/mm
#ND Filter=	100%
#Laser (nm)=	532 
#Hole=	100.021
#Range=	Auto
#Laser Pol.=	No
#Raman. Pol.=	No
#Laser Pol. (°)=	-0.0007625
#Raman Pol. (°)=	89.9995
#Collection=	Microscope
#StageXY=	Marzhauser
#StageZ=	Marzhauser
#X (µm)=	245.2
#Y (µm)=	1672.5
#Z (µm)=	426.85
#Full time(mm:ss)=	3:18
#Project=	
#Sample=	
#Site=	
#Title=	Thy_40_11_34_2x_45s_532 nm_x100_100%_600 gr_mm
#Remark=	
#Date=	05.07.2022 12:26
#Acquired=	05.07.2022 12:26:12
#Base:Fit=	10.08.2022 10:01:35
#Base:Sub=	10.08.2022 10:01:52
#Filter:Polynom=	16.08.2022 10:21:53
#AxisType[0]=Intens
#AxisUnit[0]=Cnt
#AxisType[1]=Spectr
#AxisUnit[1]=1/cm
200.43	11.8753
202.244	8.97922
204.059	8.63775
205.873	8.29865
207.688	8.6452
209.501	8.63859
211.314	8.81528
213.127	8.34296
214.941	8.10541
216.753	7.5853
218.564	8.10104
220.375	7.49696
222.186	6.62086
223.999	6.54417
225.809	6.93661
227.618	6.83164
229.428	7.12696
231.236	6.72625
233.045	6.72108
234.855	6.62144
236.663	6.22462
238.471	6.25861
240.278	5.61042
242.085	5.39571
243.891	4.51636
245.698	4.21611
247.503	4.17086
249.309	4.39981
251.116	4.11089
252.921	3.80804
254.725	3.91333
256.529	3.83315
258.333	4.35662
260.136	4.07627
261.939	4.72778
263.742	4.34593
265.544	3.0981
267.346	2.6123
269.148	2.11308
270.949	0.698056
272.75	-0.0789609
274.55	-0.651328
276.351	-0.0198098
278.15	1.11004
279.95	1.83265
281.749	2.59895
283.548	2.64133
285.346	3.08671
287.144	3.82744
288.942	3.89396
290.739	4.98038
292.536	5.42283
294.333	6.21416
296.129	6.71538
297.925	6.25192
299.721	7.1411
301.514	7.55454
303.309	7.86869
305.104	9.14476
306.898	9.77728
308.692	10.445
310.486	10.8722
312.279	12.1438
314.072	13.1581
315.862	14.0698
317.654	14.0507
319.446	14.7641
321.238	14.6086
323.029	14.5317
324.819	15.2249
326.608	15.5097
328.398	14.4848
330.188	14.0947
331.977	13.6755
333.766	13.0445
335.553	13.2054
337.341	12.795
339.129	12.4752
340.917	12.92
342.704	13.0217
344.489	12.528
346.275	11.8333
348.062	10.5148
349.845	9.53484
351.631	9.80889
353.416	8.38218
355.201	7.70318
356.984	7.35566
358.768	6.79914
360.552	6.92796
362.333	6.64307
364.116	7.34844
365.899	7.6928
367.68	6.95225
369.462	5.97299
371.243	5.44778
373.023	5.81158
374.804	6.25935
376.585	6.67491
378.363	5.70314
380.143	5.91307
381.923	6.18643
383.7	6.8392
385.479	6.69514
387.256	6.79278
389.034	7.22724
390.812	7.64556
392.588	8.34968
394.365	9.0009
396.14	8.6023
397.916	9.04317
399.691	9.7712
401.467	9.77936
403.24	9.26011
405.015	9.50613
406.788	9.80212
408.563	10.6676
410.335	10.9881
412.109	11.0409
413.88	11.5866
415.654	11.0776
417.424	10.4532
419.197	11.743
420.967	11.3191
422.739	11.5021
424.508	12.2673
426.279	12.2954
428.048	12.9675
429.819	12.9257
431.587	11.9599
433.356	12.1435
435.124	11.7348
436.891	11.7266
438.66	12.5925
440.426	12.4711
442.194	12.2024
443.96	11.9316
445.725	12.1099
447.492	12.251
449.257	12.0412
451.021	11.4731
452.787	11.2631
454.551	10.9616
456.314	9.90291
458.079	10.585
459.842	10.6847
461.604	10.2928
463.368	10.0852
465.13	10.2175
466.891	9.30382
468.654	10.3872
470.415	10.5113
472.175	10.762
473.935	11.3664
475.696	11.6383
477.456	11.7837
479.215	12.6012
480.973	12.9496
482.733	12.9943
484.491	12.7741
486.249	13.9546
488.006	13.6753
489.765	14.2695
491.522	14.9942
493.278	16.1482
495.034	16.9051
496.789	17.1354
498.544	17.5481
500.301	17.1265
502.056	18.2017
503.81	18.7921
505.564	18.8622
507.317	19.5172
509.071	19.7545
510.825	20.8667
512.578	21.1704
514.33	20.1499
516.082	20.353
517.833	19.6053
519.585	19.5979
521.335	19.138
523.086	18.6107
524.836	19.1213
526.586	19.5436
528.335	18.863
530.085	18.3266
531.835	17.3686
533.584	16.5157
535.332	16.761
537.08	15.722
538.827	14.7558
540.574	13.2559
542.321	13.5785
544.068	12.3671
545.814	12.0105
547.56	10.9502
549.305	9.96591
551.05	10.099
552.795	9.14801
554.54	8.11704
556.282	7.70435
558.025	6.56241
559.769	6.19239
561.512	5.99833
563.255	5.37041
564.997	4.8704
566.739	4.09616
568.481	2.91018
570.223	2.47715
571.964	1.97165
573.705	1.42031
575.443	0.82204
577.183	1.22041
578.923	0.745569
580.663	0.604776
582.402	0.327385
584.141	0.273187
585.879	0.419111
587.615	-0.00493526
589.353	0.0305217
591.09	-0.674614
592.828	-0.713012
594.564	-0.227962
596.299	0.413776
598.035	0.417286
599.771	0.631644
601.506	1.02668
603.242	2.22363
604.974	2.93953
606.709	3.09204
608.443	3.60666
610.177	4.52842
611.908	5.07892
613.642	4.96648
615.374	5.03049
617.105	5.06657
618.837	5.92557
620.569	6.9504
622.3	7.99442
624.03	8.01756
625.761	9.4385
627.491	10.2253
629.219	12.0214
630.949	12.117
632.677	13.1422
634.406	14.1498
636.135	14.5719
637.861	14.6668
639.59	15.0474
641.318	15.5169
643.043	15.8385
644.77	16.8493
646.495	17.957
648.222	18.1291
649.948	18.1432
651.672	18.6459
653.398	19.2025
655.121	20.0685
656.846	20.6766
658.569	21.0087
660.293	21.4043
662.015	21.5636
663.738	21.3623
665.46	21.6821
667.183	22.2195
668.903	21.9272
670.626	21.2702
672.346	21.0112
674.067	21.0909
675.787	21.1654
677.508	21.5081
679.226	22.2275
680.947	22.8967
682.665	23.284
684.385	23.6642
686.102	23.6229
687.821	23.9206
689.538	24.0292
691.254	24.5847
692.972	25.1806
694.688	26.1448
696.406	26.5853
698.121	27.2805
699.835	27.4158
701.552	28.2577
703.266	28.837
704.98	29.8966
706.695	30.7878
708.409	32.7052
710.121	34.6865
711.836	35.9056
713.548	36.6549
715.26	37.8
716.973	38.1068
718.685	38.3864
720.396	38.6882
722.108	39.0554
723.818	39.803
725.528	41.2506
727.238	41.3496
728.949	42.0629
730.658	42.4531
732.367	42.419
734.075	43.0084
735.785	43.6271
737.493	44.2527
739.2	45.21
740.907	45.3618
742.614	46.9292
744.322	47.3553
746.028	48.7529
747.734	49.5112
749.439	50.4666
751.144	51.3438
752.849	52.189
754.555	52.7846
756.26	53.9199
757.963	55.7001
759.667	57.2626
761.37	57.8082
763.073	58.9545
764.775	59.5157
766.477	60.3576
768.179	60.6989
769.883	61.8903
771.584	62.3642
773.285	63.5508
774.986	65.0719
776.686	65.9486
778.386	66.801
780.085	66.962
781.785	67.6103
783.484	68.8892
785.182	69.412
786.881	71.4336
788.579	72.5133
790.276	73.6886
791.974	74.1902
793.671	76.3914
795.367	76.5802
797.064	76.9347
798.76	77.4887
800.456	78.5817
802.151	78.9858
803.846	78.736
805.541	79.0222
807.234	79.8116
808.928	80.5182
810.622	80.8724
812.315	80.2028
814.008	79.8395
815.701	78.9794
817.394	79.9579
819.086	80.4227
820.778	79.734
822.468	80.0109
824.159	80.5828
825.85	81.4316
827.541	81.0393
829.231	79.8072
830.921	80.8057
832.609	79.8024
834.298	79.4537
835.987	79.131
837.676	78.7517
839.364	78.2324
841.051	76.872
842.738	75.3004
844.426	73.9938
846.113	72.5565
847.798	71.2597
849.484	69.9925
851.171	68.9002
852.857	67.0183
854.54	65.8261
856.226	63.8277
857.911	62.8675
859.593	62.4881
861.278	61.3144
862.961	61.2756
864.645	60.4778
866.327	59.4723
868.01	58.7654
869.692	57.9599
871.373	57.4925
873.055	56.4545
874.735	55.3716
876.416	54.189
878.097	54.8834
879.776	53.7848
881.457	54.2402
883.135	53.8388
884.815	53.072
886.495	51.164
888.172	49.8908
889.851	49.8969
891.528	49.4983
893.206	48.8256
894.882	47.2131
896.56	46.4039
898.237	45.859
899.912	46.1115
901.589	46.5727
903.263	45.3438
904.94	45.0687
906.614	44.7772
908.289	44.5564
909.962	43.6568
911.635	42.6937
913.31	42.3621
914.982	42.8301
916.656	42.2863
918.328	41.8905
920.001	40.6997
921.672	40.1103
923.345	40.489
925.015	39.1295
926.685	39.3775
928.357	39.9379
930.026	39.9251
931.698	38.4616
933.366	37.9614
935.035	36.7841
936.705	36.0202
938.373	36.1264
940.041	36.5465
941.71	36.8635
943.377	36.3493
945.044	35.5515
946.712	34.5685
948.378	34.0667
950.044	33.1663
951.709	33.6486
953.376	33.0365
955.041	33.0142
956.706	32.0879
958.372	30.8363
960.036	30.5314
961.699	30.2099
963.362	30.1997
965.027	30.4354
966.69	29.1189
968.352	28.3513
970.014	27.777
971.676	27.8983
973.339	28.0219
975	28.4714
976.661	28.3751
978.322	28.4969
979.982	29.3894
981.642	29.1871
983.303	29.4869
984.962	29.1894
986.621	29.0255
988.28	28.6095
989.938	28.7351
991.596	29.1786
993.254	29.5708
994.911	30.4608
996.57	30.3168
998.227	31.3272
999.884	30.8699
1001.54	30.4879
1003.2	30.8518
1004.85	30.8019
1006.51	30.9081
1008.16	30.8596
1009.82	31.2846
1011.47	31.8152
1013.12	31.6567
1014.78	30.5766
1016.43	30.6965
1018.08	30.2581
1019.74	30.1409
1021.39	30.2664
1023.04	29.7495
1024.69	28.5911
1026.34	28.1804
1028	28.3074
1029.65	29.2137
1031.3	29.1781
1032.95	28.8867
1034.6	28.667
1036.25	27.6286
1037.9	27.9635
1039.54	26.5323
1041.19	26.4007
1042.84	25.9017
1044.49	25.7803
1046.14	26.0595
1047.78	25.7309
1049.43	25.0484
1051.08	25.1496
1052.72	24.6697
1054.37	24.4775
1056.02	23.3965
1057.66	23.0667
1059.31	21.6666
1060.95	21.7201
1062.6	20.812
1064.24	19.8626
1065.88	19.5642
1067.53	18.5075
1069.17	18.3676
1070.81	17.317
1072.45	17.1019
1074.1	16.6095
1075.74	15.7535
1077.38	15.2212
1079.02	14.5881
1080.66	14.202
1082.3	13.9234
1083.94	13.493
1085.58	13.2752
1087.22	12.6727
1088.86	12.9701
1090.5	12.8174
1092.14	12.2346
1093.78	12.8177
1095.42	12.058
1097.05	11.6248
1098.69	11.908
1100.33	13.0411
1101.96	13.691
1103.6	13.8462
1105.24	14.9098
1106.87	15.9006
1108.51	16.1569
1110.14	16.9086
1111.78	17.4309
1113.41	17.0898
1115.05	17.1702
1116.68	16.4114
1118.31	16.5069
1119.95	15.7501
1121.58	15.0785
1123.21	14.8805
1124.85	14.5903
1126.48	14.8212
1128.11	15.2863
1129.74	15.662
1131.37	14.5445
1133	12.7647
1134.63	11.2426
1136.26	11.0793
1137.89	9.86643
1139.52	9.60687
1141.15	9.12571
1142.78	9.00164
1144.41	8.49919
1146.04	8.15852
1147.66	8.29994
1149.29	7.7088
1150.92	7.53645
1152.55	6.81876
1154.17	6.6034
1155.8	6.04714
1157.43	6.06215
1159.05	5.88417
1160.68	5.41034
1162.3	4.88623
1163.93	4.13739
1165.55	4.05714
1167.17	3.87355
1168.8	4.11448
1170.42	3.72375
1172.05	4.81081
1173.67	4.67894
1175.29	5.26927
1176.91	4.92012
1178.54	5.67412
1180.16	5.57612
1181.78	5.62483
1183.4	4.68848
1185.02	5.32399
1186.64	5.48037
1188.26	4.51885
1189.88	3.58277
1191.5	3.84358
1193.12	3.88012
1194.74	3.92514
1196.36	3.20638
1197.97	2.72393
1199.59	3.1327
1201.21	4.30677
1202.83	6.36418
1204.44	8.05913
1206.06	9.00856
1207.68	9.7852
1209.29	10.7552
1210.91	10.9636
1212.52	11.859
1214.14	13.3634
1215.75	15.895
1217.37	18.4755
1218.98	20.0016
1220.59	21.6968
1222.21	24.2057
1223.82	26.6049
1225.43	28.9372
1227.05	30.7536
1228.66	32.3511
1230.27	34.5787
1231.88	36.2464
1233.49	37.5337
1235.1	38.7951
1236.72	41.0108
1238.33	43.1651
1239.94	44.088
1241.55	45.9016
1243.16	47.7632
1244.76	48.8117
1246.37	50.633
1247.98	51.1304
1249.59	52.5526
1251.2	53.3294
1252.8	55.1862
1254.41	54.8943
1256.02	56.0246
1257.62	56.7308
1259.23	58.3655
1260.84	58.8331
1262.44	59.8571
1264.05	60.2734
1265.66	61.6137
1267.26	60.99
1268.86	61.5044
1270.47	61.5871
1272.07	61.7967
1273.67	62.3032
1275.28	63.6756
1276.88	64.2105
1278.48	65.1581
1280.09	66.1547
1281.69	68.4506
1283.29	68.2988
1284.89	67.9147
1286.49	67.1289
1288.09	67.1854
1289.69	68.5413
1291.29	68.8319
1292.89	69.1915
1294.49	68.9799
1296.09	69.7468
1297.69	70.2746
1299.29	70.6214
1300.89	70.3087
1302.49	72.5655
1304.08	72.751
1305.68	72.5927
1307.28	73.9264
1308.88	74.565
1310.47	74.0437
1312.07	73.4565
1313.66	73.1997
1315.26	73.5377
1316.85	74.0384
1318.45	73.0893
1320.04	73.0651
1321.64	73.3066
1323.23	72.835
1324.83	72.235
1326.42	72.4918
1328.01	72.0135
1329.61	72.7411
1331.2	72.3238
1332.79	72.1527
1334.38	71.2178
1335.97	70.6767
1337.56	70.0045
1339.16	68.7496
1340.75	66.6175
1342.34	65.0449
1343.93	63.4214
1345.52	62.3264
1347.11	60.1354
1348.7	58.8487
1350.29	56.9866
1351.87	56.2518
1353.46	55.6017
1355.05	54.4063
1356.64	52.1614
1358.22	50.5318
1359.81	49.0191
1361.4	47.6519
1362.98	45.3761
1364.57	44.3157
1366.16	42.4585
1367.74	40.7337
1369.33	40.5482
1370.91	38.6017
1372.5	37.9942
1374.08	37.4631
1375.67	36.4648
1377.25	35.324
1378.83	34.6674
1380.41	33.4983
1382	33.7079
1383.58	32.3748
1385.16	31.4282
1386.74	31.6697
1388.33	30.6121
1389.91	29.3209
1391.49	30.2211
1393.07	29.1465
1394.65	29.1058
1396.23	28.7617
1397.81	27.9048
1399.39	27.6941
1400.97	27.9923
1402.55	28.1603
1404.13	28.3417
1405.7	27.8016
1407.28	28.8597
1408.86	29.309
1410.44	28.8502
1412.01	28.796
1413.59	29.7012
1415.17	29.7147
1416.74	30.9757
1418.32	33.0174
1419.89	34.5443
1421.47	36.9
1423.04	39.4384
1424.62	41.9901
1426.19	43.8125
1427.77	47.0612
1429.34	49.072
1430.91	52.42
1432.49	55.8142
1434.06	58.9793
1435.63	61.1014
1437.2	62.8107
1438.78	63.8279
1440.35	65.894
1441.92	67.9778
1443.49	69.5949
1445.06	69.8568
1446.63	71.5442
1448.2	72.7729
1449.77	72.4663
1451.34	72.7815
1452.91	72.4981
1454.48	71.1197
1456.05	70.8676
1457.62	70.5436
1459.18	70.1769
1460.75	69.3199
1462.32	67.7146
1463.89	66.0685
1465.45	65.2019
1467.02	62.9357
1468.59	60.3534
1470.15	57.7396
1471.72	54.453
1473.28	52.0658
1474.85	49.3541
1476.41	46.4285
1477.98	43.7688
1479.54	41.4183
1481.1	38.5596
1482.67	35.1303
1484.23	32.2485
1485.79	30.508
1487.36	27.3071
1488.92	25.1082
1490.48	23.0049
1492.04	21.3262
1493.61	19.4935
1495.17	19.79
1496.73	18.7016
1498.29	16.9368
1499.85	16.3665
1501.41	15.9283
1502.97	14.9638
1504.53	14.4297
1506.09	14.8741
1507.65	14.5804
1509.2	15.4609
1510.76	15.2843
1512.32	14.6283
1513.88	13.6511
1515.43	13.3989
1516.99	14.4477
1518.55	16.1036
1520.1	16.3401
1521.66	17.7237
1523.22	17.35
1524.77	18.2803
1526.33	18.5019
1527.88	19.4346
1529.44	20.5189
1530.99	21.1018
1532.54	22.0623
1534.1	23.9398
1535.65	25.9719
1537.21	27.4534
1538.76	28.6341
1540.31	30.1367
1541.86	32.4152
1543.42	33.9642
1544.97	35.3196
1546.52	37.4598
1548.07	38.8628
1549.62	40.0538
1551.17	41.4031
1552.72	43.2592
1554.27	43.9176
1555.82	45.3562
1557.37	46.8014
1558.92	48.7415
1560.47	49.4051
1562.02	50.7656
1563.56	52.1319
1565.11	52.4996
1566.66	53.2131
1568.21	53.8526
1569.75	55.3367
1571.3	56.5008
1572.85	57.173
1574.39	57.2659
1575.94	57.9067
1577.49	58.5244
1579.03	59.6093
1580.57	60.9036
1582.12	62.9517
1583.66	64.0096
1585.21	65.3863
1586.75	65.7012
1588.3	66.5248
1589.84	66.9599
1591.38	66.5447
1592.92	67.0376
1594.47	67.0244
1596.01	66.8454
1597.55	66.0849
1599.09	65.5034
1600.63	64.2685
1602.17	62.8826
1603.71	62.128
1605.25	61.8781
1606.79	60.4754
1608.33	59.9374
1609.87	59.8205
1611.41	58.8559
1612.95	58.9573
1614.49	58.7936
1616.03	59.0801
1617.57	58.5832
1619.1	59.2556
1620.64	59.0497
1622.18	58.9157
1623.72	59.2685
1625.25	59.0179
1626.79	59.1285
1628.32	60.2318
1629.86	61.5243
1631.39	62.4616
1632.93	63.9651
1634.46	65.0075
1636	65.948
1637.53	66.5229
1639.07	67.5537
1640.6	68.3971
1642.13	69.8428
1643.67	71.597
1645.2	73.0806
1646.73	74.2167
1648.26	75.0791
1649.8	76.5656
1651.33	78.2496
1652.86	79.2479
1654.39	80.3479
1655.92	81.9263
1657.45	82.7797
1658.98	83.5029
1660.51	83.0369
1662.04	83.121
1663.57	82.6561
1665.1	82.4617
1666.63	81.0511
1668.16	79.5257
1669.68	78.4827
1671.21	76.1958
1672.74	74.022
1674.27	71.299
1675.79	69.0905
1677.32	66.7132
1678.85	64.0691
1680.37	62.0364
1681.9	59.4243
1683.42	56.0626
1684.95	54.0798
1686.47	50.7719
1688	47.7461
1689.52	45.3159
1691.05	43.0053
1692.57	40.2646
1694.09	37.2153
1695.62	34.6607
1697.14	31.8609
1698.66	29.2015
1700.18	26.9864
1701.71	24.5141
1703.23	22.622
1704.75	21.0811
1706.27	18.7651
1707.79	16.8843
1709.31	14.6765
1710.83	13.1722
1712.35	11.4329
1713.87	10.4783
1715.39	8.67455
1716.91	8.02571
1718.43	7.57538
1719.95	6.55616
1721.47	6.09447
1722.99	5.16799
1724.5	5.7968
1726.02	5.1015
1727.54	4.6245
1729.06	4.30548
1730.57	4.31031
1732.09	5.00133
1733.61	5.15089
1735.12	5.82551
1736.64	5.6594
1738.15	5.72302
1739.67	5.94803
1741.18	5.66639
1742.7	5.48556
1744.21	5.54162
1745.72	5.71549
1747.24	5.16833
1748.75	4.89605
1750.26	5.17899
1751.77	5.25783
1753.29	5.17624
1754.8	5.46497
1756.31	4.40856
1757.82	4.22033
1759.33	3.78431
1760.84	3.29139
1762.36	2.61187
1763.87	2.37932
1765.38	2.28354
1766.89	2.39895
1768.4	1.5194
1769.91	0.634995
1771.41	0.237537
1772.92	0.104089
1774.43	-0.042753
1775.94	-0.394435
1777.45	-0.0180483
1778.95	-0.257844
1780.46	-0.621841
1781.97	-1.13163
1783.48	-0.897876
1784.98	-1.36562
1786.49	-1.2729
1787.99	-1.5613
1789.5	-1.15355
1791.01	-1.1178
1792.51	-0.483286
1794.01	0.0405929
1795.52	0.153995
1797.02	0.54202
1798.53	0.767941
1800.03	1.52734
1801.53	1.18665
1803.04	1.54531
1804.54	2.05173
1806.04	2.55973
1807.54	3.14932
1809.05	2.22142
1810.55	2.25256
1812.05	2.04413
1813.55	2.60319
1815.05	3.1705
1816.55	3.49872
1818.05	3.35111
1819.55	3.41382
1821.05	3.12887
1822.55	2.96797
1824.05	3.2156
1825.55	3.13326
1827.05	3.37604
1828.55	3.70316
1830.04	3.25614
1831.54	3.09876
1833.04	3.37614
1834.54	3.31542
1836.03	3.60269
1837.53	4.03574
1839.03	4.12466
1840.52	4.54953
1842.02	4.67013
1843.51	4.37983
1845.01	4.53866
1846.5	5.14441
1848	5.89828
1849.49	6.3597
1850.99	6.40403
1852.48	6.39393
1853.97	5.80301
1855.47	5.54646
1856.96	5.77555
1858.45	6.44563
1859.94	6.36874
1861.44	7.21289
1862.93	7.62039
1864.42	8.20709
1865.91	8.84404
1867.4	9.34704
1868.89	10.1905
1870.38	10.3296
1871.87	11.5305
1873.36	11.8566
1874.85	12.205
1876.34	12.4183
1877.83	12.8271
1879.32	13.0323
1880.81	13.714
1882.3	14.0173
1882.57	13.9687
1884.07	14.425
1885.56	14.9957
1887.06	15.2739
1888.55	15.2978
1890.04	14.8944
1891.54	14.7433
1893.03	15.0145
1894.52	14.982
1896.02	15.7035
1897.51	15.6966
1899	15.7592
1900.49	15.8219
1901.98	15.8511
1903.47	15.112
1904.96	15.6272
1906.45	15.5794
1907.94	15.4299
1909.43	15.6653
1910.92	15.4836
1912.41	15.1099
1913.9	14.9533
1915.39	14.7063
1916.88	14.7016
1918.37	15.0315
1919.85	15.1345
1921.34	15.5199
1922.83	14.6312
1924.32	14.1542
1925.8	13.3743
1927.29	13.5719
1928.78	13.808
1930.26	15.1382
1931.75	15.1431
1933.23	14.7801
1934.72	15.0225
1936.2	14.7071
1937.69	14.5152
1939.17	14.9476
1940.66	15.073
1942.14	15.177
1943.63	15.1494
1945.11	15.351
1946.59	15.0127
1948.07	14.8298
1949.56	14.9458
1951.04	15.1205
1952.52	15.3343
1954	15.4236
1955.48	15.089
1956.96	15.1182
1958.45	14.7969
1959.93	14.8331
1961.41	14.3266
1962.89	14.606
1964.37	14.0258
1965.85	14.0562
1967.32	14.1554
1968.8	13.7871
1970.28	13.1033
1971.76	11.8788
1973.24	11.3326
1974.72	10.5279
1976.19	10.2464
1977.67	9.85086
1979.15	10.1742
1980.63	10.0431
1982.1	9.25383
1983.58	9.58355
1985.05	9.27387
1986.53	8.70472
1988	8.57037
1989.48	8.19197
1990.95	8.42361
1992.43	8.32887
1993.9	8.36172
1995.38	8.00494
1996.85	6.90859
1998.32	7.04661
1999.8	7.05014
2001.27	7.51584
2002.74	7.93625
2004.22	7.91667
2005.69	7.56637
2007.16	7.64966
2008.63	7.73636
2010.1	7.86163
2011.57	8.05861
2013.04	8.91342
2014.51	8.95886
2015.98	9.48722
2017.45	10.3846
2018.92	10.9124
2020.39	11.3434
2021.86	11.7284
2023.33	12.3434
2024.8	12.8031
2026.27	12.8082
2027.74	12.6705
2029.2	13.0709
2030.67	13.3815
2032.14	13.3809
2033.61	13.8488
2035.07	13.8506
2036.54	14.1649
2038.01	13.8098
2039.47	13.7935
2040.94	13.7237
2042.4	13.7576
2043.87	13.496
2045.33	13.5694
2046.8	14.1972
2048.26	14.0794
2049.72	14.14
2051.19	14.2766
2052.65	14.5057
2054.12	14.4627
2055.58	14.2009
2057.04	14.6573
2058.5	14.1815
2059.97	14.1908
2061.43	14.4133
2062.89	14.6929
2064.35	15.6362
2065.81	15.9858
2067.27	16.3641
2068.73	16.319
2070.19	16.9325
2071.65	17.8189
2073.11	18.3989
2074.57	18.8579
2076.03	20.0744
2077.49	20.8616
2078.95	21.6728
2080.41	21.9581
2081.87	22.6988
2083.32	23.1656
2084.78	24.124
2086.24	25.1242
2087.7	25.3974
2089.15	26.662
2090.61	27.4016
2092.07	27.9205
2093.52	28.3143
2094.98	28.8992
2096.43	29.4607
2097.89	30.6722
2099.34	31.7083
2100.8	33.0538
2102.25	34.2682
2103.71	35.6673
2105.16	36.8659
2106.61	37.6842
2108.07	38.482
2109.52	40.2873
2110.97	40.81
2112.43	41.5172
2113.88	42.3891
2115.33	43.89
2116.78	44.8281
2118.23	46.2163
2119.68	48.0862
2121.13	49.6323
2122.59	50.6926
2124.04	53.1344
2125.49	54.134
2126.94	55.8792
2128.39	57.4892
2129.83	59.5938
2131.28	61.2237
2132.73	63.0217
2134.18	65.0004
2135.63	67.2371
2137.08	69.1583
2138.53	71.1254
2139.97	73.1665
2141.42	75.1476
2142.87	76.8988
2144.31	78.5973
2145.76	80.5246
2147.21	81.8029
2148.65	83.633
2150.1	85.584
2151.54	87.4345
2152.99	88.8452
2154.43	90.264
2155.88	91.9107
2157.32	93.1516
2158.77	94.5006
2160.21	95.3016
2161.65	96.8921
2163.1	97.6523
2164.54	98.6924
2165.98	98.816
2167.43	100.203
2168.87	100.568
2170.31	101.298
2171.75	101.352
2173.19	101.413
2174.64	101.065
2176.07	101.284
2177.52	100.751
2178.96	99.7461
2180.4	99.1431
2181.84	98.856
2183.28	97.0654
2184.72	97.0475
2186.15	96.2756
2187.59	95.628
2189.03	94.2428
2190.47	92.463
2191.91	91.1765
2193.35	89.6973
2194.78	88.2686
2196.22	87.0026
2197.66	84.791
2199.09	83.7287
2200.53	81.847
2201.97	80.3704
2203.4	78.3985
2204.84	76.8997
2206.27	74.9959
2207.71	73.1453
2209.14	71.4993
2210.58	70.0287
2212.01	67.7301
2213.45	65.7194
2214.88	63.7163
2216.31	62.1843
2217.75	60.3831
2219.18	58.728
2220.61	57.568
2222.05	56.4465
2223.48	54.0861
2224.91	52.2871
2226.34	50.6302
2227.78	48.7983
2229.21	47.1106
2230.64	45.8934
2232.07	43.7716
2233.5	42.335
2234.93	40.8495
2236.36	39.5485
2237.79	38.767
2239.22	37.7135
2240.65	35.9795
2242.08	35.2812
2243.5	34.2845
2244.93	33.7603
2246.36	32.7989
2247.79	32.4581
2249.22	30.8752
2250.64	29.8058
2252.07	29.347
2253.5	29.1999
2254.92	27.562
2256.35	27.0593
2257.78	26.1648
2259.2	25.4274
2260.63	24.8889
2262.05	24.517
2263.48	24.6195
2264.9	24.1221
2266.33	23.0936
2267.75	21.8306
2269.18	22.0542
2270.6	21.9294
2272.02	21.4753
2273.45	20.9646
2274.87	20.3712
2276.29	19.4509
2277.71	18.8585
2279.14	19.2753
2280.56	19.3393
2281.98	19.0095
2283.4	18.5725
2284.82	18.4796
2286.24	18.2063
2287.66	17.5711
2289.08	16.704
2290.5	15.6908
2291.92	14.9332
2293.34	14.2459
2294.76	13.7374
2296.18	13.9876
2297.6	14.0795
2299.02	14.2289
2300.44	14.5945
2301.86	14.5688
2303.27	14.6221
2304.69	14.8022
2306.11	14.872
2307.53	14.8844
2308.94	14.6646
2310.36	13.5209
2311.78	13.3763
2313.19	13.3784
2314.61	12.6729
2316.02	12.2945
2317.44	11.3416
2318.85	11.2114
2320.27	10.1548
2321.68	10.062
2323.1	9.74637
2324.51	9.5882
2325.92	8.76046
2327.34	9.0317
2328.75	9.09752
2330.16	8.47169
2331.58	7.95436
2332.99	7.47008
2334.4	6.89414
2335.81	5.95352
2337.23	5.55379
2338.64	5.43968
2340.05	5.60947
2341.46	4.79479
2342.87	4.0956
2344.28	3.45836
2345.69	3.40305
2347.1	2.78874
2348.51	2.50669
2349.92	2.22759
2351.33	1.63266
2352.74	1.20804
2354.15	0.626575
2355.55	-0.0524819
2356.96	-0.443488
2358.37	-0.611774
2359.78	-1.03323
2361.19	-0.922499
2362.59	-0.291299
2364	0.249194
2365.41	0.980851
2366.81	1.59171
2368.22	2.23712
2369.62	2.55755
2371.03	2.71124
2372.44	2.95196
2373.84	2.6985
2375.24	2.5349
2376.65	2.20551
2378.05	2.01966
2379.46	1.47553
2380.86	1.25937
2382.26	1.45148
2383.67	2.01587
2385.07	1.79472
2386.47	2.61694
2387.88	3.01044
2389.28	3.62165
2390.68	3.22909
2392.08	3.62533
2393.48	4.08283
2394.89	4.54207
2396.29	3.93626
2397.69	4.38703
2399.09	4.16952
2400.49	4.1553
2401.89	3.94235
2403.29	4.1542
2404.69	4.16818
2406.09	4.47225
2407.48	4.43669
2408.88	4.50682
2410.28	4.32907
2411.68	4.05274
2413.08	4.03843
2414.48	3.81341
2415.87	4.13625
2417.27	3.94648
2418.67	4.25037
2420.06	4.62973
2421.46	4.88375
2422.86	4.8953
2424.25	4.69772
2425.65	4.76334
2427.04	5.03322
2428.44	5.07907
2429.83	4.78314
2431.23	4.89425
2432.62	4.81465
2434.02	4.7695
2435.41	4.82839
2436.81	5.07971
2438.2	5.5153
2439.59	5.46931
2440.99	5.01415
2442.38	4.63022
2443.77	4.48772
2445.16	4.68464
2446.56	4.39397
2447.95	4.5278
2449.34	4.57944
2450.73	5.39
2452.12	5.64637
2453.51	6.00559
2454.9	5.20696
2456.29	5.65857
2457.68	4.90835
2459.07	4.8634
2460.46	4.54353
2461.85	4.88265
2463.24	4.69315
2464.63	4.96902
2466.02	4.70312
2467.4	4.88103
2468.79	4.69424
2470.18	4.78819
2471.57	4.28082
2472.95	3.96352
2474.34	4.19008
2475.73	3.93698
2477.12	3.69444
2478.5	3.68943
2479.89	3.57177
2481.27	3.826
2482.66	3.49342
2484.04	2.87514
2485.43	2.82934
2486.81	2.44932
2488.2	2.24137
2489.58	2.30563
2490.97	1.98425
2492.35	2.2506
2493.73	2.44325
2495.12	2.19568
2496.5	1.89104
2497.88	1.38831
2499.27	0.952857
2500.65	0.832431
2502.03	0.929695
2503.41	0.875285
2504.79	0.936456
2506.17	1.14567
2507.56	1.1355
2508.94	1.47396
2510.32	1.44864
2511.7	1.75
2513.08	2.42044
2514.46	2.72524
2515.84	2.87514
2517.22	3.20482
2518.59	3.65217
2519.97	3.8384
2521.35	3.60551
2522.73	3.97919
2524.11	3.90802
2525.49	4.72608
2526.86	4.66283
2528.24	5.5313
2529.62	5.5971
2530.99	6.16873
2532.37	6.00078
2533.75	6.44861
2535.12	6.16219
2536.5	5.79546
2537.88	6.25582
2539.25	6.03688
2540.63	6.23537
2542	6.17248
2543.38	6.85216
2544.75	6.19589
2546.12	6.4074
2547.5	6.34337
2548.87	6.42427
2550.24	6.13657
2551.62	5.67771
2552.99	5.32435
2554.36	5.78573
2555.74	6.30034
2557.11	6.79229
2558.48	6.65643
2559.85	5.82015
2561.22	6.17963
2562.59	5.54312
2563.96	5.1422
2565.34	5.25724
2566.71	5.36559
2568.08	5.55807
2569.45	5.33169
2570.82	5.84414
2572.18	6.19208
2573.55	6.38755
2574.92	6.91477
2576.29	7.16075
2577.66	7.23282
2579.03	6.7853
2580.4	6.45545
2581.77	6.45972
2583.13	5.89399
2584.5	5.61949
2585.87	5.13426
2587.23	5.19884
2588.6	5.04914
2589.97	4.74844
2591.33	4.57966
2592.7	4.51896
2594.06	5.08319
2595.43	4.83705
2596.79	5.09496
2598.16	4.28232
2599.52	3.79614
2600.89	3.37251
2602.25	3.41429
2603.62	3.21815
2604.98	2.45557
2606.34	2.36444
2607.71	2.15158
2609.07	2.44205
2610.43	2.32205
2611.79	2.26307
2613.16	1.87713
2614.52	2.54108
2615.88	3.05474
2617.24	2.97535
2618.6	2.77377
2619.96	2.36289
2621.32	2.36786
2622.68	3.33545
2624.04	3.46225
2625.4	3.34482
2626.76	3.31846
2628.12	3.22773
2629.48	3.97197
2630.84	3.80873
2632.2	4.05741
2633.56	4.57249
2634.92	4.67745
2636.28	4.77866
2637.63	4.97778
2638.99	5.6353
2640.35	5.2953
2641.71	5.34464
2643.06	5.25626
2644.42	4.94535
2645.77	4.46064
2647.13	4.18933
2648.49	3.89129
2649.84	3.89624
2651.2	3.16993
2652.55	3.28645
2653.91	3.62165
2655.26	3.59564
2656.62	3.05418
2657.97	3.43754
2659.33	3.48765
2660.68	3.56111
2662.03	3.89419
2663.39	3.26039
2664.74	3.68445
2666.09	3.64789
2667.44	4.44055
2668.8	4.97376
2670.15	4.8836
2671.5	4.80903
2672.85	5.18133
2674.2	6.10202
2675.55	6.48564
2676.91	6.44232
2678.26	6.21794
2679.61	6.02721
2680.96	6.76161
2682.31	7.02664
2683.66	6.78809
2685	6.66952
2686.35	6.69583
2687.7	6.61283
2689.05	7.13823
2690.4	7.32766
2691.75	6.68371
2693.1	6.9874
2694.44	6.82041
2695.79	6.48864
2697.14	6.25161
2698.49	6.78315
2699.83	6.81756
2701.18	7.2654
2702.52	6.67068
2703.87	6.41394
2705.22	6.1839
2706.56	6.29655
2707.91	6.2865
2709.25	6.14416
2710.6	5.30687
2711.94	5.60951
2713.29	5.18884
2714.63	5.24089
2715.97	5.10893
2717.32	4.93023
2718.66	4.92401
2720.01	5.47515
2721.35	5.67165
2722.69	5.20369
2724.03	5.96547
2725.38	6.33614
2726.72	5.86924
2728.06	6.3958
2729.4	7.25328
2730.74	7.76931
2732.08	8.28328
2733.42	8.18072
2734.76	7.97161
2736.1	7.62169
2737.44	7.28011
2738.78	7.47032
2740.12	7.35687
2741.46	7.11003
2742.8	7.06534
2744.14	7.15168
2745.48	6.78421
2746.82	6.85914
2748.16	7.39983
2749.49	7.03682
2750.83	6.44366
2752.17	6.29448
2753.51	6.05417
2754.84	6.02618
2756.18	5.8645
2757.52	5.49437
2758.85	5.37992
2760.19	4.7818
2761.53	4.20248
2762.86	3.86105
2764.2	4.06153
2765.53	3.91122
2766.87	3.07274
2768.2	2.74388
2769.54	1.41271
2770.87	1.46231
2772.2	1.70812
2773.54	1.62015
2774.87	0.654488
2776.2	0.120707
2777.54	-0.173064
2778.87	0.484016
2780.2	0.272154
2781.53	0.225513
2782.87	-0.399289
2784.2	-0.485737
2785.53	-0.706143
2786.86	-0.550632
2788.19	-0.801906
2789.52	-0.934779
2790.85	-0.69581
2792.18	-0.978693
2793.51	-0.556679
2794.84	-0.220823
2796.17	-0.486185
2797.5	-0.50679
2798.83	-0.875009
2800.16	-1.0174
2801.49	-1.00335
2802.82	-0.602785
2804.15	-0.206909
2805.47	0.123148
2806.8	-0.137122
2808.13	-0.00892232
2809.46	0.43985
2810.78	0.895529
2812.11	0.639823
2813.44	0.605778
2814.76	0.865229
2816.09	0.529606
2817.42	0.391926
2818.74	0.984212
2820.07	2.22938
2821.39	2.97482
2822.72	3.42439
2824.04	4.40853
2825.37	5.55788
2826.69	6.68235
2828.02	8.06491
2829.34	9.35136
2830.66	11.1659
2831.99	11.9298
2833.31	13.9896
2834.63	15.3909
2835.96	17.0074
2837.28	19.2185
2838.6	20.8832
2839.92	22.687
2841.24	24.8353
2842.57	27.9009
2843.89	30.1864
2845.21	33.2478
2846.53	35.7169
2847.85	38.5516
2849.17	41.2539
2850.49	44.7314
2851.81	47.9744
2853.13	51.804
2854.45	55.4802
2855.77	59.0881
2857.09	62.7752
2858.41	66.5153
2859.72	69.9785
2861.04	73.5957
2862.36	76.9273
2863.68	80.5967
2865	83.1934
2866.31	86.4745
2867.63	89.8745
2868.95	92.8029
2870.26	94.7155
2871.58	96.8829
2872.9	99.1273
2874.21	101.351
2875.53	103.341
2876.84	104.864
2878.16	106.208
2879.47	107.684
2880.79	109.75
2882.1	111.862
2883.42	113.561
2884.73	115.476
2886.05	117.526
2887.36	119.325
2888.67	121.306
2889.99	123.385
2891.3	125.158
2892.61	127.054
2893.92	128.634
2895.24	130.823
2896.55	133.595
2897.86	135.76
2899.17	138.92
2900.48	140.965
2901.79	144.551
2903.11	148.018
2904.42	151.971
2905.73	156.276
2907.04	160.94
2908.35	166.119
2909.66	171.162
2910.97	176.843
2912.27	182.123
2913.58	187.896
2914.89	192.639
2916.2	198.935
2917.51	204.299
2918.82	209.438
2920.13	214.222
2921.43	218.243
2922.74	222.968
2924.05	227.271
2925.35	230.278
2926.66	233.108
2927.97	235.32
2929.27	237.864
2930.58	239.514
2931.89	241.061
2933.19	241.46
2934.5	241.805
2935.8	241.697
2937.11	241.852
2938.41	241.541
2939.72	239.932
2941.02	238.249
2942.32	236.58
2943.63	233.623
2944.93	230.9
2946.24	227.871
2947.54	224.53
2948.84	220.51
2950.14	216.626
2951.45	212.987
2952.75	209.311
2954.05	204.738
2955.35	200.401
2956.65	195.164
2957.95	190.357
2959.26	185.672
2960.56	181.014
2961.86	176.994
2963.16	172.172
2964.46	167.841
2965.76	163.537
2967.06	159.829
2968.36	155.574
2969.66	151.036
2970.96	147.08
2972.25	143.458
2973.55	139.71
2974.85	135.274
2976.15	130.775
2977.45	126.369
2978.74	122.247
2980.04	117.357
2981.34	113.629
2982.64	108.351
2983.93	104.137
2985.23	99.7398
2986.52	95.2514
2987.82	91.2237
2989.12	86.7653
2990.41	81.8554
2991.71	77.7228
2993	74.2005
2994.3	70.4191
2995.59	66.3539
2996.89	62.6239
2998.18	59.4874
2999.48	56.5559
3000.77	52.9212
3002.06	49.8193
3003.36	46.3874
3004.65	42.9666
3005.94	40.0998
3007.23	37.0464
3008.53	33.9053
3009.82	32.0347
3011.11	29.662
3012.4	27.6004
3013.69	26.0121
3014.99	24.6356
3016.28	23.339
3017.57	21.4816
3018.86	19.8608
3020.15	18.7521
3021.44	17.4481
3022.73	16.9918
3024.02	16.299
3025.31	15.5307
3026.6	14.8456
3027.89	13.7787
3029.18	13.1835
3030.46	13.2449
3031.75	12.8007
3033.04	12.4924
3034.33	12.3182
3035.62	12.6047
3036.9	12.7233
3038.19	12.8214
3039.48	13.0977
3040.76	13.291
3042.05	13.7819
3043.34	14.1371
3044.62	14.5041
3045.91	15.3043
3047.19	15.4702
3048.48	16.1135
3049.77	16.4652
3051.05	16.9424
3052.34	17.6926
3053.62	18.2129
3054.9	18.4688
3056.19	18.459
3057.47	18.7362
3058.76	18.716
3060.04	18.8081
3061.32	18.5765
3062.61	17.9183
3063.89	17.7888
3065.17	17.2698
3066.45	17.0259
3067.74	16.2654
3069.02	15.9605
3070.3	15.143
3071.58	14.1953
3072.86	13.3704
3074.14	12.865
3075.42	12.2689
3076.7	11.6248
3077.99	11.2523
3079.26	10.4084
3080.54	9.45131
3081.82	8.43962
3083.1	7.95405
3084.38	7.24088
3085.66	6.17818
3086.94	4.87968
3088.22	3.71282
3089.5	2.84019
3090.78	2.06584
3092.05	1.90825
3093.33	1.72111
3094.61	1.47961
3095.89	0.996572
3097.16	0.650491
3098.44	0.338397
3099.72	-0.179066
3100.99	-0.463443
3102.27	-0.359766
3103.54	0.223114
3104.82	0.22319
3106.1	0.395859
3107.37	0.322533
3108.65	0.692039
3109.92	0.886588
3111.2	0.79548
3112.47	1.01321
3113.74	1.84827
3115.02	1.80181
3116.29	1.60046
3117.56	1.81619
3118.84	1.90438
3120.11	1.83149
3121.38	2.4064
3122.66	2.85651
3123.93	3.01159
3125.2	3.21343
3126.47	3.5346
3127.74	4.65524
3129.01	4.56188
3130.29	5.05927
3131.56	5.41149
3132.83	6.26354
3134.1	6.81867
3135.37	7.31258
3136.64	8.20448
3137.91	9.41536
3139.18	10.3165
3140.45	11.1839
3141.72	11.7678
3142.99	12.351
3144.26	13.106
3145.52	14.0544
3146.79	15.024
3148.06	16.6372
3149.33	18.8865
