#Acq. time (s)=	45
#Accumulations=	2
#Range (cm-¹)=	200...3150
#Windows=	2
#Auto scanning=	Off
#Autofocus=	Off
#Macrospot=	Off
#AutoExposure=	Off
#Spike filter=	Multiple accum.
#Delay time (s)=	0
#Binning=	1
#Readout mode=	Signal
#DeNoise=	Off
#ICS correction=	On
#Dark correction=	Off
#Inst. Process=	Off
#Detector Gain=	Best Dynamic Range
#Detector ADC=	20 kHz       
#Detector temperature (°C)=	-69.85
#Instrument=	LabRAM HR Evol
#Detector=	Synapse
#Objective=	x100
#Grating=	600 gr/mm
#ND Filter=	100%
#Laser (nm)=	532 
#Hole=	100.021
#Range=	Auto
#Laser Pol.=	No
#Raman. Pol.=	No
#Laser Pol. (°)=	-0.0007625
#Raman Pol. (°)=	89.9995
#Collection=	Microscope
#StageXY=	Marzhauser
#StageZ=	Marzhauser
#X (µm)=	1955.2
#Y (µm)=	-51.4
#Z (µm)=	425.15
#Full time(mm:ss)=	3:19
#Project=	
#Sample=	
#Site=	
#Title=	Thy_40_11_24_2x_45s_532 nm_x100_100%_600 gr_mm
#Remark=	
#Date=	05.07.2022 11:34
#Acquired=	05.07.2022 11:34:36
#Base:Fit=	10.08.2022 10:01:35
#Base:Sub=	10.08.2022 10:01:52
#Filter:Polynom=	16.08.2022 10:21:53
#AxisType[0]=Intens
#AxisUnit[0]=Cnt
#AxisType[1]=Spectr
#AxisUnit[1]=1/cm
200.43	22.9516
202.244	22.2125
204.059	21.9498
205.873	22.3896
207.688	22.579
209.501	22.5497
211.314	22.3005
213.127	22.3434
214.941	21.8988
216.753	20.1512
218.564	19.1336
220.375	17.65
222.186	16.8173
223.999	15.4593
225.809	15.3025
227.618	15.0962
229.428	15.1779
231.236	14.1848
233.045	12.714
234.855	12.7577
236.663	12.1022
238.471	11.3487
240.278	11.6759
242.085	10.5072
243.891	9.95461
245.698	9.38588
247.503	9.10928
249.309	9.97547
251.116	10.5368
252.921	11.1168
254.725	11.8359
256.529	12.1809
258.333	11.8956
260.136	12.4605
261.939	11.9626
263.742	12.5834
265.544	12.2007
267.346	11.59
269.148	10.6626
270.949	11.7191
272.75	11.645
274.55	10.6971
276.351	10.8415
278.15	11.7801
279.95	12.8462
281.749	14.0988
283.548	14.0892
285.346	13.8929
287.144	13.6152
288.942	13.467
290.739	12.6499
292.536	12.6912
294.333	11.9749
296.129	11.7042
297.925	10.9654
299.721	10.7357
301.514	11.416
303.309	11.3997
305.104	10.4416
306.898	9.68697
308.692	9.70593
310.486	9.47108
312.279	9.9036
314.072	9.44235
315.862	10.6236
317.654	10.2637
319.446	8.74528
321.238	8.50762
323.029	8.33594
324.819	8.41115
326.608	7.66889
328.398	8.3767
330.188	8.66465
331.977	8.20926
333.766	9.72837
335.553	10.0268
337.341	10.7719
339.129	12.3496
340.917	11.6336
342.704	11.5622
344.489	10.9869
346.275	10.7984
348.062	10.4033
349.845	9.57177
351.631	8.6086
353.416	8.86596
355.201	8.0166
356.984	7.86179
358.768	8.28361
360.552	8.80863
362.333	8.65916
364.116	8.47089
365.899	9.22964
367.68	8.56452
369.462	7.31391
371.243	7.21012
373.023	5.75326
374.804	5.12382
376.585	5.63051
378.363	5.73641
380.143	4.86132
381.923	5.53063
383.7	5.88411
385.479	6.26308
387.256	6.14976
389.034	6.4381
390.812	6.65668
392.588	6.04602
394.365	5.85703
396.14	6.15452
397.916	5.36269
399.691	5.37908
401.467	5.17468
403.24	4.93307
405.015	5.52837
406.788	4.9014
408.563	4.81372
410.335	5.58399
412.109	5.43183
413.88	5.53523
415.654	6.80739
417.424	7.69289
419.197	7.72412
420.967	8.09034
422.739	9.24097
424.508	9.3057
426.279	10.1281
428.048	10.5901
429.819	10.1991
431.587	10.6091
433.356	10.5358
435.124	10.6202
436.891	10.8441
438.66	11.8098
440.426	12.755
442.194	13.3964
443.96	13.4016
445.725	13.3191
447.492	13.4595
449.257	12.9954
451.021	13.6679
452.787	13.2524
454.551	12.9571
456.314	12.7764
458.079	13.4873
459.842	14.9377
461.604	14.7857
463.368	15.3518
465.13	16.0549
466.891	15.8856
468.654	14.9413
470.415	15.0075
472.175	14.7928
473.935	14.4732
475.696	14.8591
477.456	14.7101
479.215	14.7557
480.973	14.2523
482.733	14.2894
484.491	13.5269
486.249	13.5232
488.006	14.5951
489.765	15.1488
491.522	15.5611
493.278	16.5595
495.034	17.5502
496.789	18.1427
498.544	18.8273
500.301	20.0335
502.056	20.317
503.81	20.8121
505.564	21.5208
507.317	21.9836
509.071	22.1679
510.825	22.7482
512.578	22.4288
514.33	22.165
516.082	21.9258
517.833	22.0648
519.585	21.689
521.335	22.1223
523.086	22.6246
524.836	22.5877
526.586	23.4169
528.335	22.4586
530.085	22.4879
531.835	22.3575
533.584	21.9916
535.332	22.2477
537.08	21.761
538.827	21.8547
540.574	20.2833
542.321	20.114
544.068	19.8513
545.814	19.2922
547.56	18.0994
549.305	16.6656
551.05	16.0464
552.795	15.7727
554.54	14.5635
556.282	13.6397
558.025	13.5598
559.769	13.5076
561.512	12.3919
563.255	11.5296
564.997	9.76316
566.739	8.98539
568.481	7.97679
570.223	8.07984
571.964	7.27705
573.705	7.84104
575.443	7.53591
577.183	6.58075
578.923	6.08539
580.663	6.70463
582.402	6.0811
584.141	5.98295
585.879	5.74447
587.615	5.24589
589.353	4.19674
591.09	3.97732
592.828	4.63553
594.564	3.93232
596.299	3.99858
598.035	4.60827
599.771	5.60294
601.506	5.83942
603.242	6.30682
604.974	6.89713
606.709	7.84489
608.443	9.47516
610.177	9.75569
611.908	9.85457
613.642	10.5154
615.374	10.7591
617.105	11.5714
618.837	11.5761
620.569	11.2173
622.3	11.3884
624.03	11.7324
625.761	12.6169
627.491	13.0741
629.219	14.9053
630.949	15.3468
632.677	15.936
634.406	16.7927
636.135	17.8933
637.861	19.8782
639.59	20.8538
641.318	20.9391
643.043	21.6362
644.77	21.8156
646.495	21.2335
648.222	20.414
649.948	20.8854
651.672	21.6832
653.398	22.1718
655.121	22.416
656.846	23.4848
658.569	23.7973
660.293	24.3671
662.015	24.8869
663.738	25.622
665.46	25.8559
667.183	26.5768
668.903	26.5754
670.626	26.4871
672.346	26.2057
674.067	25.8257
675.787	26.0902
677.508	27.1819
679.226	27.4152
680.947	27.8408
682.665	29.5802
684.385	30.4653
686.102	30.6638
687.821	30.3157
689.538	30.6417
691.254	31.0358
692.972	31.3719
694.688	31.8889
696.406	31.0364
698.121	31.5104
699.835	31.4917
701.552	32.802
703.266	32.5523
704.98	32.3178
706.695	32.4248
708.409	33.7375
710.121	34.8839
711.836	36.2694
713.548	36.5158
715.26	37.9118
716.973	37.9884
718.685	38.9231
720.396	39.6634
722.108	39.9888
723.818	40.577
725.528	40.2331
727.238	40.7476
728.949	40.9168
730.658	41.167
732.367	41.5072
734.075	43.4086
735.785	45.2488
737.493	46.1193
739.2	46.4926
740.907	47.4003
742.614	48.3061
744.322	49.6272
746.028	50.8192
747.734	52.0012
749.439	52.7027
751.144	52.3454
752.849	53.9418
754.555	54.8379
756.26	55.0232
757.963	56.844
759.667	57.7402
761.37	58.7943
763.073	59.7001
764.775	60.5003
766.477	61.3775
768.179	62.6334
769.883	62.3373
771.584	63.1218
773.285	64.1431
774.986	64.6991
776.686	65.9193
778.386	67.0234
780.085	67.3755
781.785	67.7738
783.484	69.2283
785.182	70.2383
786.881	71.4087
788.579	71.4931
790.276	72.8398
791.974	74.5141
793.671	74.8839
795.367	75.6333
797.064	76.386
798.76	76.5736
800.456	78.1407
802.151	78.5319
803.846	78.5915
805.541	78.3521
807.234	78.8894
808.928	79
810.622	79.0032
812.315	78.9082
814.008	79.2441
815.701	80.207
817.394	81.2438
819.086	82.6694
820.778	83.1695
822.468	83.5493
824.159	83.1714
825.85	83.2244
827.541	83.9495
829.231	83.8297
830.921	82.8261
832.609	82.9325
834.298	82.5038
835.987	81.8252
837.676	80.5952
839.364	79.9048
841.051	77.8257
842.738	77.006
844.426	75.6766
846.113	74.0312
847.798	73.2692
849.484	71.8145
851.171	71.0946
852.857	69.8757
854.54	68.4072
856.226	67.0699
857.911	66.1006
859.593	65.8486
861.278	65.0452
862.961	64.1503
864.645	62.6831
866.327	62.383
868.01	61.0284
869.692	59.2467
871.373	58.3419
873.055	57.6538
874.735	57.0646
876.416	55.5413
878.097	53.7888
879.776	54.5186
881.457	53.4056
883.135	53.2031
884.815	52.8468
886.495	51.9317
888.172	51.6757
889.851	51.6567
891.528	51.5813
893.206	50.7522
894.882	51.5365
896.56	52.1911
898.237	52.9703
899.912	53.104
901.589	52.6554
903.263	52.1992
904.94	51.5162
906.614	50.9352
908.289	50.641
909.962	51.2235
911.635	51.5648
913.31	51.4404
914.982	51.6317
916.656	50.6411
918.328	48.7281
920.001	48.1793
921.672	47.6924
923.345	48.5195
925.015	47.4488
926.685	47.4619
928.357	47.4094
930.026	46.8535
931.698	46.3036
933.366	45.8236
935.035	45.2104
936.705	44.2525
938.373	44.3155
940.041	43.6714
941.71	43.4415
943.377	42.2918
945.044	40.7484
946.712	40.2264
948.378	38.752
950.044	38.9445
951.709	38.3521
953.376	38.1202
955.041	38.3467
956.706	39.0782
958.372	38.9599
960.036	38.3214
961.699	38.6246
963.362	38.8514
965.027	38.3504
966.69	39.3811
968.352	39.6572
970.014	40.1819
971.676	40.2273
973.339	40.1873
975	39.707
976.661	39.2201
978.322	39.1962
979.982	38.0202
981.642	37.5405
983.303	37.4208
984.962	37.2587
986.621	37.6376
988.28	37.2503
989.938	37.8073
991.596	37.2037
993.254	36.9963
994.911	35.787
996.57	35.2351
998.227	34.0005
999.884	32.5296
1001.54	32.0431
1003.2	32.4105
1004.85	31.1656
1006.51	31.0675
1008.16	30.6056
1009.82	29.0792
1011.47	28.858
1013.12	28.1577
1014.78	27.293
1016.43	27.0948
1018.08	26.5617
1019.74	26.3368
1021.39	25.56
1023.04	24.4989
1024.69	24.1295
1026.34	23.505
1028	23.6324
1029.65	23.6949
1031.3	23.3052
1032.95	23.3248
1034.6	22.4833
1036.25	22.3921
1037.9	22.3026
1039.54	22.8287
1041.19	22.059
1042.84	22.0012
1044.49	22.5958
1046.14	23.0963
1047.78	24.3311
1049.43	25.1388
1051.08	24.904
1052.72	24.973
1054.37	24.2657
1056.02	23.7618
1057.66	23.4826
1059.31	23.5148
1060.95	23.2385
1062.6	24.2334
1064.24	24.94
1065.88	24.6994
1067.53	23.6491
1069.17	22.7886
1070.81	22.7066
1072.45	22.7022
1074.1	21.9169
1075.74	22.1567
1077.38	20.5294
1079.02	20.858
1080.66	20.4577
1082.3	19.585
1083.94	18.7628
1085.58	18.9751
1087.22	17.78
1088.86	18.7677
1090.5	17.6805
1092.14	16.6425
1093.78	17.4113
1095.42	17.0581
1097.05	16.5506
1098.69	15.9401
1100.33	15.9108
1101.96	16.1646
1103.6	15.5159
1105.24	14.657
1106.87	14.3983
1108.51	14.0833
1110.14	14.1163
1111.78	14.4652
1113.41	14.3299
1115.05	14.8031
1116.68	15.3496
1118.31	15.6666
1119.95	15.4264
1121.58	15.6715
1123.21	15.4342
1124.85	14.9923
1126.48	14.6836
1128.11	15.2477
1129.74	15.5525
1131.37	14.4071
1133	14.0584
1134.63	13.7799
1136.26	13.3081
1137.89	13.3954
1139.52	13.7385
1141.15	12.8823
1142.78	12.7497
1144.41	13.0529
1146.04	12.7468
1147.66	11.6046
1149.29	10.6286
1150.92	10.8791
1152.55	11.2738
1154.17	10.5517
1155.8	9.90656
1157.43	9.88906
1159.05	9.0201
1160.68	9.56649
1162.3	9.46837
1163.93	8.40026
1165.55	7.86744
1167.17	7.89062
1168.8	7.49216
1170.42	8.47387
1172.05	8.12463
1173.67	8.30784
1175.29	8.39597
1176.91	7.18254
1178.54	7.61461
1180.16	8.01179
1181.78	8.63168
1183.4	9.08679
1185.02	8.51882
1186.64	9.1329
1188.26	10.6403
1189.88	11.2559
1191.5	11.8148
1193.12	12.1317
1194.74	12.9345
1196.36	12.9437
1197.97	12.2493
1199.59	13.0746
1201.21	13.5589
1202.83	14.5921
1204.44	14.8534
1206.06	15.7045
1207.68	16.7
1209.29	17.9448
1210.91	17.8613
1212.52	16.9896
1214.14	18.5045
1215.75	19.7348
1217.37	20.2608
1218.98	20.1423
1220.59	21.1063
1222.21	20.4917
1223.82	21.8059
1225.43	22.5249
1227.05	23.9374
1228.66	23.7107
1230.27	24.8699
1231.88	26.6262
1233.49	26.8038
1235.1	27.2975
1236.72	28.4197
1238.33	29.1623
1239.94	30.054
1241.55	31.5456
1243.16	32.8765
1244.76	33.2645
1246.37	33.5859
1247.98	34.6347
1249.59	35.2044
1251.2	36.7204
1252.8	37.1412
1254.41	37.1888
1256.02	37.0384
1257.62	37.3533
1259.23	39.0063
1260.84	39.3643
1262.44	40.5316
1264.05	41.9131
1265.66	42.5194
1267.26	43.0627
1268.86	43.8795
1270.47	44.0837
1272.07	45.1558
1273.67	46.346
1275.28	47.7816
1276.88	47.9834
1278.48	49.1924
1280.09	51.5022
1281.69	52.0136
1283.29	51.8084
1284.89	52.1131
1286.49	53.0066
1288.09	53.2885
1289.69	53.0016
1291.29	53.1736
1292.89	53.4496
1294.49	54.8658
1296.09	55.6749
1297.69	55.7845
1299.29	55.0466
1300.89	55.6247
1302.49	55.2948
1304.08	56.3674
1305.68	56.0267
1307.28	55.855
1308.88	55.5294
1310.47	56.0779
1312.07	56.4317
1313.66	56.1424
1315.26	55.8831
1316.85	56.5575
1318.45	56.5365
1320.04	56.7834
1321.64	56.1755
1323.23	55.5246
1324.83	53.6982
1326.42	52.8738
1328.01	53.3206
1329.61	52.0649
1331.2	51.3194
1332.79	49.8925
1334.38	48.358
1335.97	47.1276
1337.56	47.2416
1339.16	46.2967
1340.75	45.5151
1342.34	45.1235
1343.93	44.3204
1345.52	43.694
1347.11	42.9793
1348.7	42.8548
1350.29	42.8161
1351.87	42.5107
1353.46	41.5346
1355.05	41.0095
1356.64	40.7135
1358.22	40.9397
1359.81	40.4522
1361.4	38.7232
1362.98	38.2185
1364.57	37.5535
1366.16	36.9673
1367.74	35.8157
1369.33	35.0788
1370.91	36.1206
1372.5	36.2683
1374.08	35.9473
1375.67	35.6434
1377.25	34.7258
1378.83	33.7269
1380.41	33.9743
1382	34.127
1383.58	33.4076
1385.16	33.1712
1386.74	33.5263
1388.33	33.5854
1389.91	32.3541
1391.49	32.0979
1393.07	31.3499
1394.65	30.3205
1396.23	29.6907
1397.81	28.3382
1399.39	27.3898
1400.97	27.214
1402.55	26.693
1404.13	26.2469
1405.7	26.2854
1407.28	25.3719
1408.86	23.6698
1410.44	23.6491
1412.01	23.566
1413.59	24.2594
1415.17	25.4739
1416.74	26.8188
1418.32	27.7568
1419.89	28.9442
1421.47	30.5128
1423.04	32.3166
1424.62	34.0716
1426.19	36.042
1427.77	37.3834
1429.34	39.1888
1430.91	40.953
1432.49	42.1939
1434.06	44.9046
1435.63	46.1428
1437.2	47.0956
1438.78	47.7397
1440.35	48.8503
1441.92	50.6576
1443.49	51.9059
1445.06	53.6939
1446.63	54.8107
1448.2	55.5769
1449.77	56.9577
1451.34	56.6863
1452.91	56.5237
1454.48	57.2983
1456.05	57.0828
1457.62	56.6209
1459.18	55.8229
1460.75	54.6132
1462.32	53.2321
1463.89	52.6238
1465.45	50.8049
1467.02	48.6238
1468.59	47.1432
1470.15	46.668
1471.72	44.6892
1473.28	42.8347
1474.85	42.0495
1476.41	41.0406
1477.98	39.6968
1479.54	37.6474
1481.1	35.3903
1482.67	33.2717
1484.23	30.833
1485.79	29.6242
1487.36	27.9009
1488.92	27.2201
1490.48	25.3015
1492.04	25.4214
1493.61	24.1525
1495.17	23.4143
1496.73	22.6932
1498.29	21.3214
1499.85	21.3922
1501.41	20.9512
1502.97	21.0817
1504.53	20.5938
1506.09	19.6758
1507.65	19.6503
1509.2	19.2387
1510.76	18.312
1512.32	17.8101
1513.88	16.4283
1515.43	15.9388
1516.99	15.5632
1518.55	16.0325
1520.1	16.2248
1521.66	16.1285
1523.22	15.6693
1524.77	15.9062
1526.33	15.6446
1527.88	16.1121
1529.44	15.9792
1530.99	16.4501
1532.54	16.1317
1534.1	16.0577
1535.65	16.7839
1537.21	17.4623
1538.76	18.3994
1540.31	19.3313
1541.86	19.5273
1543.42	19.5985
1544.97	21.0088
1546.52	22.4743
1548.07	23.4415
1549.62	24.3527
1551.17	25.1083
1552.72	26.4628
1554.27	26.9283
1555.82	27.2968
1557.37	27.6291
1558.92	27.8777
1560.47	27.8136
1562.02	28.1756
1563.56	28.6257
1565.11	28.5771
1566.66	29.2276
1568.21	29.1741
1569.75	31.144
1571.3	31.6894
1572.85	33.3196
1574.39	33.8726
1575.94	34.3511
1577.49	35.2489
1579.03	35.9879
1580.57	36.8306
1582.12	36.7617
1583.66	36.7744
1585.21	37.1454
1586.75	37.4262
1588.3	36.88
1589.84	37.1573
1591.38	37.8004
1592.92	38.8113
1594.47	39.3726
1596.01	41.3708
1597.55	41.4554
1599.09	41.2573
1600.63	40.7041
1602.17	41.569
1603.71	41.0577
1605.25	41.2689
1606.79	40.6725
1608.33	41.205
1609.87	41.04
1611.41	41.7504
1612.95	41.9468
1614.49	41.1267
1616.03	40.6416
1617.57	40.6973
1619.1	41.1925
1620.64	42.1036
1622.18	43.6789
1623.72	44.5392
1625.25	45.3584
1626.79	45.8615
1628.32	46.534
1629.86	46.8763
1631.39	47.5514
1632.93	46.2472
1634.46	47.1664
1636	48.0536
1637.53	48.1566
1639.07	48.5724
1640.6	48.9957
1642.13	49.3952
1643.67	49.8118
1645.2	50.6476
1646.73	52.0608
1648.26	52.7404
1649.8	53.383
1651.33	52.8536
1652.86	53.0213
1654.39	52.6581
1655.92	52.8623
1657.45	52.3423
1658.98	52.1982
1660.51	51.7329
1662.04	51.948
1663.57	50.8126
1665.1	50.1857
1666.63	50.1668
1668.16	49.3939
1669.68	48.4608
1671.21	46.8958
1672.74	45.6637
1674.27	43.4756
1675.79	41.2577
1677.32	39.6952
1678.85	38.7263
1680.37	36.4761
1681.9	35.4086
1683.42	33.5103
1684.95	32.7768
1686.47	30.3508
1688	28.7249
1689.52	27.0473
1691.05	25.6453
1692.57	24.5363
1694.09	23.018
1695.62	22.3182
1697.14	21.1126
1698.66	19.7767
1700.18	18.4538
1701.71	16.9076
1703.23	14.8395
1704.75	13.0959
1706.27	11.1259
1707.79	10.7426
1709.31	8.98428
1710.83	9.21423
1712.35	7.91406
1713.87	5.95831
1715.39	5.46632
1716.91	4.78822
1718.43	4.02736
1719.95	3.48763
1721.47	2.71294
1722.99	2.26637
1724.5	1.91132
1726.02	1.47094
1727.54	0.771362
1729.06	0.483386
1730.57	0.0318266
1732.09	0.336662
1733.61	-0.180966
1735.12	-0.0882026
1736.64	-0.0185765
1738.15	0.0115076
1739.67	-0.172012
1741.18	0.240732
1742.7	-0.322825
1744.21	-0.35364
1745.72	-0.355428
1747.24	-0.509387
1748.75	-0.144001
1750.26	-0.0297776
1751.77	0.215787
1753.29	1.19779
1754.8	1.67737
1756.31	1.96827
1757.82	2.14642
1759.33	2.02085
1760.84	1.97611
1762.36	1.49164
1763.87	2.04647
1765.38	2.36276
1766.89	2.0097
1768.4	1.41396
1769.91	1.70503
1771.41	2.30956
1772.92	1.33057
1774.43	1.19171
1775.94	1.47828
1777.45	1.1743
1778.95	0.829562
1780.46	0.95093
1781.97	1.5963
1783.48	2.34207
1784.98	2.23329
1786.49	2.70705
1787.99	2.31798
1789.5	2.20613
1791.01	2.52834
1792.51	2.12637
1794.01	2.58916
1795.52	2.64468
1797.02	2.7189
1798.53	3.31178
1800.03	3.24579
1801.53	2.88504
1803.04	2.91278
1804.54	3.25303
1806.04	3.5612
1807.54	3.58
1809.05	3.62778
1810.55	3.98883
1812.05	4.64688
1813.55	4.91518
1815.05	5.25019
1816.55	5.62866
1818.05	5.39479
1819.55	6.23358
1821.05	6.532
1822.55	6.83574
1824.05	7.41753
1825.55	7.60906
1827.05	7.47761
1828.55	7.49562
1830.04	6.65128
1831.54	6.21725
1833.04	6.29056
1834.54	6.04857
1836.03	5.91317
1837.53	5.79704
1839.03	5.83532
1840.52	5.8345
1842.02	5.08697
1843.51	5.22539
1845.01	5.44522
1846.5	5.28688
1848	5.29599
1849.49	5.85633
1850.99	6.03745
1852.48	5.96841
1853.97	6.11772
1855.47	5.99517
1856.96	6.35773
1858.45	6.02278
1859.94	6.00847
1861.44	6.32672
1862.93	6.16151
1864.42	5.88229
1865.91	5.87551
1867.4	5.47858
1868.89	6.22977
1870.38	5.63199
1871.87	5.4151
1873.36	5.8338
1874.85	5.30443
1876.34	4.57062
1877.83	4.29604
1879.32	4.31661
1880.81	4.60283
1882.3	4.48689
1882.57	4.91388
1884.07	5.23579
1885.56	5.37301
1887.06	5.28375
1888.55	5.0436
1890.04	5.38503
1891.54	5.40153
1893.03	5.45306
1894.52	4.79521
1896.02	4.13328
1897.51	3.97033
1899	3.73801
1900.49	3.81914
1901.98	4.0233
1903.47	3.74115
1904.96	3.63914
1906.45	3.34757
1907.94	3.22516
1909.43	3.67792
1910.92	3.31339
1912.41	3.17442
1913.9	3.24728
1915.39	2.86375
1916.88	3.24985
1918.37	3.04946
1919.85	2.63965
1921.34	2.62121
1922.83	2.56411
1924.32	2.37039
1925.8	2.46373
1927.29	2.69825
1928.78	2.72155
1930.26	2.65923
1931.75	2.77494
1933.23	2.79826
1934.72	2.79571
1936.2	3.02343
1937.69	2.51906
1939.17	3.41923
1940.66	4.17479
1942.14	4.39254
1943.63	3.52761
1945.11	3.34411
1946.59	3.34812
1948.07	2.58411
1949.56	2.67444
1951.04	3.49596
1952.52	3.78844
1954	4.14934
1955.48	4.47824
1956.96	4.7479
1958.45	4.38571
1959.93	4.31655
1961.41	4.35184
1962.89	4.18753
1964.37	4.42127
1965.85	4.4025
1967.32	4.32036
1968.8	4.03534
1970.28	3.94895
1971.76	4.50143
1973.24	4.71204
1974.72	4.53002
1976.19	4.09934
1977.67	3.7064
1979.15	3.67862
1980.63	3.82062
1982.1	3.80188
1983.58	3.26493
1985.05	2.53293
1986.53	3.08071
1988	2.97389
1989.48	2.77737
1990.95	2.60125
1992.43	1.69475
1993.9	1.55702
1995.38	2.11296
1996.85	2.07187
1998.32	1.87915
1999.8	1.93233
2001.27	1.68886
2002.74	1.09996
2004.22	0.566057
2005.69	0.565927
2007.16	0.834356
2008.63	1.03065
2010.1	1.34033
2011.57	0.668539
2013.04	0.975006
2014.51	1.22465
2015.98	0.561595
2017.45	0.788465
2018.92	1.71133
2020.39	1.8038
2021.86	1.8844
2023.33	2.1374
2024.8	1.72159
2026.27	1.71297
2027.74	2.23849
2029.2	2.29477
2030.67	1.69291
2032.14	1.42348
2033.61	1.17413
2035.07	1.13981
2036.54	1.14795
2038.01	0.859529
2039.47	0.859834
2040.94	0.888285
2042.4	0.550878
2043.87	0.741995
2045.33	0.9888
2046.8	1.11699
2048.26	1.52024
2049.72	2.30044
2051.19	2.64998
2052.65	3.20289
2054.12	3.10753
2055.58	3.57406
2057.04	3.76608
2058.5	4.19624
2059.97	4.61258
2061.43	4.50453
2062.89	4.85139
2064.35	4.99622
2065.81	5.1879
2067.27	6.12919
2068.73	6.80659
2070.19	6.65287
2071.65	6.37023
2073.11	6.62709
2074.57	6.54366
2076.03	6.60174
2077.49	7.12891
2078.95	7.62177
2080.41	8.64363
2081.87	8.59723
2083.32	9.60938
2084.78	10.0625
2086.24	10.9525
2087.7	12.3057
2089.15	13.1005
2090.61	14.1026
2092.07	14.5371
2093.52	14.2251
2094.98	15.0214
2096.43	15.8449
2097.89	15.6994
2099.34	16.2388
2100.8	16.3867
2102.25	16.3175
2103.71	16.8643
2105.16	17.1396
2106.61	17.1548
2108.07	17.5334
2109.52	17.9407
2110.97	18.9379
2112.43	20.4835
2113.88	22.1851
2115.33	22.8743
2116.78	24.3537
2118.23	25.4194
2119.68	27.0407
2121.13	28.0832
2122.59	29.1611
2124.04	30.1471
2125.49	31.3608
2126.94	32.4085
2128.39	33.5724
2129.83	34.6832
2131.28	35.5328
2132.73	36.8596
2134.18	38.2761
2135.63	40.0369
2137.08	41.3755
2138.53	42.4275
2139.97	43.5799
2141.42	44.4004
2142.87	45.2032
2144.31	46.3925
2145.76	48.0215
2147.21	49.3327
2148.65	50.5247
2150.1	51.528
2151.54	52.3412
2152.99	53.4939
2154.43	54.083
2155.88	54.6944
2157.32	55.1182
2158.77	55.5318
2160.21	56.0588
2161.65	56.1735
2163.1	55.9318
2164.54	56.0559
2165.98	55.8966
2167.43	55.8591
2168.87	55.4991
2170.31	54.4805
2171.75	54.4316
2173.19	53.7512
2174.64	52.9916
2176.07	52.4895
2177.52	52.0506
2178.96	51.7532
2180.4	51.3696
2181.84	51.0669
2183.28	50.9138
2184.72	50.0445
2186.15	49.2048
2187.59	47.5186
2189.03	46.3828
2190.47	44.9764
2191.91	43.9779
2193.35	42.8051
2194.78	42.2823
2196.22	41.6609
2197.66	40.4388
2199.09	39.6855
2200.53	39.2273
2201.97	38.2989
2203.4	37.9564
2204.84	37.6005
2206.27	36.7182
2207.71	35.6817
2209.14	34.737
2210.58	33.6675
2212.01	33.4762
2213.45	32.6619
2214.88	32.2508
2216.31	31.7659
2217.75	30.7615
2219.18	29.5452
2220.61	28.5155
2222.05	27.7728
2223.48	27.2291
2224.91	26.7473
2226.34	26.3315
2227.78	25.0168
2229.21	24.451
2230.64	23.6527
2232.07	23.4842
2233.5	23.3759
2234.93	22.9689
2236.36	22.7787
2237.79	22.1317
2239.22	21.6273
2240.65	20.9819
2242.08	20.3409
2243.5	19.9758
2244.93	19.6333
2246.36	19.2158
2247.79	19.5598
2249.22	19.472
2250.64	18.5063
2252.07	17.2226
2253.5	16.4824
2254.92	15.928
2256.35	14.7467
2257.78	14.5032
2259.2	13.6456
2260.63	13.5777
2262.05	13.3912
2263.48	12.4912
2264.9	11.8863
2266.33	11.4521
2267.75	11.0976
2269.18	10.3942
2270.6	10.3968
2272.02	9.90631
2273.45	9.34585
2274.87	9.41712
2276.29	8.344
2277.71	8.43125
2279.14	8.44863
2280.56	8.64518
2281.98	8.40074
2283.4	8.09469
2284.82	7.56829
2286.24	7.25755
2287.66	7.03665
2289.08	6.29914
2290.5	5.84722
2291.92	5.00064
2293.34	4.141
2294.76	4.17317
2296.18	4.01343
2297.6	4.28013
2299.02	4.1855
2300.44	4.97339
2301.86	6.10518
2303.27	6.62827
2304.69	6.80104
2306.11	7.1779
2307.53	7.65333
2308.94	7.5815
2310.36	7.56831
2311.78	7.78685
2313.19	7.70291
2314.61	8.08085
2316.02	8.02665
2317.44	7.68394
2318.85	8.21951
2320.27	7.96121
2321.68	7.54997
2323.1	7.54614
2324.51	7.31243
2325.92	7.22461
2327.34	7.31461
2328.75	7.44599
2330.16	6.7432
2331.58	6.77842
2332.99	6.11269
2334.4	5.58036
2335.81	5.77441
2337.23	5.36556
2338.64	5.23668
2340.05	5.19911
2341.46	4.96316
2342.87	5.01009
2344.28	4.5766
2345.69	4.57703
2347.1	3.95669
2348.51	3.82252
2349.92	2.66895
2351.33	1.94692
2352.74	1.19453
2354.15	0.427698
2355.55	-0.0354763
2356.96	-0.0748396
2358.37	-0.827007
2359.78	-1.58602
2361.19	-1.93111
2362.59	-2.17283
2364	-1.18874
2365.41	-0.3725
2366.81	-0.420893
2368.22	0.71938
2369.62	1.28713
2371.03	1.21305
2372.44	1.8342
2373.84	1.60134
2375.24	1.816
2376.65	1.85315
2378.05	1.59949
2379.46	0.964387
2380.86	0.962748
2382.26	0.827184
2383.67	0.683855
2385.07	1.51567
2386.47	1.84694
2387.88	2.6627
2389.28	3.50283
2390.68	3.26641
2392.08	3.82574
2393.48	3.80355
2394.89	4.09838
2396.29	4.2679
2397.69	4.07363
2399.09	4.20245
2400.49	4.49372
2401.89	4.67638
2403.29	4.67381
2404.69	4.68727
2406.09	5.25537
2407.48	5.07296
2408.88	4.98829
2410.28	4.90953
2411.68	4.49231
2413.08	4.96145
2414.48	4.49626
2415.87	4.71997
2417.27	4.63805
2418.67	5.09744
2420.06	4.97233
2421.46	4.86002
2422.86	5.18428
2424.25	5.19846
2425.65	5.46768
2427.04	5.59882
2428.44	4.82903
2429.83	5.0375
2431.23	5.57769
2432.62	5.61859
2434.02	6.2683
2435.41	6.339
2436.81	6.50558
2438.2	6.8115
2439.59	6.3866
2440.99	5.73929
2442.38	5.90505
2443.77	5.6266
2445.16	5.65888
2446.56	5.29403
2447.95	5.76333
2449.34	5.87188
2450.73	6.62676
2452.12	6.87121
2453.51	7.44051
2454.9	8.10353
2456.29	8.25385
2457.68	8.32738
2459.07	8.25581
2460.46	8.28953
2461.85	8.36538
2463.24	7.60373
2464.63	7.69301
2466.02	7.49842
2467.4	7.42713
2468.79	7.49876
2470.18	7.5792
2471.57	7.50285
2472.95	7.76388
2474.34	7.12581
2475.73	7.3942
2477.12	6.54926
2478.5	6.53911
2479.89	6.68349
2481.27	6.4641
2482.66	6.51268
2484.04	6.27269
2485.43	6.40201
2486.81	6.24649
2488.2	6.09229
2489.58	5.7901
2490.97	5.84061
2492.35	5.75532
2493.73	5.78277
2495.12	6.17096
2496.5	6.54169
2497.88	6.53948
2499.27	6.33515
2500.65	6.48474
2502.03	5.9257
2503.41	6.17268
2504.79	5.66326
2506.17	5.32772
2507.56	5.07846
2508.94	5.04357
2510.32	5.01566
2511.7	4.9657
2513.08	4.48869
2514.46	4.69153
2515.84	4.07806
2517.22	4.4417
2518.59	3.94551
2519.97	3.55412
2521.35	3.27466
2522.73	3.30518
2524.11	2.77313
2525.49	2.66232
2526.86	2.45519
2528.24	2.27938
2529.62	2.47124
2530.99	2.28943
2532.37	2.86672
2533.75	2.97779
2535.12	3.38239
2536.5	2.99087
2537.88	3.44083
2539.25	3.90773
2540.63	4.34761
2542	3.99364
2543.38	3.64297
2544.75	4.14918
2546.12	4.22649
2547.5	4.7312
2548.87	4.61359
2550.24	4.84981
2551.62	5.40046
2552.99	5.34924
2554.36	5.50843
2555.74	5.84145
2557.11	6.38397
2558.48	7.02559
2559.85	7.20001
2561.22	7.18859
2562.59	8.08357
2563.96	7.69068
2565.34	7.42869
2566.71	7.2309
2568.08	7.59063
2569.45	7.45806
2570.82	7.1394
2572.18	6.8014
2573.55	6.22168
2574.92	5.86682
2576.29	5.2384
2577.66	5.29473
2579.03	5.18184
2580.4	4.70308
2581.77	4.77114
2583.13	5.1135
2584.5	5.22623
2585.87	5.73586
2587.23	6.13307
2588.6	5.73368
2589.97	5.91668
2591.33	6.41919
2592.7	6.27469
2594.06	6.73803
2595.43	7.30504
2596.79	7.25866
2598.16	7.46612
2599.52	7.30145
2600.89	7.34455
2602.25	7.16737
2603.62	7.28644
2604.98	7.37237
2606.34	7.33331
2607.71	7.18787
2609.07	6.52193
2610.43	5.80957
2611.79	5.50804
2613.16	5.92758
2614.52	6.58533
2615.88	6.68268
2617.24	6.7905
2618.6	6.63881
2619.96	6.90052
2621.32	6.76094
2622.68	6.991
2624.04	7.20787
2625.4	7.0632
2626.76	7.00278
2628.12	6.72041
2629.48	6.91617
2630.84	6.89364
2632.2	6.46237
2633.56	6.47511
2634.92	7.40952
2636.28	7.18376
2637.63	6.76399
2638.99	6.85091
2640.35	6.99452
2641.71	7.21082
2643.06	8.12895
2644.42	8.68374
2645.77	9.40329
2647.13	9.78695
2648.49	9.72488
2649.84	10.4547
2651.2	10.5843
2652.55	11.1382
2653.91	10.6108
2655.26	10.2493
2656.62	10.2542
2657.97	10.5555
2659.33	10.5411
2660.68	10.0596
2662.03	10.1267
2663.39	9.72556
2664.74	9.04643
2666.09	9.3176
2667.44	9.42717
2668.8	9.09619
2670.15	8.87032
2671.5	7.94196
2672.85	7.43716
2674.2	6.67812
2675.55	6.74091
2676.91	6.22942
2678.26	6.55157
2679.61	6.79077
2680.96	7.652
2682.31	8.23428
2683.66	8.1727
2685	8.16069
2686.35	8.03427
2687.7	8.13253
2689.05	8.10361
2690.4	7.78177
2691.75	7.80793
2693.1	8.25607
2694.44	8.3119
2695.79	8.25274
2697.14	8.62424
2698.49	8.59553
2699.83	9.0964
2701.18	9.37676
2702.52	10.3053
2703.87	10.3529
2705.22	10.9011
2706.56	11.529
2707.91	12.24
2709.25	12.9074
2710.6	13.6258
2711.94	13.5593
2713.29	13.6715
2714.63	13.925
2715.97	14.149
2717.32	14.4116
2718.66	14.3307
2720.01	14.4486
2721.35	13.828
2722.69	14.2822
2724.03	15.2044
2725.38	14.6573
2726.72	14.4403
2728.06	14.2496
2729.4	13.8755
2730.74	13.3273
2732.08	13.3565
2733.42	12.5071
2734.76	11.8294
2736.1	10.9983
2737.44	10.4484
2738.78	9.50864
2740.12	9.8904
2741.46	10.4636
2742.8	10.2716
2744.14	10.2509
2745.48	9.95431
2746.82	10.0858
2748.16	10.1093
2749.49	9.67539
2750.83	8.64293
2752.17	8.05463
2753.51	7.9622
2754.84	7.36904
2756.18	6.96152
2757.52	6.2294
2758.85	5.74571
2760.19	5.38516
2761.53	4.54425
2762.86	4.03149
2764.2	4.24149
2765.53	4.39074
2766.87	4.59213
2768.2	4.67675
2769.54	4.87852
2770.87	4.45298
2772.2	4.00718
2773.54	4.29585
2774.87	4.1555
2776.2	4.36389
2777.54	4.17712
2778.87	3.89146
2780.2	3.63939
2781.53	3.48297
2782.87	3.26821
2784.2	3.04194
2785.53	3.08637
2786.86	2.35734
2788.19	1.89553
2789.52	1.95448
2790.85	1.4843
2792.18	0.992181
2793.51	1.11931
2794.84	1.02359
2796.17	0.863892
2797.5	0.836717
2798.83	1.06137
2800.16	0.485453
2801.49	0.696667
2802.82	0.30211
2804.15	0.0549754
2805.47	-0.00977032
2806.8	0.395406
2808.13	0.128361
2809.46	-0.377803
2810.78	-0.0408814
2812.11	0.173144
2813.44	0.509049
2814.76	0.732852
2816.09	0.448601
2817.42	0.607824
2818.74	0.919678
2820.07	1.23244
2821.39	1.22571
2822.72	1.18485
2824.04	1.84664
2825.37	2.29245
2826.69	3.259
2828.02	4.39177
2829.34	5.76041
2830.66	7.22661
2831.99	8.14219
2833.31	9.02956
2834.63	9.99096
2835.96	10.6537
2837.28	10.995
2838.6	12.5121
2839.92	14.8883
2841.24	16.3242
2842.57	17.8143
2843.89	18.4736
2845.21	19.9912
2846.53	21.8165
2847.85	23.2534
2849.17	25.2374
2850.49	27.618
2851.81	29.1513
2853.13	31.3367
2854.45	33.4361
2855.77	35.6774
2857.09	38.0479
2858.41	40.462
2859.72	42.6441
2861.04	44.1317
2862.36	46.1708
2863.68	48.4954
2865	50.8293
2866.31	52.2668
2867.63	53.6359
2868.95	54.7298
2870.26	56.1037
2871.58	57.7227
2872.9	58.9353
2874.21	60.0007
2875.53	61.668
2876.84	62.8095
2878.16	64.2515
2879.47	65.2234
2880.79	66.147
2882.1	67.1569
2883.42	68.0377
2884.73	68.8441
2886.05	70.1637
2887.36	71.5643
2888.67	72.7341
2889.99	74.3877
2891.3	75.9467
2892.61	77.554
2893.92	79.4001
2895.24	80.5191
2896.55	81.5892
2897.86	82.624
2899.17	84.639
2900.48	86.3694
2901.79	88.6443
2903.11	91.0944
2904.42	94.3277
2905.73	97.5148
2907.04	99.6865
2908.35	102.222
2909.66	104.984
2910.97	108.691
2912.27	111.826
2913.58	114.87
2914.89	118.327
2916.2	122.04
2917.51	124.028
2918.82	127.199
2920.13	128.998
2921.43	131.793
2922.74	133.822
2924.05	135.846
2925.35	137.341
2926.66	138.585
2927.97	139.793
2929.27	140.338
2930.58	140.44
2931.89	139.478
2933.19	139.363
2934.5	138.673
2935.8	137.864
2937.11	137.351
2938.41	135.859
2939.72	134.517
2941.02	133.724
2942.32	131.976
2943.63	130.728
2944.93	128.557
2946.24	126.211
2947.54	124.223
2948.84	121.972
2950.14	119.906
2951.45	117.347
2952.75	114.697
2954.05	111.628
2955.35	108.988
2956.65	106.505
2957.95	104.125
2959.26	101.284
2960.56	98.947
2961.86	96.9563
2963.16	94.3865
2964.46	92.3957
2965.76	89.6954
2967.06	87.3795
2968.36	85.0107
2969.66	82.5739
2970.96	79.9104
2972.25	77.3863
2973.55	75.5331
2974.85	73.4635
2976.15	70.6284
2977.45	68.3342
2978.74	65.8188
2980.04	63.1567
2981.34	60.2802
2982.64	57.15
2983.93	54.5069
2985.23	51.5308
2986.52	49.0255
2987.82	45.6784
2989.12	43.1084
2990.41	39.9692
2991.71	37.1665
2993	34.3247
2994.3	32.0006
2995.59	29.2982
2996.89	26.921
2998.18	25.2347
2999.48	22.4645
3000.77	20.3499
3002.06	18.4437
3003.36	15.5711
3004.65	13.9682
3005.94	13.1194
3007.23	11.1634
3008.53	10.1936
3009.82	8.74978
3011.11	7.43005
3012.4	6.33725
3013.69	5.63986
3014.99	4.15913
3016.28	3.39773
3017.57	2.98469
3018.86	2.38262
3020.15	2.54154
3021.44	2.30135
3022.73	2.08869
3024.02	1.35508
3025.31	1.39683
3026.6	0.765762
3027.89	0.608531
3029.18	0.920588
3030.46	0.958009
3031.75	1.59761
3033.04	1.9472
3034.33	2.18093
3035.62	2.7898
3036.9	3.52736
3038.19	3.96665
3039.48	4.13087
3040.76	4.55609
3042.05	5.44279
3043.34	6.00837
3044.62	6.35689
3045.91	6.66726
3047.19	7.7268
3048.48	8.2247
3049.77	9.26536
3051.05	9.83086
3052.34	10.68
3053.62	11.4808
3054.9	12.0108
3056.19	12.0091
3057.47	12.3906
3058.76	12.4584
3060.04	11.7649
3061.32	11.8393
3062.61	11.8067
3063.89	11.0831
3065.17	10.5414
3066.45	10.6082
3067.74	10.988
3069.02	11.8855
3070.3	11.6565
3071.58	11.4714
3072.86	11.123
3074.14	10.2875
3075.42	9.54553
3076.7	9.24299
3077.99	9.02921
3079.26	8.60003
3080.54	8.72869
3081.82	8.44466
3083.1	8.40036
3084.38	8.07113
3085.66	7.76416
3086.94	7.59208
3088.22	8.00859
3089.5	8.59226
3090.78	8.72546
3092.05	9.08776
3093.33	10.1334
3094.61	10.324
3095.89	10.6481
3097.16	11.248
3098.44	11.9812
3099.72	12.7679
3100.99	13.6998
3102.27	14.4874
3103.54	15.5107
3104.82	16.1894
3106.1	16.7225
3107.37	17.6788
3108.65	18.4273
3109.92	19.8897
3111.2	21.1811
3112.47	21.846
3113.74	22.5048
3115.02	23.3452
3116.29	24.8316
3117.56	25.2219
3118.84	25.893
3120.11	26.26
3121.38	27.1625
3122.66	27.7347
3123.93	28.4249
3125.2	29.7817
3126.47	30.8571
3127.74	31.5135
3129.01	32.6938
3130.29	34.3885
3131.56	35.3593
3132.83	35.5509
3134.1	35.7228
3135.37	36.7991
3136.64	36.8479
3137.91	38.0878
3139.18	39.1843
3140.45	40.5922
3141.72	41.8954
3142.99	43.1837
3144.26	44.4179
3145.52	45.8135
3146.79	47.4056
3148.06	49.7001
3149.33	51.0828
