#Acq. time (s)=	45
#Accumulations=	2
#Range (cm-¹)=	200...3150
#Windows=	2
#Auto scanning=	Off
#Autofocus=	Off
#Macrospot=	Off
#AutoExposure=	Off
#Spike filter=	Multiple accum.
#Delay time (s)=	0
#Binning=	1
#Readout mode=	Signal
#DeNoise=	Off
#ICS correction=	On
#Dark correction=	Off
#Inst. Process=	Off
#Detector Gain=	Best Dynamic Range
#Detector ADC=	20 kHz       
#Detector temperature (°C)=	-69.85
#Instrument=	LabRAM HR Evol
#Detector=	Synapse
#Objective=	x100
#Grating=	600 gr/mm
#ND Filter=	100%
#Laser (nm)=	532 
#Hole=	100.021
#Range=	Auto
#Laser Pol.=	No
#Raman. Pol.=	No
#Laser Pol. (°)=	-0.0007625
#Raman Pol. (°)=	89.9995
#Collection=	Microscope
#StageXY=	Marzhauser
#StageZ=	Marzhauser
#X (µm)=	2163.1
#Y (µm)=	1244.8
#Z (µm)=	442.15
#Full time(mm:ss)=	3:18
#Project=	
#Sample=	
#Site=	
#Title=	Thy_10_08_05_2x_45s_532 nm_x100_100%_600 gr_mm
#Remark=	
#Date=	05.07.2022 14:33
#Acquired=	05.07.2022 14:33:02
#Base:Fit=	10.08.2022 09:45:33
#Base:Fit=	10.08.2022 09:46:03
#Base:Fit=	10.08.2022 09:46:25
#Base:Sub=	10.08.2022 09:46:49
#Filter:Polynom=	16.08.2022 10:24:56
#AxisType[0]=Intens
#AxisUnit[0]=Cnt
#AxisType[1]=Spectr
#AxisUnit[1]=1/cm
200.43	24.4189
202.244	24.6983
204.059	23.5069
205.873	22.5893
207.688	21.3609
209.501	19.9418
211.314	18.4686
213.127	17.4888
214.941	15.9674
216.753	14.3689
218.564	13.0566
220.375	12.0545
222.186	10.5704
223.999	10.4624
225.809	8.42146
227.618	6.04909
229.428	5.61746
231.236	5.07162
233.045	4.57513
234.855	4.59846
236.663	4.1897
238.471	4.44038
240.278	4.00328
242.085	4.44273
243.891	4.86391
245.698	3.54854
247.503	3.3134
249.309	3.21972
251.116	3.44253
252.921	2.60204
254.725	2.1234
256.529	2.63349
258.333	3.13431
260.136	3.65185
261.939	4.31533
263.742	4.15037
265.544	4.46865
267.346	6.19821
269.148	7.49669
270.949	7.27845
272.75	6.96509
274.55	7.29964
276.351	8.26318
278.15	8.67126
279.95	9.95778
281.749	10.0892
283.548	9.22612
285.346	9.3035
287.144	9.7937
288.942	9.55155
290.739	10.2332
292.536	11.1008
294.333	10.947
296.129	10.9819
297.925	10.8964
299.721	11.9099
301.514	12.1236
303.309	13.1512
305.104	12.5316
306.898	13.2127
308.692	13.8338
310.486	14.0558
312.279	12.963
314.072	12.5089
315.862	10.868
317.654	12.0115
319.446	13.6386
321.238	14.0009
323.029	14.1675
324.819	13.9688
326.608	13.6598
328.398	12.8799
330.188	12.3479
331.977	12.703
333.766	12.8143
335.553	10.8472
337.341	11.1787
339.129	11.5491
340.917	12.2285
342.704	12.8461
344.489	12.9888
346.275	13.6579
348.062	13.2836
349.845	13.0808
351.631	13.2794
353.416	12.0802
355.201	12.0885
356.984	13.2134
358.768	11.7198
360.552	10.1291
362.333	9.79678
364.116	9.83442
365.899	10.0723
367.68	9.33372
369.462	9.54506
371.243	8.63328
373.023	8.12333
374.804	8.13324
376.585	8.79823
378.363	8.13742
380.143	8.4685
381.923	7.73704
383.7	7.37282
385.479	7.9288
387.256	7.78282
389.034	9.40346
390.812	8.47626
392.588	7.82927
394.365	6.88506
396.14	6.6459
397.916	6.15002
399.691	4.92014
401.467	3.29675
403.24	2.81968
405.015	2.67616
406.788	3.5698
408.563	3.18551
410.335	3.20702
412.109	2.54853
413.88	1.7792
415.654	1.77476
417.424	1.27845
419.197	1.3861
420.967	1.35087
422.739	1.59832
424.508	0.756184
426.279	3.13802
428.048	4.03933
429.819	4.20322
431.587	4.38095
433.356	4.0782
435.124	4.89666
436.891	4.18528
438.66	4.94172
440.426	5.24141
442.194	4.94427
443.96	5.10434
445.725	5.2605
447.492	4.72657
449.257	4.89029
451.021	4.92686
452.787	4.82693
454.551	4.39885
456.314	4.27147
458.079	3.88475
459.842	3.46769
461.604	4.04784
463.368	4.61756
465.13	5.39437
466.891	4.54073
468.654	4.35248
470.415	5.47099
472.175	6.7204
473.935	6.9446
475.696	7.20661
477.456	6.95848
479.215	6.39798
480.973	7.06681
482.733	8.42703
484.491	7.94983
486.249	8.74114
488.006	8.3486
489.765	8.26087
491.522	8.85831
493.278	11.2757
495.034	12.7399
496.789	14.3814
498.544	14.8134
500.301	14.4696
502.056	14.5613
503.81	15.1554
505.564	15.2288
507.317	16.0725
509.071	18.3557
510.825	19.9174
512.578	20.7047
514.33	20.3669
516.082	19.9258
517.833	21.175
519.585	21.8382
521.335	22.3733
523.086	23.208
524.836	23.0248
526.586	23.9982
528.335	24.0514
530.085	22.7686
531.835	22.5095
533.584	22.9058
535.332	23.0581
537.08	22.4513
538.827	22.2688
540.574	21.3388
542.321	20.6534
544.068	19.6386
545.814	18.6435
547.56	19.3088
549.305	18.8413
551.05	18.09
552.795	18.3482
554.54	18.3558
556.282	19.0334
558.025	19.7152
559.769	19.989
561.512	19.8637
563.255	19.0508
564.997	18.5963
566.739	19.3585
568.481	18.5315
570.223	17.6004
571.964	15.7254
573.705	16.2032
575.443	15.0232
577.183	14.8761
578.923	14.8743
580.663	15.2134
582.402	14.7141
584.141	14.1581
585.879	12.2462
587.615	11.4869
589.353	11.461
591.09	11.4126
592.828	10.9031
594.564	10.8643
596.299	10.8688
598.035	9.76527
599.771	9.18654
601.506	9.36695
603.242	11.2778
604.974	11.728
606.709	11.0334
608.443	11.6135
610.177	11.6004
611.908	10.7883
613.642	10.2415
615.374	9.99196
617.105	9.33148
618.837	9.63391
620.569	10.2735
622.3	10.4773
624.03	9.95174
625.761	10.4497
627.491	10.0601
629.219	11.2875
630.949	11.2669
632.677	12.4993
634.406	14.1938
636.135	14.7373
637.861	15.5158
639.59	17.1542
641.318	17.4131
643.043	17.9292
644.77	18.5831
646.495	19.2891
648.222	18.1332
649.948	18.6304
651.672	19.0693
653.398	18.8636
655.121	18.7485
656.846	18.8632
658.569	20.0169
660.293	19.7363
662.015	19.7848
663.738	20.0782
665.46	20.074
667.183	21.7569
668.903	22.5129
670.626	22.2371
672.346	23.5415
674.067	24.1963
675.787	24.7132
677.508	25.9679
679.226	26.8402
680.947	26.9071
682.665	28.1794
684.385	29.2235
686.102	29.6461
687.821	30.4401
689.538	30.3612
691.254	30.2628
692.972	30.7729
694.688	32.3597
696.406	32.8638
698.121	33.4143
699.835	33.4074
701.552	34.7409
703.266	35.105
704.98	36.1659
706.695	37.3178
708.409	38.9273
710.121	39.2131
711.836	41.504
713.548	41.7098
715.26	42.5027
716.973	42.3768
718.685	43.4441
720.396	44.2729
722.108	45.1718
723.818	45.6646
725.528	46.0342
727.238	45.4692
728.949	46.9868
730.658	48.3414
732.367	48.3895
734.075	48.8038
735.785	50.3689
737.493	49.5419
739.2	49.3775
740.907	50.2724
742.614	50.486
744.322	51.752
746.028	52.2358
747.734	54.8219
749.439	55.5097
751.144	56.7637
752.849	58.4358
754.555	59.3328
756.26	59.9076
757.963	61.1539
759.667	61.0544
761.37	63.0646
763.073	64.1662
764.775	64.7098
766.477	64.8136
768.179	66.4517
769.883	67.1799
771.584	67.7363
773.285	69.0828
774.986	69.6169
776.686	70.2096
778.386	71.1263
780.085	72.4896
781.785	72.4974
783.484	73.5723
785.182	74.301
786.881	75.4028
788.579	76.1771
790.276	77.2594
791.974	78.0248
793.671	78.5194
795.367	78.4517
797.064	79.7291
798.76	78.3952
800.456	80.125
802.151	80.7773
803.846	82.0197
805.541	82.1647
807.234	82.4377
808.928	81.3792
810.622	81.6884
812.315	82.4567
814.008	84.0208
815.701	84.0376
817.394	82.8276
819.086	83.4946
820.778	83.7695
822.468	83.4605
824.159	83.919
825.85	84.9367
827.541	86.1895
829.231	87.16
830.921	86.706
832.609	86.9685
834.298	86.0463
835.987	85.0471
837.676	85.1477
839.364	84.939
841.051	84.1043
842.738	83.9791
844.426	84.2456
846.113	84.5376
847.798	84.4658
849.484	83.9457
851.171	82.5599
852.857	81.4907
854.54	80.0131
856.226	78.6306
857.911	76.7262
859.593	74.8925
861.278	73.4013
862.961	72.6341
864.645	71.2788
866.327	70.1
868.01	68.755
869.692	67.2772
871.373	65.1592
873.055	64.4348
874.735	62.9134
876.416	60.7338
878.097	59.2292
879.776	59.0835
881.457	58.4475
883.135	56.5894
884.815	55.8058
886.495	54.3217
888.172	54.0994
889.851	52.3518
891.528	51.523
893.206	51.3851
894.882	50.6425
896.56	50.0882
898.237	50.4141
899.912	50.1538
901.589	50.1412
903.263	49.6493
904.94	49.3117
906.614	49.6376
908.289	50.1033
909.962	50.6893
911.635	49.927
913.31	48.9424
914.982	48.3919
916.656	48.2066
918.328	46.8355
920.001	47.5034
921.672	50.2808
923.345	51.0906
925.015	52.0043
926.685	51.4783
928.357	51.7726
930.026	51.7716
931.698	51.7245
933.366	50.865
935.035	51.1898
936.705	50.6754
938.373	50.4435
940.041	50.4739
941.71	49.4774
943.377	48.8697
945.044	47.8267
946.712	47.0398
948.378	46.636
950.044	47.1964
951.709	47.1093
953.376	47.4952
955.041	47.0607
956.706	46.2233
958.372	43.1445
960.036	40.7518
961.699	40.8807
963.362	41.1977
965.027	41.4103
966.69	43.1065
968.352	44.1017
970.014	47.0418
971.676	48.4481
973.339	49.3059
975	50.8947
976.661	52.7637
978.322	53.9494
979.982	56.1524
981.642	57.846
983.303	58.9232
984.962	59.3386
986.621	59.077
988.28	59.9326
989.938	59.8316
991.596	59.1826
993.254	59.2685
994.911	58.8146
996.57	59.7368
998.227	59.4358
999.884	58.5593
1001.54	59.1894
1003.2	59.658
1004.85	59.8302
1006.51	58.7501
1008.16	58.1823
1009.82	56.9606
1011.47	56.3172
1013.12	55.4241
1014.78	53.8265
1016.43	52.457
1018.08	50.0477
1019.74	48.0161
1021.39	47.6165
1023.04	46.3738
1024.69	44.5602
1026.34	43.9265
1028	41.9261
1029.65	40.7649
1031.3	39.4064
1032.95	37.3913
1034.6	36.0625
1036.25	33.5301
1037.9	31.1031
1039.54	27.5066
1041.19	25.8776
1042.84	27.3713
1044.49	28.189
1046.14	28.193
1047.78	29.5328
1049.43	30.1262
1051.08	29.5387
1052.72	29.7216
1054.37	29.6226
1056.02	28.8186
1057.66	28.5264
1059.31	28.3457
1060.95	27.1518
1062.6	26.8556
1064.24	26.3655
1065.88	25.578
1067.53	24.7265
1069.17	23.9083
1070.81	23.1653
1072.45	23.0013
1074.1	22.5839
1075.74	22.6446
1077.38	22.2759
1079.02	21.4865
1080.66	21.6696
1082.3	21.8169
1083.94	21.5782
1085.58	20.9603
1087.22	21.4374
1088.86	21.5376
1090.5	21.7697
1092.14	21.1085
1093.78	20.6906
1095.42	20.7075
1097.05	20.7737
1098.69	22.0902
1100.33	23.013
1101.96	24.0304
1103.6	24.8944
1105.24	24.4336
1106.87	25.2824
1108.51	25.6814
1110.14	24.5085
1111.78	24.4208
1113.41	24.0847
1115.05	23.1963
1116.68	23.9078
1118.31	21.9372
1119.95	20.302
1121.58	19.7466
1123.21	20.082
1124.85	19.2524
1126.48	18.316
1128.11	17.633
1129.74	16.8135
1131.37	14.6647
1133	13.2065
1134.63	12.6872
1136.26	11.9262
1137.89	10.2201
1139.52	9.93457
1141.15	9.9607
1142.78	10.125
1144.41	10.4854
1146.04	9.89847
1147.66	9.65625
1149.29	9.41245
1150.92	9.88503
1152.55	9.7846
1154.17	9.3733
1155.8	7.99058
1157.43	7.93615
1159.05	7.13652
1160.68	6.32224
1162.3	6.70638
1163.93	5.31121
1165.55	4.08819
1167.17	4.89188
1168.8	5.90274
1170.42	6.56316
1172.05	7.11097
1173.67	6.74928
1175.29	6.6055
1176.91	8.03476
1178.54	9.34305
1180.16	10.6959
1181.78	10.6931
1183.4	10.907
1185.02	11.8904
1186.64	13.9633
1188.26	16.0024
1189.88	16.7408
1191.5	16.5907
1193.12	17.2003
1194.74	19.1284
1196.36	21.44
1197.97	23.4449
1199.59	23.954
1201.21	25.1071
1202.83	28.0456
1204.44	28.9867
1206.06	30.7836
1207.68	32
1209.29	32.3635
1210.91	34.9625
1212.52	36.5692
1214.14	40.0339
1215.75	43.1965
1217.37	45.0702
1218.98	47.6797
1220.59	51.6612
1222.21	55.8726
1223.82	58.0769
1225.43	59.8326
1227.05	62.0479
1228.66	63.9395
1230.27	65.8024
1231.88	67.8022
1233.49	67.7572
1235.1	68.0236
1236.72	67.8848
1238.33	69.5276
1239.94	71.3224
1241.55	72.3206
1243.16	73.4214
1244.76	74.5865
1246.37	75.0961
1247.98	75.6023
1249.59	75.1922
1251.2	74.6417
1252.8	74.2566
1254.41	73.4998
1256.02	73.6919
1257.62	74.4572
1259.23	74.0192
1260.84	73.205
1262.44	72.5557
1264.05	73.0364
1265.66	73.5089
1267.26	74.9846
1268.86	74.3731
1270.47	74.0449
1272.07	74.2008
1273.67	74.6956
1275.28	75.137
1276.88	74.9921
1278.48	74.0398
1280.09	73.9162
1281.69	74.7842
1283.29	75.2344
1284.89	74.6251
1286.49	75.5223
1288.09	75.1627
1289.69	76.9693
1291.29	78.6149
1292.89	79.8284
1294.49	81.3716
1296.09	82.0739
1297.69	84.0081
1299.29	86.2902
1300.89	88.6656
1302.49	89.4221
1304.08	89.9985
1305.68	91.8637
1307.28	93.4205
1308.88	95.8117
1310.47	97.4205
1312.07	97.913
1313.66	99.0068
1315.26	99.5783
1316.85	100.74
1318.45	102.851
1320.04	103.663
1321.64	103.966
1323.23	104.605
1324.83	105.274
1326.42	104.389
1328.01	103.606
1329.61	102.905
1331.2	102.252
1332.79	102.24
1334.38	101.594
1335.97	102.21
1337.56	102.045
1339.16	101.19
1340.75	100.059
1342.34	99.3525
1343.93	98.2677
1345.52	96.4931
1347.11	94.9668
1348.7	92.2828
1350.29	90.6939
1351.87	88.6165
1353.46	85.2017
1355.05	82.1805
1356.64	80.0053
1358.22	77.5065
1359.81	74.92
1361.4	72.6087
1362.98	69.0236
1364.57	66.4628
1366.16	64.0204
1367.74	61.2344
1369.33	59.3734
1370.91	57.606
1372.5	55.102
1374.08	52.2921
1375.67	50.4241
1377.25	48.7175
1378.83	46.3606
1380.41	45.0789
1382	44.8196
1383.58	44.2816
1385.16	43.3054
1386.74	42.1861
1388.33	41.209
1389.91	38.9933
1391.49	37.5965
1393.07	37.2094
1394.65	35.5986
1396.23	36.151
1397.81	35.3103
1399.39	34.7308
1400.97	34.6483
1402.55	33.6248
1404.13	33.6615
1405.7	33.7451
1407.28	34.6127
1408.86	35.8752
1410.44	37.8038
1412.01	40.3478
1413.59	43.8957
1415.17	47.3546
1416.74	50.2043
1418.32	53.0083
1419.89	55.7184
1421.47	58.4605
1423.04	62.0343
1424.62	66.5967
1426.19	70.4289
1427.77	75.2512
1429.34	79.6156
1430.91	83.7399
1432.49	87.2718
1434.06	91.5863
1435.63	95.6697
1437.2	99.8538
1438.78	103.24
1440.35	106.529
1441.92	109.172
1443.49	110.365
1445.06	111.598
1446.63	112.445
1448.2	113.092
1449.77	113.712
1451.34	112.917
1452.91	112.728
1454.48	111.017
1456.05	110.4
1457.62	108.937
1459.18	108.397
1460.75	106.02
1462.32	101.797
1463.89	98.6144
1465.45	93.9864
1467.02	89.2624
1468.59	84.3792
1470.15	79.6003
1471.72	75.06
1473.28	69.7703
1474.85	65.3286
1476.41	59.4693
1477.98	54.4794
1479.54	49.4843
1481.1	44.6973
1482.67	41.0499
1484.23	37.8768
1485.79	34.1062
1487.36	30.6743
1488.92	27.7352
1490.48	24.6635
1492.04	23.0215
1493.61	19.161
1495.17	16.1011
1496.73	14.2423
1498.29	12.9317
1499.85	12.4278
1501.41	11.7562
1502.97	11.9486
1504.53	11.4938
1506.09	11.5326
1507.65	10.8702
1509.2	10.946
1510.76	10.8469
1512.32	11.5653
1513.88	11.4067
1515.43	11.9071
1516.99	12.1752
1518.55	12.1169
1520.1	12.1218
1521.66	11.4277
1523.22	12.6386
1524.77	14.4573
1526.33	15.5625
1527.88	16.9137
1529.44	18.2922
1530.99	19.0033
1532.54	19.2254
1534.1	20.5744
1535.65	21.3302
1537.21	23.3187
1538.76	23.566
1540.31	24.5931
1541.86	25.5149
1543.42	26.2198
1544.97	27.5564
1546.52	28.4166
1548.07	30.5394
1549.62	32.6517
1551.17	34.5456
1552.72	36.9518
1554.27	38.7407
1555.82	40.0134
1557.37	42.4408
1558.92	43.6479
1560.47	46.4719
1562.02	48.2127
1563.56	49.5448
1565.11	51.2633
1566.66	52.3634
1568.21	53.0745
1569.75	55.2842
1571.3	56.318
1572.85	58.8947
1574.39	62.7389
1575.94	65.5206
1577.49	67.3477
1579.03	69.1184
1580.57	72.0949
1582.12	73.9316
1583.66	75.6042
1585.21	77.6289
1586.75	79.2455
1588.3	80.2545
1589.84	82.0986
1591.38	82.3959
1592.92	83.8584
1594.47	84.3652
1596.01	84.282
1597.55	85.7804
1599.09	86.2638
1600.63	87.6886
1602.17	88.5047
1603.71	88.57
1605.25	88.5082
1606.79	88.1969
1608.33	86.9631
1609.87	85.5789
1611.41	85.3718
1612.95	84.6477
1614.49	84.0381
1616.03	83.3841
1617.57	83.1945
1619.1	82.7587
1620.64	83.0341
1622.18	83.4237
1623.72	84.8576
1625.25	86.654
1626.79	87.3745
1628.32	87.7625
1629.86	88.7844
1631.39	89.4027
1632.93	90.1168
1634.46	90.9712
1636	92.0692
1637.53	94.1208
1639.07	95.6363
1640.6	97.2755
1642.13	98.902
1643.67	100.917
1645.2	103.345
1646.73	106.642
1648.26	108.578
1649.8	110.6
1651.33	112.433
1652.86	114.138
1654.39	114.396
1655.92	115.138
1657.45	116.366
1658.98	116.836
1660.51	117.051
1662.04	116.922
1663.57	116.224
1665.1	115.476
1666.63	114.87
1668.16	112.873
1669.68	112.162
1671.21	110.357
1672.74	108.989
1674.27	107.474
1675.79	104.076
1677.32	101.453
1678.85	98.0538
1680.37	93.6764
1681.9	89.6568
1683.42	85.3922
1684.95	80.4929
1686.47	76.1561
1688	72.9924
1689.52	69.1815
1691.05	65.8214
1692.57	61.6387
1694.09	57.8387
1695.62	53.7185
1697.14	50.1456
1698.66	47.1368
1700.18	44.3723
1701.71	39.8498
1703.23	36.2036
1704.75	32.7208
1706.27	30.0269
1707.79	27.3367
1709.31	25.5366
1710.83	24.2025
1712.35	24.1645
1713.87	23.3367
1715.39	22.4078
1716.91	20.7878
1718.43	19.4974
1719.95	18.606
1721.47	17.606
1722.99	16.3105
1724.5	15.2049
1726.02	14.8762
1727.54	14.6523
1729.06	14.2045
1730.57	13.0948
1732.09	13.2024
1733.61	13.5197
1735.12	13.1769
1736.64	13.0956
1738.15	12.8954
1739.67	12.3751
1741.18	12.2351
1742.7	11.7742
1744.21	11.5031
1745.72	11.3215
1747.24	10.9484
1748.75	10.2905
1750.26	9.9288
1751.77	8.85351
1753.29	8.59914
1754.8	7.71645
1756.31	7.00938
1757.82	7.1873
1759.33	6.00423
1760.84	5.36502
1762.36	5.1235
1763.87	4.69361
1765.38	4.35899
1766.89	3.62486
1768.4	2.42274
1769.91	2.79085
1771.41	2.22293
1772.92	2.0505
1774.43	1.17784
1775.94	0.880312
1777.45	-0.200677
1778.95	-0.0214829
1780.46	0.478577
1781.97	0.531319
1783.48	1.03498
1784.98	1.99111
1786.49	1.7597
1787.99	1.27765
1789.5	1.11938
1791.01	0.361999
1792.51	0.0479341
1794.01	-0.193153
1795.52	-0.187387
1797.02	-0.899683
1798.53	-0.689547
1800.03	-0.626837
1801.53	-0.772363
1803.04	-1.18603
1804.54	-1.46615
1806.04	-1.03466
1807.54	-1.12477
1809.05	-0.853879
1810.55	-1.00248
1812.05	-0.183803
1813.55	-0.44399
1815.05	-0.559268
1816.55	-0.369718
1818.05	0.133204
1819.55	0.461171
1821.05	0.52593
1822.55	0.644179
1824.05	0.838911
1825.55	1.0133
1827.05	0.440052
1828.55	1.18147
1830.04	1.7886
1831.54	2.1636
1833.04	2.69896
1834.54	2.34155
1836.03	2.90535
1837.53	3.38706
1839.03	3.99789
1840.52	4.15398
1842.02	4.10697
1843.51	4.3321
1845.01	4.87271
1846.5	4.95252
1848	5.68654
1849.49	6.00631
1850.99	6.81301
1852.48	7.01427
1853.97	6.8879
1855.47	7.08265
1856.96	6.61841
1858.45	6.77018
1859.94	6.84204
1861.44	6.5876
1862.93	6.94813
1864.42	6.7967
1865.91	6.18601
1867.4	5.53505
1868.89	5.92063
1870.38	5.54345
1871.87	5.07559
1873.36	5.71993
1874.85	5.18922
1876.34	4.79179
1877.83	4.74612
1879.32	4.7086
1880.81	4.80432
1882.3	4.51917
1882.57	4.24893
1884.07	4.06385
1885.56	4.2837
1887.06	4.06928
1888.55	4.63169
1890.04	4.84285
1891.54	4.83358
1893.03	4.18869
1894.52	4.80262
1896.02	4.83934
1897.51	5.49594
1899	5.0191
1900.49	4.97803
1901.98	5.42164
1903.47	5.67378
1904.96	5.87443
1906.45	6.1074
1907.94	5.54214
1909.43	6.01733
1910.92	5.94927
1912.41	6.31816
1913.9	6.86669
1915.39	7.69345
1916.88	7.80902
1918.37	8.51427
1919.85	8.29657
1921.34	8.31899
1922.83	8.11165
1924.32	8.15216
1925.8	8.09748
1927.29	7.47023
1928.78	7.83352
1930.26	7.62476
1931.75	7.2046
1933.23	7.60001
1934.72	7.04149
1936.2	6.83099
1937.69	6.43963
1939.17	6.5307
1940.66	6.6116
1942.14	7.42201
1943.63	6.72187
1945.11	7.16735
1946.59	7.88284
1948.07	7.47416
1949.56	7.87901
1951.04	7.96028
1952.52	8.67095
1954	9.02806
1955.48	8.98
1956.96	9.49782
1958.45	9.66423
1959.93	10.8433
1961.41	11.0353
1962.89	11.1957
1964.37	11.0796
1965.85	10.5665
1967.32	10.9586
1968.8	11.6224
1970.28	11.1369
1971.76	11.9027
1973.24	11.9227
1974.72	12.1438
1976.19	12.9546
1977.67	13.3339
1979.15	13.4344
1980.63	13.0547
1982.1	13.4369
1983.58	13.9072
1985.05	13.6175
1986.53	14.0249
1988	13.7629
1989.48	13.2503
1990.95	13.1645
1992.43	12.6535
1993.9	12.1155
1995.38	12.6846
1996.85	13.2616
1998.32	13.6009
1999.8	13.6703
2001.27	13.2758
2002.74	14.1326
2004.22	13.1876
2005.69	13.5754
2007.16	13.5766
2008.63	13.1457
2010.1	13.888
2011.57	13.7962
2013.04	13.7809
2014.51	13.807
2015.98	13.7118
2017.45	13.6486
2018.92	14.4172
2020.39	14.3827
2021.86	15.2195
2023.33	15.7536
2024.8	15.5672
2026.27	16.589
2027.74	15.9768
2029.2	15.1417
2030.67	15.145
2032.14	15.1379
2033.61	16.2284
2035.07	15.6224
2036.54	15.9042
2038.01	16.4467
2039.47	17.2337
2040.94	18.2011
2042.4	18.6841
2043.87	19.3645
2045.33	19.8141
2046.8	19.8568
2048.26	20.2462
2049.72	21.2073
2051.19	21.0199
2052.65	21.1271
2054.12	21.7834
2055.58	22.0762
2057.04	21.6464
2058.5	21.6688
2059.97	21.936
2061.43	21.0209
2062.89	21.6228
2064.35	21.2223
2065.81	20.8346
2067.27	21.3907
2068.73	21.7392
2070.19	21.699
2071.65	21.9625
2073.11	21.1122
2074.57	20.4803
2076.03	20.4798
2077.49	19.3389
2078.95	19.8606
2080.41	19.6896
2081.87	20.3351
2083.32	20.4716
2084.78	19.8472
2086.24	19.6649
2087.7	19.6775
2089.15	19.5809
2090.61	19.3904
2092.07	19.3651
2093.52	19.04
2094.98	19.509
2096.43	19.1968
2097.89	18.4291
2099.34	18.6697
2100.8	18.3783
2102.25	18.7499
2103.71	19.3592
2105.16	20.385
2106.61	21.052
2108.07	21.2679
2109.52	22.0383
2110.97	22.821
2112.43	23.0276
2113.88	22.9453
2115.33	23.5882
2116.78	24.3806
2118.23	24.3853
2119.68	25.6781
2121.13	27.0382
2122.59	28.2072
2124.04	28.9295
2125.49	29.8142
2126.94	30.8129
2128.39	31.3757
2129.83	32.748
2131.28	33.0716
2132.73	33.7463
2134.18	35.2082
2135.63	36.9249
2137.08	38.4024
2138.53	40.807
2139.97	41.9182
2141.42	42.9442
2142.87	44.6078
2144.31	46.0302
2145.76	46.5751
2147.21	47.8449
2148.65	48.6695
2150.1	49.728
2151.54	51.585
2152.99	53.1217
2154.43	54.3326
2155.88	54.952
2157.32	54.8732
2158.77	56.1187
2160.21	56.6438
2161.65	56.5687
2163.1	56.8498
2164.54	57.6681
2165.98	58.1906
2167.43	58.3529
2168.87	58.4176
2170.31	58.7177
2171.75	59.2933
2173.19	58.2063
2174.64	57.103
2176.07	56.3893
2177.52	56.7248
2178.96	55.9614
2180.4	55.246
2181.84	54.7634
2183.28	53.969
2184.72	53.1867
2186.15	52.7342
2187.59	52.6834
2189.03	52.1282
2190.47	51.762
2191.91	51.6921
2193.35	51.1137
2194.78	50.6723
2196.22	50.1974
2197.66	48.9219
2199.09	48.2554
2200.53	47.7194
2201.97	47.133
2203.4	46.7661
2204.84	47.4173
2206.27	47.4323
2207.71	46.8084
2209.14	46.6701
2210.58	45.0251
2212.01	44.0064
2213.45	43.8057
2214.88	43.2929
2216.31	42.072
2217.75	40.8145
2219.18	39.9238
2220.61	39.5068
2222.05	39.5258
2223.48	39.4708
2224.91	39.1478
2226.34	38.7018
2227.78	37.6455
2229.21	36.8345
2230.64	36.7418
2232.07	36.1392
2233.5	35.8286
2234.93	36.1033
2236.36	35.4436
2237.79	35.1557
2239.22	34.1687
2240.65	34.0039
2242.08	33.4877
2243.5	32.3993
2244.93	31.8149
2246.36	31.5716
2247.79	31.8717
2249.22	31.667
2250.64	30.3553
2252.07	29.5387
2253.5	29.4985
2254.92	29.8358
2256.35	30.0924
2257.78	30.0773
2259.2	30.3738
2260.63	30.4141
2262.05	30.3729
2263.48	29.9078
2264.9	30.4084
2266.33	30.3025
2267.75	29.2183
2269.18	27.7563
2270.6	28.4765
2272.02	28.2019
2273.45	28.2016
2274.87	27.6856
2276.29	26.8185
2277.71	26.5363
2279.14	26.0448
2280.56	25.5974
2281.98	25.4658
2283.4	25.8757
2284.82	25.0118
2286.24	24.3374
2287.66	23.6214
2289.08	23.1863
2290.5	22.2681
2291.92	21.6165
2293.34	21.2099
2294.76	21.1313
2296.18	21.9267
2297.6	22.1391
2299.02	22.4965
2300.44	22.8603
2301.86	23.0185
2303.27	23.8167
2304.69	24.2925
2306.11	23.8125
2307.53	23.3834
2308.94	24.519
2310.36	23.8489
2311.78	23.7997
2313.19	23.9056
2314.61	24.1909
2316.02	24.4261
2317.44	23.8295
2318.85	23.7734
2320.27	22.9052
2321.68	22.3826
2323.1	22.8998
2324.51	23.2534
2325.92	22.9904
2327.34	22.8459
2328.75	23.0058
2330.16	22.5799
2331.58	21.9584
2332.99	21.2845
2334.4	20.4988
2335.81	20.513
2337.23	19.4248
2338.64	18.305
2340.05	18.1888
2341.46	17.8832
2342.87	16.3617
2344.28	15.5631
2345.69	14.637
2347.1	14.4795
2348.51	14.6505
2349.92	13.6109
2351.33	13.104
2352.74	12.6405
2354.15	12.0235
2355.55	10.6904
2356.96	10.3645
2358.37	9.60714
2359.78	9.2557
2361.19	8.36278
2362.59	8.7954
2364	9.57383
2365.41	10.0793
2366.81	10.2329
2368.22	10.0609
2369.62	10.3292
2371.03	10.2053
2372.44	10.3933
2373.84	11.1055
2375.24	11.1328
2376.65	10.8144
2378.05	12.1332
2379.46	12.397
2380.86	11.4358
2382.26	11.7919
2383.67	12.88
2385.07	13.0353
2386.47	13.3761
2387.88	13.169
2389.28	13.0025
2390.68	13.0898
2392.08	13.4992
2393.48	13.9194
2394.89	14.2038
2396.29	14.2703
2397.69	14.7498
2399.09	14.5608
2400.49	13.8298
2401.89	13.735
2403.29	14.1028
2404.69	13.6853
2406.09	13.8053
2407.48	13.4939
2408.88	13.2932
2410.28	13.1369
2411.68	12.5882
2413.08	12.4071
2414.48	12.3229
2415.87	11.6393
2417.27	12.3668
2418.67	12.4565
2420.06	11.8049
2421.46	11.3124
2422.86	10.8544
2424.25	10.0533
2425.65	9.64745
2427.04	9.16034
2428.44	8.10972
2429.83	7.64974
2431.23	7.87306
2432.62	8.34203
2434.02	8.21416
2435.41	7.77495
2436.81	7.33889
2438.2	7.25516
2439.59	6.80747
2440.99	6.349
2442.38	5.93825
2443.77	5.89156
2445.16	5.18585
2446.56	4.63183
2447.95	4.22522
2449.34	3.54451
2450.73	3.35924
2452.12	3.57267
2453.51	3.85624
2454.9	3.98705
2456.29	4.1783
2457.68	3.7122
2459.07	2.90202
2460.46	2.98615
2461.85	2.9697
2463.24	2.70342
2464.63	2.72034
2466.02	2.81027
2467.4	3.55131
2468.79	3.50616
2470.18	3.80766
2471.57	4.88257
2472.95	5.22582
2474.34	5.59743
2475.73	6.44725
2477.12	7.13734
2478.5	7.08154
2479.89	7.91916
2481.27	8.1949
2482.66	8.22346
2484.04	8.1659
2485.43	8.03194
2486.81	9.03492
2488.2	8.26489
2489.58	7.79919
2490.97	7.62168
2492.35	7.23356
2493.73	8.10507
2495.12	8.22567
2496.5	7.75952
2497.88	8.23073
2499.27	8.53982
2500.65	8.67952
2502.03	8.01253
2503.41	7.25723
2504.79	6.6845
2506.17	5.87513
2507.56	5.44372
2508.94	4.88488
2510.32	4.22091
2511.7	3.77928
2513.08	2.57679
2514.46	1.83492
2515.84	1.45838
2517.22	1.12112
2518.59	0.8851
2519.97	0.219902
2521.35	0.952844
2522.73	0.805087
2524.11	1.0998
2525.49	0.975454
2526.86	0.505463
2528.24	0.58719
2529.62	1.23308
2530.99	1.18296
2532.37	1.22136
2533.75	1.55313
2535.12	1.77202
2536.5	1.51632
2537.88	1.68481
2539.25	1.65715
2540.63	2.28844
2542	2.21917
2543.38	3.21053
2544.75	2.67345
2546.12	2.67625
2547.5	2.25272
2548.87	2.75279
2550.24	1.97833
2551.62	1.7906
2552.99	2.19026
2554.36	2.15201
2555.74	2.10324
2557.11	2.60348
2558.48	3.45875
2559.85	3.47889
2561.22	3.28849
2562.59	3.99219
2563.96	3.163
2565.34	3.17274
2566.71	3.22393
2568.08	3.15373
2569.45	3.12859
2570.82	3.05368
2572.18	3.15649
2573.55	2.6443
2574.92	2.22449
2576.29	2.14564
2577.66	1.95058
2579.03	1.26784
2580.4	1.37796
2581.77	0.820969
2583.13	1.06676
2584.5	1.24364
2585.87	0.951458
2587.23	1.53088
2588.6	1.57389
2589.97	2.44644
2591.33	1.69328
2592.7	2.08469
2594.06	1.46852
2595.43	1.0198
2596.79	1.37773
2598.16	1.27397
2599.52	0.677171
2600.89	0.999548
2602.25	0.951662
2603.62	0.525092
2604.98	0.812686
2606.34	1.19535
2607.71	0.737078
2609.07	1.32208
2610.43	0.939409
2611.79	1.41745
2613.16	1.0126
2614.52	1.235
2615.88	0.969546
2617.24	1.6674
2618.6	1.82032
2619.96	2.34453
2621.32	3.30313
2622.68	3.07014
2624.04	3.64798
2625.4	4.75906
2626.76	4.4148
2628.12	3.78396
2629.48	3.4488
2630.84	3.51993
2632.2	3.32949
2633.56	3.41155
2634.92	3.62816
2636.28	3.30023
2637.63	2.82132
2638.99	2.63282
2640.35	2.61157
2641.71	2.18407
2643.06	2.10935
2644.42	2.28279
2645.77	2.53868
2647.13	2.18819
2648.49	2.5867
2649.84	1.51632
2651.2	1.82723
2652.55	1.792
2653.91	1.36511
2655.26	1.57589
2656.62	1.34883
2657.97	2.33737
2659.33	2.13987
2660.68	2.33892
2662.03	2.82579
2663.39	3.32006
2664.74	2.80233
2666.09	2.50276
2667.44	2.58144
2668.8	2.45653
2670.15	2.27845
2671.5	1.66471
2672.85	1.86591
2674.2	1.87547
2675.55	1.29662
2676.91	1.7177
2678.26	2.00244
2679.61	2.31987
2680.96	2.32392
2682.31	1.93003
2683.66	2.03507
2685	1.9717
2686.35	2.34759
2687.7	2.95973
2689.05	3.50737
2690.4	3.27887
2691.75	3.94705
2693.1	4.04045
2694.44	3.74435
2695.79	3.4988
2697.14	3.39413
2698.49	4.28165
2699.83	5.08846
2701.18	5.75963
2702.52	6.18219
2703.87	6.53964
2705.22	6.97708
2706.56	7.52197
2707.91	8.20707
2709.25	8.50381
2710.6	9.04597
2711.94	9.50528
2713.29	10.3853
2714.63	10.4032
2715.97	10.7001
2717.32	10.512
2718.66	11.6008
2720.01	11.4549
2721.35	11.6726
2722.69	12.1276
2724.03	12.8967
2725.38	12.502
2726.72	12.3937
2728.06	12.6075
2729.4	12.6354
2730.74	11.6524
2732.08	11.1689
2733.42	11.18
2734.76	11.2868
2736.1	10.9236
2737.44	10.8914
2738.78	10.7749
2740.12	10.7866
2741.46	10.522
2742.8	10.2454
2744.14	10.9705
2745.48	10.441
2746.82	10.0515
2748.16	9.63966
2749.49	9.07634
2750.83	8.96926
2752.17	8.67073
2753.51	8.83583
2754.84	8.60592
2756.18	8.13521
2757.52	7.42091
2758.85	7.22535
2760.19	6.86615
2761.53	6.49442
2762.86	6.32433
2764.2	6.54329
2765.53	5.97068
2766.87	5.20813
2768.2	4.96811
2769.54	4.52758
2770.87	4.13811
2772.2	4.1926
2773.54	4.0038
2774.87	3.97248
2776.2	3.20469
2777.54	2.61196
2778.87	2.58545
2780.2	2.5606
2781.53	1.63812
2782.87	0.880503
2784.2	0.860261
2785.53	0.929647
2786.86	0.458365
2788.19	0.162725
2789.52	0.554499
2790.85	0.532981
2792.18	0.541504
2793.51	0.970516
2794.84	1.21403
2796.17	1.56035
2797.5	1.32178
2798.83	2.24334
2800.16	2.76903
2801.49	3.34214
2802.82	3.4869
2804.15	3.42997
2805.47	3.83499
2806.8	3.75826
2808.13	3.87248
2809.46	4.14967
2810.78	3.99198
2812.11	3.80742
2813.44	3.75835
2814.76	3.96917
2816.09	4.37236
2817.42	4.34547
2818.74	5.50957
2820.07	6.05315
2821.39	7.73634
2822.72	9.18274
2824.04	10.3123
2825.37	12.1146
2826.69	13.6107
2828.02	15.4669
2829.34	17.0941
2830.66	19.1801
2831.99	20.7893
2833.31	23.5215
2834.63	26.2226
2835.96	29.3351
2837.28	32.7071
2838.6	36.2289
2839.92	39.2621
2841.24	43.6477
2842.57	47.959
2843.89	53.4418
2845.21	59.1757
2846.53	64.6074
2847.85	70.7467
2849.17	76.9083
2850.49	84.2787
2851.81	90.8402
2853.13	97.0486
2854.45	104.01
2855.77	111.446
2857.09	117.887
2858.41	124.591
2859.72	131.181
2861.04	138.101
2862.36	144.246
2863.68	150.001
2865	156.503
2866.31	162.133
2867.63	167.225
2868.95	172.499
2870.26	177.629
2871.58	183.181
2872.9	187.644
2874.21	192.074
2875.53	196.323
2876.84	200.8
2878.16	204.689
2879.47	207.878
2880.79	211.687
2882.1	214.545
2883.42	217.2
2884.73	220.44
2886.05	222.928
2887.36	226.142
2888.67	228.732
2889.99	231.17
2891.3	234.135
2892.61	237.876
2893.92	241.539
2895.24	244.512
2896.55	248.428
2897.86	252.149
2899.17	256.479
2900.48	262.021
2901.79	266.944
2903.11	273.104
2904.42	279.388
2905.73	285.863
2907.04	293.776
2908.35	301.692
2909.66	310.141
2910.97	318.803
2912.27	327.257
2913.58	335.547
2914.89	344.226
2916.2	352.557
2917.51	360.387
2918.82	367.687
2920.13	374.682
2921.43	381.196
2922.74	386.914
2924.05	392.365
2925.35	397.283
2926.66	401.111
2927.97	404.005
2929.27	405.611
2930.58	406.842
2931.89	407.212
2933.19	406.989
2934.5	406.385
2935.8	404.342
2937.11	402.216
2938.41	398.924
2939.72	395.46
2941.02	391.528
2942.32	387.102
2943.63	381.081
2944.93	375.241
2946.24	369.535
2947.54	363.446
2948.84	356.985
2950.14	350.735
2951.45	344.608
2952.75	337.956
2954.05	331.361
2955.35	324.792
2956.65	318.273
2957.95	311.228
2959.26	303.966
2960.56	296.81
2961.86	289.849
2963.16	282.997
2964.46	276.542
2965.76	270.426
2967.06	264.179
2968.36	259.731
2969.66	254.03
2970.96	248.828
2972.25	243.761
2973.55	238.841
2974.85	233.499
2976.15	228.123
2977.45	221.693
2978.74	215.843
2980.04	210.662
2981.34	204.882
2982.64	198.795
2983.93	192.201
2985.23	185.635
2986.52	179.815
2987.82	173.404
2989.12	166.092
2990.41	159.184
2991.71	152.266
2993	145.189
2994.3	137.789
2995.59	131.413
2996.89	125.039
2998.18	118.973
2999.48	112.789
3000.77	107.004
3002.06	102.273
3003.36	97.0865
3004.65	91.9165
3005.94	87.5798
3007.23	82.3256
3008.53	77.794
3009.82	74.2373
3011.11	70.5032
3012.4	66.8087
3013.69	62.7936
3014.99	60.0607
3016.28	57.3582
3017.57	54.0865
3018.86	51.4208
3020.15	49.6366
3021.44	46.7386
3022.73	44.5129
3024.02	42.9141
3025.31	41.1665
3026.6	39.6679
3027.89	38.5902
3029.18	37.8322
3030.46	37.4425
3031.75	37.1268
3033.04	36.5339
3034.33	36.2086
3035.62	35.9769
3036.9	36.45
3038.19	37.1259
3039.48	37.0046
3040.76	37.8986
3042.05	38.4395
3043.34	40.0581
3044.62	42.0012
3045.91	42.8299
3047.19	43.7357
3048.48	45.3344
3049.77	46.4038
3051.05	47.3801
3052.34	47.5934
3053.62	47.6265
3054.9	48.3807
3056.19	48.3404
3057.47	48.5776
3058.76	47.9561
3060.04	47.9918
3061.32	47.2447
3062.61	46.5601
3063.89	46.2945
3065.17	46.1299
3066.45	45.0675
3067.74	44.1927
3069.02	42.8611
3070.3	41.9055
3071.58	40.0295
3072.86	38.4048
3074.14	36.8863
3075.42	34.5464
3076.7	32.7824
3077.99	30.7661
3079.26	28.9852
3080.54	26.6934
3081.82	24.576
3083.1	23.01
3084.38	21.2625
3085.66	18.6263
3086.94	17.2287
3088.22	15.1794
3089.5	13.782
3090.78	11.9099
3092.05	10.856
3093.33	9.88925
3094.61	8.97073
3095.89	7.62132
3097.16	7.05474
3098.44	6.89917
3099.72	6.92277
3100.99	6.8992
3102.27	6.06905
3103.54	6.35997
3104.82	6.84631
3106.1	6.62358
3107.37	6.69788
3108.65	6.70686
3109.92	5.98802
3111.2	6.02449
3112.47	5.93665
3113.74	5.23206
3115.02	4.73012
3116.29	4.34883
3117.56	4.3845
3118.84	4.37749
3120.11	4.24624
3121.38	4.29582
3122.66	3.69674
3123.93	3.97435
3125.2	3.86034
3126.47	4.49167
3127.74	5.13985
3129.01	4.84418
3130.29	4.04257
3131.56	4.08492
3132.83	3.30319
3134.1	3.16466
3135.37	2.43482
3136.64	1.70472
3137.91	1.78494
3139.18	0.976895
3140.45	0.973597
3141.72	0.640587
3142.99	0.298621
3144.26	0.0854393
3145.52	-0.0816409
3146.79	-0.254166
3148.06	0.288951
3149.33	1.19529
