#Acq. time (s)=	45
#Accumulations=	2
#Range (cm-¹)=	200...3150
#Windows=	2
#Auto scanning=	Off
#Autofocus=	Off
#Macrospot=	Off
#AutoExposure=	Off
#Spike filter=	Multiple accum.
#Delay time (s)=	0
#Binning=	1
#Readout mode=	Signal
#DeNoise=	Off
#ICS correction=	On
#Dark correction=	Off
#Inst. Process=	Off
#Detector Gain=	Best Dynamic Range
#Detector ADC=	20 kHz       
#Detector temperature (°C)=	-69.85
#Instrument=	LabRAM HR Evol
#Detector=	Synapse
#Objective=	x100
#Grating=	600 gr/mm
#ND Filter=	100%
#Laser (nm)=	532 
#Hole=	100.021
#Range=	Auto
#Laser Pol.=	No
#Raman. Pol.=	No
#Laser Pol. (°)=	-0.0007625
#Raman Pol. (°)=	89.9995
#Collection=	Microscope
#StageXY=	Marzhauser
#StageZ=	Marzhauser
#X (µm)=	254
#Y (µm)=	1670.5
#Z (µm)=	427.2
#Full time(mm:ss)=	3:19
#Project=	
#Sample=	
#Site=	
#Title=	Thy_40_11_30_2x_45s_532 nm_x100_100%_600 gr_mm
#Remark=	
#Date=	05.07.2022 12:10
#Acquired=	05.07.2022 12:10:00
#Base:Fit=	10.08.2022 10:01:35
#Base:Sub=	10.08.2022 10:01:52
#Filter:Polynom=	16.08.2022 10:21:53
#AxisType[0]=Intens
#AxisUnit[0]=Cnt
#AxisType[1]=Spectr
#AxisUnit[1]=1/cm
200.43	4.22963
202.244	6.06951
204.059	6.06321
205.873	5.21839
207.688	4.96336
209.501	4.4101
211.314	4.12048
213.127	3.68806
214.941	3.46208
216.753	3.34321
218.564	3.67545
220.375	3.04578
222.186	3.03658
223.999	2.94093
225.809	3.52203
227.618	3.40018
229.428	3.53484
231.236	4.46018
233.045	5.52826
234.855	5.27673
236.663	5.62811
238.471	5.17992
240.278	4.87338
242.085	6.12444
243.891	6.63954
245.698	7.11682
247.503	7.63507
249.309	7.89835
251.116	8.46328
252.921	9.34385
254.725	10.0199
256.529	10.3669
258.333	10.5494
260.136	10.3146
261.939	11.1111
263.742	11.6855
265.544	12.8351
267.346	13.09
269.148	13.2985
270.949	13.2993
272.75	13.4255
274.55	13.6399
276.351	12.6695
278.15	13.3386
279.95	13.8969
281.749	13.5781
283.548	12.6473
285.346	12.1174
287.144	11.8136
288.942	11.1899
290.739	10.8767
292.536	10.2363
294.333	9.9454
296.129	10.4308
297.925	9.79465
299.721	9.14271
301.514	9.22154
303.309	9.2266
305.104	9.71979
306.898	9.47526
308.692	9.43508
310.486	9.44256
312.279	9.24641
314.072	9.12201
315.862	9.15754
317.654	8.78481
319.446	9.29016
321.238	9.27215
323.029	8.90765
324.819	8.27104
326.608	8.73405
328.398	8.41125
330.188	9.93199
331.977	11.3239
333.766	11.1203
335.553	11.9782
337.341	12.7115
339.129	13.3856
340.917	13.149
342.704	13.3316
344.489	13.8095
346.275	13.8024
348.062	14.2345
349.845	13.8767
351.631	14.4887
353.416	14.7983
355.201	14.6269
356.984	13.8505
358.768	13.6631
360.552	13.9121
362.333	14.5678
364.116	14.1877
365.899	13.7602
367.68	14.2168
369.462	13.4423
371.243	11.9336
373.023	11.2901
374.804	11.2228
376.585	11.1773
378.363	11.5396
380.143	10.4936
381.923	10.3402
383.7	10.0375
385.479	10.6443
387.256	10.0741
389.034	9.65876
390.812	9.22734
392.588	9.10226
394.365	8.12547
396.14	7.54505
397.916	7.48682
399.691	7.35959
401.467	5.97349
403.24	5.90787
405.015	5.36484
406.788	5.21837
408.563	5.27738
410.335	5.10495
412.109	5.32417
413.88	5.0508
415.654	5.1536
417.424	4.777
419.197	5.14448
420.967	5.25098
422.739	4.90413
424.508	4.80192
426.279	4.43139
428.048	4.66774
429.819	4.35888
431.587	4.43173
433.356	4.57008
435.124	4.11236
436.891	3.95161
438.66	3.34253
440.426	3.21926
442.194	2.86549
443.96	1.94892
445.725	1.83418
447.492	1.70442
449.257	1.85696
451.021	1.07786
452.787	-0.0247078
454.551	-0.292576
456.314	-0.919279
458.079	-1.2964
459.842	-1.61087
461.604	-1.16295
463.368	0.0309153
465.13	1.18195
466.891	1.55294
468.654	1.45684
470.415	1.96704
472.175	1.84029
473.935	2.45583
475.696	2.68657
477.456	3.84978
479.215	4.08127
480.973	5.84962
482.733	6.94801
484.491	8.27981
486.249	8.7604
488.006	9.38313
489.765	9.52626
491.522	10.9101
493.278	11.5434
495.034	12.5612
496.789	12.5875
498.544	13.1441
500.301	13.0867
502.056	12.5293
503.81	12.7655
505.564	12.6084
507.317	13.3344
509.071	14.1432
510.825	13.8748
512.578	14.325
514.33	14.8397
516.082	15.3839
517.833	15.1459
519.585	14.4868
521.335	14.2559
523.086	13.5704
524.836	13.8675
526.586	13.1094
528.335	12.425
530.085	12.0986
531.835	11.5608
533.584	11.4091
535.332	10.4562
537.08	9.91141
538.827	9.59202
540.574	8.73397
542.321	8.90553
544.068	7.83009
545.814	7.90242
547.56	8.87327
549.305	8.54632
551.05	8.63527
552.795	8.39907
554.54	8.06556
556.282	7.87882
558.025	6.83767
559.769	6.84602
561.512	7.16572
563.255	7.25119
564.997	7.7024
566.739	7.63725
568.481	7.28102
570.223	6.00797
571.964	5.46138
573.705	5.01757
575.443	4.92672
577.183	5.38753
578.923	4.73181
580.663	4.05438
582.402	3.56819
584.141	2.97773
585.879	3.23997
587.615	2.40345
589.353	2.191
591.09	2.45128
592.828	1.77216
594.564	2.17011
596.299	2.12446
598.035	2.13956
599.771	1.64743
601.506	2.07434
603.242	1.48755
604.974	1.58326
606.709	1.05362
608.443	1.31317
610.177	1.55338
611.908	2.0576
613.642	2.78532
615.374	3.11514
617.105	3.70763
618.837	4.02232
620.569	3.3227
622.3	4.32391
624.03	5.09619
625.761	5.07853
627.491	4.48913
629.219	5.04598
630.949	5.09735
632.677	5.90791
634.406	6.4705
636.135	6.42352
637.861	7.71003
639.59	7.76558
641.318	7.78819
643.043	8.06909
644.77	8.19149
646.495	8.49281
648.222	8.68844
649.948	9.45619
651.672	10.3347
653.398	10.6559
655.121	10.1406
656.846	11.1056
658.569	11.9139
660.293	12.6107
662.015	13.5427
663.738	14.1892
665.46	13.7783
667.183	15.4059
668.903	15.8575
670.626	15.9283
672.346	15.8293
674.067	15.5215
675.787	15.6405
677.508	16.1282
679.226	16.5703
680.947	18.1659
682.665	19.2182
684.385	19.8699
686.102	19.7108
687.821	20.6874
689.538	20.3638
691.254	22.0083
692.972	23.1044
694.688	24.9623
696.406	25.0888
698.121	26.1038
699.835	27.0557
701.552	27.1557
703.266	27.2137
704.98	27.5119
706.695	28.0135
708.409	29.6282
710.121	29.3733
711.836	29.3802
713.548	30.275
715.26	30.6848
716.973	30.9223
718.685	31.7774
720.396	33.3958
722.108	34.4332
723.818	34.8382
725.528	34.4166
727.238	35.5262
728.949	36.5334
730.658	36.4709
732.367	36.9616
734.075	38.4422
735.785	39.7467
737.493	40.3521
739.2	41.1786
740.907	41.9007
742.614	43.2522
744.322	43.8188
746.028	45.1553
747.734	46.2013
749.439	46.6454
751.144	47.6759
752.849	48.8943
754.555	49.103
756.26	50.8416
757.963	51.8662
759.667	53.6529
761.37	55.4373
763.073	57.2809
764.775	58.8966
766.477	60.7655
768.179	62.163
769.883	63.3115
771.584	63.9963
773.285	65.0886
774.986	66.3678
776.686	67.7351
778.386	68.687
780.085	69.3133
781.785	69.2219
783.484	70.4532
785.182	70.9791
786.881	71.2924
788.579	71.9287
790.276	73.3525
791.974	73.9216
793.671	74.2589
795.367	74.092
797.064	74.4642
798.76	75.4134
800.456	75.5143
802.151	76.2882
803.846	77.1981
805.541	77.0113
807.234	76.7302
808.928	76.2008
810.622	76.131
812.315	76.2923
814.008	76.0104
815.701	76.1274
817.394	75.9072
819.086	75.9116
820.778	75.7313
822.468	75.3883
824.159	75.3958
825.85	74.5464
827.541	73.6713
829.231	72.7671
830.921	72.3844
832.609	71.0871
834.298	70.5851
835.987	70.7276
837.676	70.8092
839.364	70.8416
841.051	69.9431
842.738	68.6701
844.426	67.9644
846.113	67.3517
847.798	67.0565
849.484	66.8449
851.171	66.2829
852.857	64.7806
854.54	63.818
856.226	62.4847
857.911	60.6469
859.593	60.011
861.278	58.4116
862.961	58.1955
864.645	57.7366
866.327	57.0022
868.01	56.8688
869.692	56.6652
871.373	56.6261
873.055	55.6808
874.735	53.9791
876.416	52.4698
878.097	51.7233
879.776	50.6253
881.457	50.6268
883.135	49.686
884.815	48.0049
886.495	46.8227
888.172	46.1848
889.851	45.3696
891.528	44.8762
893.206	44.6729
894.882	45.3306
896.56	44.3969
898.237	44.5717
899.912	45.2274
901.589	44.6554
903.263	44.8088
904.94	44.1156
906.614	43.5129
908.289	42.3698
909.962	41.1627
911.635	41.3945
913.31	41.4051
914.982	41.3613
916.656	40.8621
918.328	41.3773
920.001	40.7956
921.672	40.7172
923.345	40.4456
925.015	39.8704
926.685	40.487
928.357	39.5259
930.026	39.4607
931.698	39.173
933.366	38.5567
935.035	38.3957
936.705	37.8399
938.373	38.2228
940.041	38.1772
941.71	37.4669
943.377	37.7178
945.044	37.2
946.712	38.0289
948.378	37.6563
950.044	37.7164
951.709	38.4703
953.376	37.7122
955.041	36.784
956.706	36.0685
958.372	36.0237
960.036	36.2891
961.699	35.2273
963.362	34.9757
965.027	34.9129
966.69	35.3249
968.352	35.2399
970.014	36.5744
971.676	37.2722
973.339	36.5638
975	37.062
976.661	37.871
978.322	37.5498
979.982	36.8264
981.642	37.204
983.303	37.4238
984.962	36.6953
986.621	35.6809
988.28	35.6878
989.938	35.25
991.596	34.8309
993.254	35.1019
994.911	35.8053
996.57	34.5793
998.227	34.2085
999.884	33.5149
1001.54	33.6613
1003.2	33.3253
1004.85	33.6181
1006.51	32.9845
1008.16	31.9517
1009.82	31.072
1011.47	30.1515
1013.12	30.2499
1014.78	30.2981
1016.43	30.5439
1018.08	30.7501
1019.74	30.249
1021.39	30.0387
1023.04	29.9928
1024.69	29.2826
1026.34	29.1311
1028	29.3673
1029.65	28.9852
1031.3	28.7407
1032.95	28.9964
1034.6	28.3131
1036.25	27.3109
1037.9	26.5863
1039.54	26.0076
1041.19	25.5006
1042.84	24.4357
1044.49	22.8846
1046.14	23.2368
1047.78	22.5449
1049.43	22.7731
1051.08	22.8477
1052.72	23.3212
1054.37	21.7643
1056.02	21.2548
1057.66	20.8383
1059.31	19.6838
1060.95	18.4058
1062.6	18.2682
1064.24	17.995
1065.88	17.8143
1067.53	17.1805
1069.17	17.1298
1070.81	17.4
1072.45	17.0633
1074.1	17.4617
1075.74	17.2703
1077.38	17.3868
1079.02	16.2668
1080.66	16.5543
1082.3	16.5511
1083.94	16.92
1085.58	16.2263
1087.22	15.4198
1088.86	14.8623
1090.5	15.3444
1092.14	15.6961
1093.78	16.1945
1095.42	16.5869
1097.05	16.8589
1098.69	16.6185
1100.33	16.4474
1101.96	16.6139
1103.6	16.0472
1105.24	16.065
1106.87	15.7348
1108.51	15.3896
1110.14	14.7787
1111.78	13.7008
1113.41	13.8901
1115.05	13.1436
1116.68	13.3934
1118.31	13.3971
1119.95	12.353
1121.58	11.8076
1123.21	10.9516
1124.85	10.4335
1126.48	10.3451
1128.11	10.3412
1129.74	10.4845
1131.37	10.996
1133	10.2466
1134.63	9.20521
1136.26	8.12228
1137.89	8.46911
1139.52	7.72189
1141.15	7.5124
1142.78	7.99138
1144.41	8.70659
1146.04	8.38997
1147.66	8.18669
1149.29	7.44914
1150.92	7.58041
1152.55	6.4194
1154.17	6.18782
1155.8	5.21219
1157.43	4.41226
1159.05	4.65365
1160.68	4.39692
1162.3	3.91665
1163.93	4.05468
1165.55	4.16505
1167.17	4.09374
1168.8	4.13739
1170.42	4.90426
1172.05	5.5586
1173.67	5.45936
1175.29	5.6195
1176.91	5.53253
1178.54	5.7257
1180.16	5.60317
1181.78	6.55527
1183.4	6.66878
1185.02	6.89057
1186.64	8.16228
1188.26	8.94976
1189.88	9.54977
1191.5	10.1762
1193.12	10.8641
1194.74	11.7652
1196.36	12.2451
1197.97	13.8067
1199.59	14.0687
1201.21	14.0402
1202.83	15.5182
1204.44	16.8615
1206.06	18.8525
1207.68	20.0065
1209.29	20.7725
1210.91	21.8148
1212.52	22.2133
1214.14	23.9154
1215.75	25.503
1217.37	27.3182
1218.98	28.847
1220.59	29.0817
1222.21	30.5467
1223.82	31.8479
1225.43	32.7858
1227.05	33.5324
1228.66	34.0544
1230.27	34.511
1231.88	35.6208
1233.49	36.7491
1235.1	38.5184
1236.72	39.5888
1238.33	40.5301
1239.94	42.2157
1241.55	43.0928
1243.16	43.3978
1244.76	44.8368
1246.37	45.8389
1247.98	46.2474
1249.59	47.0498
1251.2	48.1413
1252.8	48.2779
1254.41	49.9712
1256.02	50.2668
1257.62	50.1106
1259.23	51.0374
1260.84	51.164
1262.44	52.5868
1264.05	52.5721
1265.66	53.649
1267.26	54.0906
1268.86	54.7637
1270.47	54.8835
1272.07	55.6638
1273.67	56.4413
1275.28	57.0646
1276.88	57.6232
1278.48	58.829
1280.09	59.0573
1281.69	58.6267
1283.29	59.7357
1284.89	59.3357
1286.49	59.9366
1288.09	60.5611
1289.69	60.2104
1291.29	59.9333
1292.89	60.5592
1294.49	61.1496
1296.09	60.9274
1297.69	60.6795
1299.29	60.0876
1300.89	60.2126
1302.49	60.9084
1304.08	61.1206
1305.68	61.6421
1307.28	61.6178
1308.88	61.3917
1310.47	62.3842
1312.07	62.3251
1313.66	63.1675
1315.26	62.2288
1316.85	61.5938
1318.45	61.5084
1320.04	61.8318
1321.64	61.3716
1323.23	60.9288
1324.83	61.3316
1326.42	61.0036
1328.01	59.9699
1329.61	60.1747
1331.2	59.6328
1332.79	59.6064
1334.38	59.0588
1335.97	57.7661
1337.56	56.9642
1339.16	57.145
1340.75	56.0146
1342.34	55.6942
1343.93	54.3411
1345.52	53.2683
1347.11	52.4551
1348.7	51.1589
1350.29	49.2892
1351.87	49.2266
1353.46	48.0483
1355.05	47.3939
1356.64	46.6188
1358.22	46.0873
1359.81	44.4352
1361.4	43.0515
1362.98	42.2346
1364.57	41.207
1366.16	40.1186
1367.74	38.7384
1369.33	36.726
1370.91	35.9339
1372.5	34.8773
1374.08	34.215
1375.67	33.4078
1377.25	32.4919
1378.83	32.6589
1380.41	32.3767
1382	31.6348
1383.58	31.3739
1385.16	31.0047
1386.74	30.4144
1388.33	30.5665
1389.91	29.9853
1391.49	29.4361
1393.07	30.023
1394.65	29.4174
1396.23	30.4265
1397.81	30.5342
1399.39	30.7899
1400.97	31.1703
1402.55	31.5576
1404.13	31.7096
1405.7	32.0901
1407.28	32.6191
1408.86	34.1953
1410.44	35.1889
1412.01	36.1237
1413.59	35.7943
1415.17	37.1965
1416.74	37.9535
1418.32	39.4724
1419.89	39.9739
1421.47	40.7455
1423.04	41.517
1424.62	42.2339
1426.19	44.2425
1427.77	45.0723
1429.34	46.3462
1430.91	49.3782
1432.49	50.9847
1434.06	52.4193
1435.63	54.2068
1437.2	54.8927
1438.78	55.2304
1440.35	56.2491
1441.92	56.4726
1443.49	56.4388
1445.06	56.9627
1446.63	57.9677
1448.2	58.1867
1449.77	57.8844
1451.34	58.4154
1452.91	58.5192
1454.48	58.1755
1456.05	57.8767
1457.62	56.7769
1459.18	56.1057
1460.75	55.3756
1462.32	54.4873
1463.89	53.5945
1465.45	52.27
1467.02	50.9487
1468.59	49.3317
1470.15	48.6503
1471.72	46.9999
1473.28	45.1751
1474.85	43.7892
1476.41	41.6765
1477.98	39.9044
1479.54	37.3067
1481.1	35.3876
1482.67	34.3995
1484.23	33.2169
1485.79	31.5345
1487.36	30.6857
1488.92	29.372
1490.48	28.3275
1492.04	27.1087
1493.61	26.3803
1495.17	25.0192
1496.73	24.2585
1498.29	23.1269
1499.85	21.9979
1501.41	21.6305
1502.97	21.4631
1504.53	21.3661
1506.09	20.9276
1507.65	20.4548
1509.2	21.2593
1510.76	21.1286
1512.32	20.377
1513.88	20.0061
1515.43	18.9743
1516.99	19.0681
1518.55	18.7461
1520.1	18.0338
1521.66	19.0047
1523.22	19.6902
1524.77	20.4234
1526.33	20.9011
1527.88	21.5847
1529.44	22.6039
1530.99	22.7982
1532.54	23.6201
1534.1	24.0782
1535.65	24.176
1537.21	25.3529
1538.76	26.0934
1540.31	27.1154
1541.86	27.6966
1543.42	28.067
1544.97	28.1682
1546.52	29.2108
1548.07	30.2943
1549.62	31.6042
1551.17	33.2015
1552.72	33.5041
1554.27	33.6161
1555.82	35.0091
1557.37	36.3645
1558.92	38.5118
1560.47	39.927
1562.02	40.4884
1563.56	41.4813
1565.11	42.6556
1566.66	44.1118
1568.21	44.7915
1569.75	45.4097
1571.3	46.3266
1572.85	47.1739
1574.39	48.3369
1575.94	49.5415
1577.49	49.6062
1579.03	50.2978
1580.57	51.3095
1582.12	52.045
1583.66	52.2702
1585.21	52.7834
1586.75	53.5442
1588.3	54.064
1589.84	53.8288
1591.38	54.4987
1592.92	54.7845
1594.47	55.1485
1596.01	55.1286
1597.55	55.6363
1599.09	56.2292
1600.63	55.1656
1602.17	55.3106
1603.71	55.3408
1605.25	54.6517
1606.79	54.4309
1608.33	53.9007
1609.87	53.2016
1611.41	52.6024
1612.95	52.4163
1614.49	52.2186
1616.03	51.8669
1617.57	50.6091
1619.1	50.3265
1620.64	50.403
1622.18	50.2529
1623.72	50.389
1625.25	50.819
1626.79	50.7735
1628.32	50.7039
1629.86	49.7936
1631.39	50.8757
1632.93	52.5729
1634.46	52.5329
1636	52.5718
1637.53	52.6808
1639.07	53.3107
1640.6	54.487
1642.13	55.6137
1643.67	57.1693
1645.2	57.478
1646.73	57.9791
1648.26	58.0025
1649.8	58.4185
1651.33	59.265
1652.86	60.126
1654.39	59.5133
1655.92	60.5404
1657.45	61.5857
1658.98	61.5907
1660.51	61.3745
1662.04	61.6276
1663.57	61.4652
1665.1	61.2926
1666.63	60.175
1668.16	59.0483
1669.68	57.3515
1671.21	56.7206
1672.74	54.9347
1674.27	52.7933
1675.79	50.6601
1677.32	48.5196
1678.85	47.1204
1680.37	45.616
1681.9	42.982
1683.42	41.6602
1684.95	39.6178
1686.47	37.9949
1688	36.5354
1689.52	34.5744
1691.05	32.4215
1692.57	29.8928
1694.09	28.0262
1695.62	26.7459
1697.14	23.7086
1698.66	21.6918
1700.18	19.8847
1701.71	18.4419
1703.23	16.937
1704.75	15.1751
1706.27	13.8777
1707.79	13.5282
1709.31	12.5895
1710.83	11.0272
1712.35	9.79572
1713.87	9.07492
1715.39	8.2074
1716.91	7.86076
1718.43	6.35935
1719.95	5.88892
1721.47	4.61608
1722.99	3.98914
1724.5	3.87071
1726.02	4.30975
1727.54	3.76215
1729.06	3.59438
1730.57	3.37838
1732.09	3.65181
1733.61	3.62584
1735.12	3.64878
1736.64	3.15136
1738.15	2.7515
1739.67	2.34459
1741.18	2.01581
1742.7	1.72293
1744.21	1.50814
1745.72	1.63761
1747.24	1.57533
1748.75	1.02277
1750.26	0.957982
1751.77	0.88544
1753.29	0.498638
1754.8	1.07883
1756.31	1.42113
1757.82	1.56458
1759.33	2.2551
1760.84	1.94872
1762.36	1.80405
1763.87	1.75742
1765.38	1.43938
1766.89	1.27608
1768.4	0.631062
1769.91	0.948705
1771.41	0.673299
1772.92	0.141559
1774.43	0.522219
1775.94	0.560142
1777.45	0.730761
1778.95	0.965371
1780.46	0.54002
1781.97	0.945411
1783.48	0.914323
1784.98	0.968398
1786.49	0.960216
1787.99	0.942038
1789.5	0.981389
1791.01	1.05244
1792.51	1.51253
1794.01	1.67053
1795.52	2.1865
1797.02	2.1676
1798.53	2.19692
1800.03	2.36139
1801.53	2.39973
1803.04	2.25766
1804.54	2.59534
1806.04	2.71016
1807.54	2.8009
1809.05	3.02746
1810.55	2.70413
1812.05	1.92849
1813.55	2.09591
1815.05	2.38117
1816.55	2.51642
1818.05	2.62411
1819.55	2.59334
1821.05	2.59129
1822.55	2.2774
1824.05	2.20037
1825.55	2.03078
1827.05	2.15244
1828.55	2.54639
1830.04	3.25004
1831.54	3.59078
1833.04	3.75654
1834.54	3.78297
1836.03	3.22936
1837.53	3.32292
1839.03	3.13405
1840.52	3.36071
1842.02	3.39675
1843.51	3.65056
1845.01	3.75946
1846.5	3.69758
1848	3.35113
1849.49	2.94605
1850.99	3.0047
1852.48	2.83116
1853.97	2.21823
1855.47	1.90902
1856.96	2.13164
1858.45	2.44891
1859.94	2.77317
1861.44	2.69859
1862.93	2.77
1864.42	3.23666
1865.91	3.99295
1867.4	4.2279
1868.89	3.95751
1870.38	3.67519
1871.87	3.63388
1873.36	3.6164
1874.85	4.15405
1876.34	4.35218
1877.83	4.34437
1879.32	4.22178
1880.81	4.69965
1882.3	4.86868
1882.57	5.41002
1884.07	5.16653
1885.56	5.33085
1887.06	5.5319
1888.55	5.4691
1890.04	5.67715
1891.54	5.81349
1893.03	5.7497
1894.52	5.95839
1896.02	5.5987
1897.51	5.96917
1899	6.34281
1900.49	6.75992
1901.98	6.93268
1903.47	6.84578
1904.96	7.03507
1906.45	6.66202
1907.94	7.2284
1909.43	6.87335
1910.92	7.08222
1912.41	6.82941
1913.9	7.24471
1915.39	5.68203
1916.88	5.19043
1918.37	4.99139
1919.85	4.38328
1921.34	4.73052
1922.83	4.55206
1924.32	4.71673
1925.8	4.1467
1927.29	3.91566
1928.78	4.20905
1930.26	4.79236
1931.75	4.65752
1933.23	4.40016
1934.72	4.47831
1936.2	4.64307
1937.69	4.32866
1939.17	4.09314
1940.66	3.81056
1942.14	3.91492
1943.63	3.82865
1945.11	3.28681
1946.59	3.15486
1948.07	3.64887
1949.56	3.152
1951.04	3.15724
1952.52	2.85848
1954	3.3141
1955.48	3.04224
1956.96	2.5873
1958.45	1.45984
1959.93	1.96432
1961.41	1.66576
1962.89	1.61945
1964.37	1.74973
1965.85	1.42785
1967.32	1.71238
1968.8	1.7388
1970.28	1.35689
1971.76	1.72112
1973.24	1.58131
1974.72	1.42278
1976.19	2.03347
1977.67	1.67834
1979.15	1.54496
1980.63	1.27051
1982.1	1.25153
1983.58	0.831542
1985.05	0.999814
1986.53	0.564434
1988	0.258336
1989.48	-0.282415
1990.95	1.09071
1992.43	1.35064
1993.9	1.3602
1995.38	2.00035
1996.85	1.46593
1998.32	1.37158
1999.8	1.04906
2001.27	1.56872
2002.74	1.33058
2004.22	1.7556
2005.69	1.21182
2007.16	0.983176
2008.63	0.925143
2010.1	0.7898
2011.57	1.04587
2013.04	1.21442
2014.51	0.740029
2015.98	0.268954
2017.45	-0.240629
2018.92	-0.399716
2020.39	-0.0967882
2021.86	0.448911
2023.33	0.792619
2024.8	1.25763
2026.27	1.27659
2027.74	1.82585
2029.2	0.800929
2030.67	0.567098
2032.14	0.769755
2033.61	1.26499
2035.07	0.798458
2036.54	1.06144
2038.01	1.13845
2039.47	1.05891
2040.94	1.19857
2042.4	0.94554
2043.87	1.06418
2045.33	1.55305
2046.8	1.93842
2048.26	1.80975
2049.72	2.52794
2051.19	2.49266
2052.65	2.79405
2054.12	3.30723
2055.58	3.71439
2057.04	4.20274
2058.5	4.55634
2059.97	4.3827
2061.43	4.90923
2062.89	5.43655
2064.35	5.71847
2065.81	5.79663
2067.27	5.85386
2068.73	6.06283
2070.19	6.02678
2071.65	6.22252
2073.11	6.60597
2074.57	7.61753
2076.03	7.55234
2077.49	7.70605
2078.95	7.56379
2080.41	8.06047
2081.87	8.62427
2083.32	9.46752
2084.78	9.8621
2086.24	9.92399
2087.7	10.3181
2089.15	11.1361
2090.61	12.1651
2092.07	12.3398
2093.52	13.665
2094.98	14.2661
2096.43	14.4496
2097.89	14.8177
2099.34	15.3506
2100.8	15.2727
2102.25	14.9237
2103.71	15.8852
2105.16	16.4113
2106.61	17.0603
2108.07	17.4864
2109.52	18.6144
2110.97	19.1352
2112.43	20.1358
2113.88	20.8793
2115.33	21.9926
2116.78	23.2385
2118.23	24.8004
2119.68	25.7181
2121.13	26.9784
2122.59	28.4425
2124.04	29.2364
2125.49	29.8513
2126.94	30.7469
2128.39	32.0186
2129.83	33.6344
2131.28	34.6663
2132.73	34.8619
2134.18	36.3358
2135.63	37.563
2137.08	38.9897
2138.53	40.1699
2139.97	41.3098
2141.42	42.6281
2142.87	43.9737
2144.31	45.9628
2145.76	47.503
2147.21	48.8477
2148.65	50.1322
2150.1	51.5664
2151.54	53.4585
2152.99	55.1956
2154.43	56.214
2155.88	57.382
2157.32	58.1
2158.77	59.121
2160.21	60.2241
2161.65	60.7465
2163.1	61.6595
2164.54	62.0137
2165.98	62.7731
2167.43	62.8186
2168.87	63.3405
2170.31	63.4172
2171.75	63.2867
2173.19	62.3797
2174.64	63.3464
2176.07	63.541
2177.52	63.5244
2178.96	63.2887
2180.4	62.9623
2181.84	63.3348
2183.28	62.2444
2184.72	61.8121
2186.15	61.0746
2187.59	60.619
2189.03	59.8543
2190.47	59.0241
2191.91	57.7434
2193.35	56.8032
2194.78	55.4984
2196.22	54.6687
2197.66	53.9469
2199.09	52.8839
2200.53	51.9462
2201.97	50.5613
2203.4	49.4192
2204.84	48.338
2206.27	47.6146
2207.71	46.4058
2209.14	45.0974
2210.58	44.0114
2212.01	42.639
2213.45	41.4608
2214.88	40.3803
2216.31	39.7675
2217.75	38.6366
2219.18	37.5328
2220.61	36.7829
2222.05	35.4053
2223.48	34.3065
2224.91	32.9855
2226.34	32.0514
2227.78	31.1153
2229.21	30.4032
2230.64	29.2159
2232.07	28.3356
2233.5	27.0749
2234.93	26.7719
2236.36	26.1513
2237.79	25.0659
2239.22	24.1643
2240.65	23.402
2242.08	22.169
2243.5	21.5262
2244.93	21.155
2246.36	21.3304
2247.79	19.8715
2249.22	19.2989
2250.64	19.2487
2252.07	18.892
2253.5	18.8155
2254.92	17.7258
2256.35	18.0593
2257.78	17.8978
2259.2	16.8247
2260.63	16.744
2262.05	16.3434
2263.48	15.9824
2264.9	16.1499
2266.33	16.028
2267.75	15.3846
2269.18	15.1281
2270.6	14.7481
2272.02	14.6434
2273.45	14.0907
2274.87	13.7763
2276.29	13.2009
2277.71	12.8285
2279.14	12.0951
2280.56	11.6508
2281.98	11.4809
2283.4	10.4796
2284.82	10.3674
2286.24	10.341
2287.66	10.4753
2289.08	9.99782
2290.5	9.51487
2291.92	8.8954
2293.34	8.13284
2294.76	8.17053
2296.18	8.36392
2297.6	9.07713
2299.02	8.99923
2300.44	9.76762
2301.86	9.29559
2303.27	10.2651
2304.69	10.2949
2306.11	10.3801
2307.53	10.4697
2308.94	10.2834
2310.36	9.80489
2311.78	10.0296
2313.19	9.60101
2314.61	10.1566
2316.02	10.5434
2317.44	10.71
2318.85	11.442
2320.27	11.807
2321.68	11.9428
2323.1	11.4811
2324.51	11.6629
2325.92	11.5237
2327.34	11.7034
2328.75	11.0346
2330.16	10.3341
2331.58	10.7591
2332.99	9.67387
2334.4	9.19304
2335.81	8.44016
2337.23	7.78499
2338.64	7.6765
2340.05	7.90141
2341.46	7.06015
2342.87	6.36395
2344.28	5.47495
2345.69	4.88063
2347.1	4.63581
2348.51	3.87902
2349.92	2.84279
2351.33	2.51605
2352.74	2.19218
2354.15	1.6977
2355.55	1.35316
2356.96	0.644425
2358.37	-0.165442
2359.78	-0.274295
2361.19	-0.97385
2362.59	-1.28363
2364	-0.901242
2365.41	0.0314495
2366.81	0.402161
2368.22	0.722768
2369.62	0.673066
2371.03	1.14498
2372.44	1.01566
2373.84	1.91535
2375.24	1.36672
2376.65	1.25359
2378.05	1.29368
2379.46	1.01814
2380.86	0.840316
2382.26	1.8638
2383.67	2.43894
2385.07	2.82373
2386.47	2.92106
2387.88	3.95181
2389.28	4.41033
2390.68	4.10357
2392.08	4.44988
2393.48	5.04282
2394.89	5.90609
2396.29	5.35362
2397.69	5.62451
2399.09	5.88207
2400.49	5.99858
2401.89	6.59589
2403.29	6.57008
2404.69	6.96461
2406.09	7.47448
2407.48	8.05422
2408.88	8.62345
2410.28	8.55238
2411.68	8.7647
2413.08	9.08831
2414.48	9.34731
2415.87	9.25783
2417.27	9.53618
2418.67	9.33325
2420.06	9.80463
2421.46	10.0428
2422.86	10.3044
2424.25	10.604
2425.65	9.91829
2427.04	9.46089
2428.44	9.42562
2429.83	9.48608
2431.23	8.63013
2432.62	8.89691
2434.02	8.97878
2435.41	9.23619
2436.81	8.78865
2438.2	8.32669
2439.59	8.37333
2440.99	8.17769
2442.38	8.01238
2443.77	7.51034
2445.16	6.40674
2446.56	6.17295
2447.95	6.23746
2449.34	6.35978
2450.73	6.16499
2452.12	5.77643
2453.51	5.56868
2454.9	5.04622
2456.29	4.76769
2457.68	4.76175
2459.07	4.13317
2460.46	3.91291
2461.85	3.6936
2463.24	3.79436
2464.63	3.87154
2466.02	3.40461
2467.4	4.03359
2468.79	4.17611
2470.18	3.87734
2471.57	4.47398
2472.95	4.51903
2474.34	4.57082
2475.73	5.25233
2477.12	5.15647
2478.5	5.8114
2479.89	6.0868
2481.27	6.48387
2482.66	6.3657
2484.04	6.82266
2485.43	6.83291
2486.81	7.07854
2488.2	7.24765
2489.58	7.54349
2490.97	7.22723
2492.35	7.22099
2493.73	6.96215
2495.12	6.91254
2496.5	7.20285
2497.88	7.08715
2499.27	6.72833
2500.65	6.35713
2502.03	5.82179
2503.41	5.77518
2504.79	5.74646
2506.17	5.49916
2507.56	5.16945
2508.94	5.30773
2510.32	5.61125
2511.7	5.66784
2513.08	5.69807
2514.46	5.55205
2515.84	6.22198
2517.22	6.23124
2518.59	5.89256
2519.97	5.31991
2521.35	5.12518
2522.73	4.98364
2524.11	4.65148
2525.49	5.09728
2526.86	5.04243
2528.24	4.62935
2529.62	4.6144
2530.99	4.2959
2532.37	4.51642
2533.75	4.27041
2535.12	4.1804
2536.5	4.19977
2537.88	4.51045
2539.25	4.77607
2540.63	5.12401
2542	4.90694
2543.38	4.67319
2544.75	4.94787
2546.12	5.34369
2547.5	5.5333
2548.87	6.18707
2550.24	6.33376
2551.62	6.62969
2552.99	6.89342
2554.36	6.64431
2555.74	6.34872
2557.11	6.43622
2558.48	6.51162
2559.85	6.75778
2561.22	7.08163
2562.59	7.55554
2563.96	7.7097
2565.34	6.92097
2566.71	6.68805
2568.08	6.58551
2569.45	6.79468
2570.82	6.51432
2572.18	7.20513
2573.55	6.96173
2574.92	6.54695
2576.29	6.7276
2577.66	6.92769
2579.03	6.97381
2580.4	6.35227
2581.77	6.39823
2583.13	5.74102
2584.5	5.82021
2585.87	5.33928
2587.23	4.63309
2588.6	3.97892
2589.97	3.93768
2591.33	3.50043
2592.7	4.35353
2594.06	4.34811
2595.43	3.62564
2596.79	3.45018
2598.16	3.35283
2599.52	3.42646
2600.89	3.73462
2602.25	3.83797
2603.62	3.88619
2604.98	3.77556
2606.34	4.03971
2607.71	4.22246
2609.07	4.29705
2610.43	4.85624
2611.79	5.37554
2613.16	6.08416
2614.52	6.19796
2615.88	6.43463
2617.24	7.25488
2618.6	7.02698
2619.96	7.60397
2621.32	7.67881
2622.68	7.77864
2624.04	8.22262
2625.4	8.43824
2626.76	9.05727
2628.12	9.24821
2629.48	9.76805
2630.84	9.50375
2632.2	9.26533
2633.56	9.38803
2634.92	9.60394
2636.28	9.56929
2637.63	9.46215
2638.99	8.97414
2640.35	8.96443
2641.71	8.64249
2643.06	8.42391
2644.42	8.51316
2645.77	7.96781
2647.13	7.65594
2648.49	7.32135
2649.84	7.44374
2651.2	7.1713
2652.55	7.59475
2653.91	7.48007
2655.26	7.32751
2656.62	7.73266
2657.97	8.02897
2659.33	8.27437
2660.68	8.80102
2662.03	8.13303
2663.39	8.05061
2664.74	8.05107
2666.09	7.86471
2667.44	8.22167
2668.8	8.18141
2670.15	8.1271
2671.5	8.46339
2672.85	8.94983
2674.2	9.19222
2675.55	9.45479
2676.91	9.91018
2678.26	9.98542
2679.61	10.1489
2680.96	10.3216
2682.31	10.4752
2683.66	10.5288
2685	10.5455
2686.35	10.4802
2687.7	10.6009
2689.05	10.458
2690.4	10.3615
2691.75	10.401
2693.1	10.1487
2694.44	10.2227
2695.79	9.7694
2697.14	9.96072
2698.49	9.71364
2699.83	9.87956
2701.18	9.73305
2702.52	9.58826
2703.87	9.42943
2705.22	9.00945
2706.56	8.87731
2707.91	8.93885
2709.25	9.04655
2710.6	9.01355
2711.94	9.32495
2713.29	9.44804
2714.63	9.48401
2715.97	9.76749
2717.32	9.93338
2718.66	9.90736
2720.01	9.65122
2721.35	9.59182
2722.69	9.35914
2724.03	9.23346
2725.38	9.3559
2726.72	9.01596
2728.06	8.70595
2729.4	8.41567
2730.74	8.35812
2732.08	8.42535
2733.42	8.33765
2734.76	8.65853
2736.1	9.00117
2737.44	9.58423
2738.78	9.47007
2740.12	9.63411
2741.46	9.35141
2742.8	9.14787
2744.14	9.30733
2745.48	9.37634
2746.82	9.35615
2748.16	8.68655
2749.49	8.1884
2750.83	7.5541
2752.17	7.47014
2753.51	6.87347
2754.84	6.66309
2756.18	6.8548
2757.52	6.44876
2758.85	5.45818
2760.19	4.9724
2761.53	4.58535
2762.86	4.25631
2764.2	3.88514
2765.53	3.50187
2766.87	2.85487
2768.2	2.40528
2769.54	2.13496
2770.87	1.99173
2772.2	1.48397
2773.54	1.41232
2774.87	1.68209
2776.2	1.96017
2777.54	1.76081
2778.87	1.91644
2780.2	2.0018
2781.53	1.57458
2782.87	1.5931
2784.2	1.22003
2785.53	1.02636
2786.86	0.986069
2788.19	1.38416
2789.52	1.08677
2790.85	0.848304
2792.18	1.04137
2793.51	0.960197
2794.84	1.29186
2796.17	1.29059
2797.5	1.52083
2798.83	2.05022
2800.16	2.05098
2801.49	2.72243
2802.82	3.02378
2804.15	2.98036
2805.47	2.53932
2806.8	3.00274
2808.13	2.80054
2809.46	2.74844
2810.78	3.11041
2812.11	2.95214
2813.44	2.72062
2814.76	2.90131
2816.09	3.00328
2817.42	2.89738
2818.74	3.11465
2820.07	3.6345
2821.39	4.03851
2822.72	4.31916
2824.04	4.38464
2825.37	4.63941
2826.69	5.69816
2828.02	6.41869
2829.34	6.78223
2830.66	7.32108
2831.99	8.02077
2833.31	8.63663
2834.63	9.35186
2835.96	10.175
2837.28	11.295
2838.6	12.4228
2839.92	14.1352
2841.24	16.0159
2842.57	17.8898
2843.89	19.3572
2845.21	21.6158
2846.53	23.6781
2847.85	25.473
2849.17	27.9498
2850.49	29.8663
2851.81	31.8006
2853.13	34.4296
2854.45	36.7311
2855.77	39.0193
2857.09	41.1514
2858.41	43.6102
2859.72	46.1729
2861.04	47.4474
2862.36	49.0244
2863.68	51.6475
2865	54.4928
2866.31	55.9279
2867.63	58.0917
2868.95	59.8657
2870.26	61.5802
2871.58	63.1535
2872.9	65.0816
2874.21	66.2885
2875.53	67.8567
2876.84	69.4307
2878.16	70.3678
2879.47	72.4291
2880.79	73.5518
2882.1	74.2685
2883.42	75.8166
2884.73	77.3904
2886.05	78.8608
2887.36	79.6207
2888.67	81.0438
2889.99	82.7139
2891.3	83.9692
2892.61	85.4906
2893.92	86.9903
2895.24	88.4499
2896.55	90.1652
2897.86	92.1014
2899.17	93.8032
2900.48	95.4682
2901.79	98.1303
2903.11	101.15
2904.42	104.019
2905.73	106.801
2907.04	110.014
2908.35	113.25
2909.66	116.864
2910.97	120.714
2912.27	123.866
2913.58	127.335
2914.89	130.714
2916.2	133.717
2917.51	136.573
2918.82	139.608
2920.13	142.118
2921.43	144.45
2922.74	146.749
2924.05	149.174
2925.35	151.242
2926.66	151.886
2927.97	154.006
2929.27	155.933
2930.58	156.131
2931.89	155.771
2933.19	156.379
2934.5	155.86
2935.8	155.289
2937.11	155.089
2938.41	154.358
2939.72	153.338
2941.02	152.247
2942.32	150.992
2943.63	148.997
2944.93	147.521
2946.24	144.973
2947.54	142.449
2948.84	140.006
2950.14	136.941
2951.45	134.479
2952.75	131.316
2954.05	128.944
2955.35	126.259
2956.65	123.114
2957.95	120.155
2959.26	117.011
2960.56	113.591
2961.86	110.23
2963.16	107.017
2964.46	103.94
2965.76	100.554
2967.06	98.3029
2968.36	95.546
2969.66	92.2433
2970.96	89.2478
2972.25	86.55
2973.55	83.8888
2974.85	81.4596
2976.15	78.2317
2977.45	74.9848
2978.74	72.1397
2980.04	68.86
2981.34	65.6777
2982.64	62.7502
2983.93	59.8067
2985.23	56.8433
2986.52	54.1335
2987.82	50.9061
2989.12	47.4113
2990.41	44.4723
2991.71	41.592
2993	39.4525
2994.3	36.7791
2995.59	33.9929
2996.89	31.7822
2998.18	29.6533
2999.48	27.6781
3000.77	25.6548
3002.06	23.8938
3003.36	21.9505
3004.65	20.2165
3005.94	18.4953
3007.23	16.9153
3008.53	14.7791
3009.82	13.4941
3011.11	12.2124
3012.4	10.6198
3013.69	10.1649
3014.99	9.83666
3016.28	8.98907
3017.57	8.02472
3018.86	7.63136
3020.15	7.41282
3021.44	6.44181
3022.73	5.84812
3024.02	5.47317
3025.31	4.98816
3026.6	5.13204
3027.89	5.03246
3029.18	4.63033
3030.46	4.65118
3031.75	5.14728
3033.04	5.61514
3034.33	5.1576
3035.62	5.22838
3036.9	5.55372
3038.19	5.67595
3039.48	5.66394
3040.76	5.6912
3042.05	5.63402
3043.34	5.7562
3044.62	5.56712
3045.91	5.36283
3047.19	5.32549
3048.48	4.79533
3049.77	4.9177
3051.05	4.87573
3052.34	4.54399
3053.62	4.93969
3054.9	5.3839
3056.19	5.83099
3057.47	5.42316
3058.76	5.37241
3060.04	5.12386
3061.32	5.08414
3062.61	5.66281
3063.89	5.96549
3065.17	5.18087
3066.45	5.88869
3067.74	5.9014
3069.02	6.04483
3070.3	5.95251
3071.58	5.842
3072.86	6.02024
3074.14	6.26734
3075.42	5.77707
3076.7	5.55018
3077.99	5.81256
3079.26	5.20298
3080.54	4.40869
3081.82	4.42567
3083.1	3.88137
3084.38	3.64652
3085.66	3.42362
3086.94	3.73556
3088.22	3.89819
3089.5	4.07409
3090.78	4.438
3092.05	3.99352
3093.33	4.07416
3094.61	4.41964
3095.89	4.03153
3097.16	3.72432
3098.44	3.57345
3099.72	3.74846
3100.99	3.5294
3102.27	3.36109
3103.54	3.18132
3104.82	3.24176
3106.1	3.17296
3107.37	3.23807
3108.65	3.41058
3109.92	3.52245
3111.2	3.51904
3112.47	3.47845
3113.74	4.18028
3115.02	4.48798
3116.29	4.99993
3117.56	5.25136
3118.84	5.726
3120.11	6.36583
3121.38	6.46582
3122.66	7.52848
3123.93	8.27448
3125.2	9.27338
3126.47	10.3883
3127.74	10.6945
3129.01	11.0743
3130.29	12.3813
3131.56	12.7563
3132.83	13.5249
3134.1	13.8869
3135.37	14.6491
3136.64	15.3398
3137.91	15.645
3139.18	16.2565
3140.45	17.5869
3141.72	18.7596
3142.99	19.822
3144.26	21.1772
3145.52	22.6229
3146.79	24.1715
3148.06	24.9372
3149.33	24.945
