#Acq. time (s)=	30
#Accumulations=	2
#Range (cm-¹)=	200...3150
#Windows=	2
#Auto scanning=	Off
#Autofocus=	Off
#Macrospot=	Off
#AutoExposure=	Off
#Spike filter=	Multiple accum.
#Delay time (s)=	0
#Binning=	1
#Readout mode=	Signal
#DeNoise=	Off
#ICS correction=	On
#Dark correction=	Off
#Inst. Process=	Off
#Detector Gain=	Best Dynamic Range
#Detector ADC=	20 kHz       
#Detector temperature (°C)=	-69.85
#Instrument=	LabRAM HR Evol
#Detector=	Synapse
#Objective=	x100
#Grating=	600 gr/mm
#ND Filter=	100%
#Laser (nm)=	532 
#Hole=	100.021
#Range=	Auto
#Laser Pol.=	No
#Raman. Pol.=	No
#Laser Pol. (°)=	-0.0007625
#Raman Pol. (°)=	89.9995
#Collection=	Microscope
#StageXY=	Marzhauser
#StageZ=	Marzhauser
#X (µm)=	9000.8
#Y (µm)=	-3083.2
#Z (µm)=	-54.85
#Full time(mm:ss)=	2:18
#Project=	
#Sample=	
#Site=	
#Title=	Thy_00_07_3_2x_30s_532 nm_x100_100%_600 gr_mm
#Remark=	
#Date=	28.06.2022 10:06
#Acquired=	28.06.2022 10:06:28
#Base:Fit=	10.08.2022 10:07:56
#Base:Sub=	10.08.2022 10:08:40
#Filter:Polynom=	16.08.2022 10:26:06
#AxisType[0]=Intens
#AxisUnit[0]=Cnt
#AxisType[1]=Spectr
#AxisUnit[1]=1/cm
200.407	40.4907
202.221	35.5498
204.035	32.622
205.849	28.8254
207.665	24.8072
209.478	21.4862
211.291	18.936
213.104	16.4391
214.916	14.4262
216.73	12.374
218.541	10.6716
220.352	10.3067
222.163	9.54173
223.973	8.03646
225.785	7.48503
227.595	5.91274
229.404	4.53751
231.213	3.49045
233.022	3.57872
234.83	2.66364
236.638	3.08699
238.448	2.69789
240.255	2.31839
242.062	2.67806
243.868	2.78651
245.675	2.48844
247.48	2.00964
249.286	2.4088
251.091	2.94418
252.896	3.00024
254.702	5.01421
256.506	6.10199
258.31	6.97809
260.113	8.47417
261.916	9.40052
263.719	10.4763
265.521	11.3821
267.323	11.926
269.125	12.3153
270.926	11.6731
272.727	11.5384
274.527	11.8321
276.328	11.8751
278.127	12.2145
279.927	12.8717
281.726	12.8504
283.525	13.1848
285.323	12.9592
287.121	13.0632
288.919	12.2134
290.716	11.9515
292.513	11.537
294.31	11.688
296.104	12.3517
297.9	13.2232
299.696	12.5775
301.491	11.8999
303.286	11.4849
305.081	11.9482
306.875	12.1898
308.669	11.5732
310.463	11.5766
312.256	10.6736
314.047	10.2488
315.839	10.0191
317.631	8.97596
319.423	8.8705
321.215	8.5314
323.006	8.35795
324.794	7.52066
326.585	7.1339
328.375	6.08915
330.165	6.07829
331.954	5.44724
333.741	4.1283
335.53	3.08113
337.318	3.20974
339.106	4.54857
340.894	4.90077
342.679	6.58922
344.466	6.57996
346.253	6.84438
348.039	6.67876
349.823	7.04917
351.608	7.68481
353.393	7.59422
355.176	7.95101
356.961	8.10113
358.745	7.51171
360.529	7.07803
362.31	7.67275
364.093	7.87028
365.876	7.56662
367.657	7.4962
369.439	7.99023
371.221	7.48955
373	7.94475
374.781	7.43174
376.56	8.02539
378.34	8.63686
380.12	8.53352
381.898	9.76749
383.677	10.0901
385.456	9.57802
387.233	9.14042
389.011	8.32978
390.787	8.60602
392.565	10.1385
394.34	10.1255
396.117	10.0745
397.894	9.40041
399.668	9.20277
401.444	8.79934
403.217	8.04119
404.993	7.44345
406.766	6.49677
408.54	6.40728
410.312	6.33113
412.086	6.65716
413.858	6.37683
415.631	6.34004
417.402	6.40114
419.174	6.24318
420.944	5.68572
422.716	5.24482
424.486	5.79471
426.257	6.92358
428.025	6.5588
429.794	5.66599
431.564	5.42121
433.332	4.6175
435.101	5.0383
436.868	5.05545
438.637	4.8053
440.403	4.39779
442.169	3.97111
443.937	4.30003
445.703	3.42351
447.468	3.66488
449.234	3.47651
450.999	3.71675
452.765	3.54241
454.528	4.17182
456.292	4.56209
458.057	4.88916
459.819	5.57784
461.582	7.00682
463.344	7.31099
465.107	8.33538
466.868	9.08315
468.629	8.05856
470.392	9.94735
472.152	10.1571
473.912	10.5136
475.672	11.653
477.433	13.0719
479.192	14.6562
480.951	15.3171
482.709	15.5284
484.469	16.5093
486.226	16.7246
487.984	16.7492
489.74	17.8926
491.499	18.9649
493.255	19.9854
495.011	20.2509
496.767	21.7814
498.522	21.8141
500.277	22.0203
502.033	21.9115
503.788	23.0203
505.541	22.8638
507.295	22.0795
509.048	21.8918
510.801	21.5102
512.553	22.0891
514.308	21.6941
516.06	20.4593
517.811	19.5272
519.562	19.1542
521.313	19.1059
523.063	18.0132
524.814	17.7517
526.563	17.5274
528.313	16.9395
530.062	17.2519
531.811	16.7379
533.559	15.9368
535.308	15.9349
537.055	14.8675
538.803	14.822
540.55	14.9736
542.297	14.5341
544.043	13.2849
545.789	12.134
547.535	12.0542
549.281	11.264
551.026	9.66465
552.771	9.58991
554.515	9.15065
556.259	8.45501
558.003	9.47864
559.747	8.62244
561.49	8.09624
563.233	7.92015
564.975	7.6327
566.717	6.97562
568.459	6.38962
570.2	7.04947
571.942	7.101
573.68	7.58784
575.421	8.03919
577.161	7.80913
578.901	8.12099
580.64	8.43155
582.379	8.25193
584.118	8.80749
585.855	8.62592
587.593	9.90894
589.331	10.2761
591.068	11.2681
592.805	11.292
594.54	12.2183
596.277	13.1981
598.013	13.8304
599.749	14.7381
601.484	14.4771
603.217	15.1091
604.952	15.751
606.687	16.3482
608.421	17.1146
610.153	17.1114
611.886	18.2771
613.619	18.4724
615.35	18.4298
617.083	18.2454
618.815	18.0412
620.547	17.9404
622.276	17.9879
624.008	17.2525
625.738	16.7029
627.467	16.73
629.197	15.8662
630.927	14.7804
632.655	13.5035
634.384	13.4537
636.113	12.9088
637.839	11.1544
639.568	10.9342
641.293	9.62846
643.021	10.0847
644.748	9.95317
646.473	9.00625
648.2	7.97866
649.924	8.68184
651.65	9.28252
653.376	9.95732
655.099	10.1857
656.824	10.3466
658.546	11.0699
660.271	11.8774
661.993	12.8022
663.716	12.2735
665.438	13.7729
667.161	14.3703
668.881	14.6341
670.604	16.6022
672.324	18.2703
674.045	18.9871
675.765	19.9351
677.486	21.2326
679.204	22.4824
680.925	23.3606
682.643	23.6055
684.361	24.5858
686.08	25.6636
687.797	26.3891
689.516	27.6789
691.232	27.7294
692.95	28.6548
694.666	29.0878
696.382	28.7175
698.099	29.9255
699.813	29.5196
701.528	30.035
703.244	29.6548
704.958	29.8135
706.673	28.7714
708.387	28.636
710.099	27.8615
711.814	28.2816
713.526	28.1851
715.238	27.3406
716.949	27.5438
718.663	27.9294
720.374	28.6188
722.084	28.6993
723.796	28.4624
725.506	29.6711
727.216	30.1813
728.925	31.2223
730.636	31.1822
732.345	30.442
734.053	30.8843
735.761	31.8279
737.471	31.9273
739.178	32.181
740.885	31.4786
742.592	32.3081
744.298	34.1442
746.006	35.0091
747.712	35.8842
749.417	35.1155
751.122	37.0705
752.827	38.0317
754.532	40.0968
756.236	41.3637
757.942	41.8358
759.645	42.0345
761.348	44.6465
763.051	45.0855
764.753	46.0498
766.456	46.6756
768.158	47.3195
769.859	47.7268
771.56	48.5354
773.261	49.5006
774.964	48.9
776.664	48.9419
778.364	50.0986
780.064	49.3235
781.763	49.6131
783.462	49.9602
785.16	49.7956
786.859	50.4912
788.557	50.2557
790.255	51.3455
791.952	51.9579
793.649	53.128
795.346	53.0536
797.042	53.9759
798.738	53.8523
800.434	55.6657
802.127	56.704
803.823	57.1873
805.517	58.05
807.212	58.4744
808.906	58.8207
810.6	59.4841
812.293	59.1903
813.987	59.9449
815.68	58.9462
817.372	58.0941
819.064	58.1593
820.754	57.6239
822.446	58.0831
824.137	57.5827
825.828	58.0875
827.519	58.4754
829.209	58.5276
830.897	58.7187
832.587	59.2257
834.276	59.5591
835.966	60.3928
837.654	59.9753
839.341	59.7622
841.029	58.3534
842.717	57.1379
844.404	56.6241
846.091	56.2701
847.776	53.9886
849.463	53.4977
851.149	52.1447
852.833	50.6752
854.519	49.5412
856.204	48.3541
857.889	46.749
859.572	44.9798
861.256	44.3914
862.94	43.6341
864.622	41.8701
866.305	41.0586
867.988	39.7634
869.669	39.4914
871.351	38.289
873.033	37.2709
874.713	36.0673
876.395	34.9557
878.074	34.6042
879.755	33.2585
881.435	33.6911
883.114	33.064
884.794	34.0284
886.471	34.0626
888.15	34.2633
889.829	32.8962
891.506	32.6459
893.184	33.0467
894.861	32.9411
896.538	33.0074
898.214	33.4703
899.891	32.681
901.566	33.5106
903.242	34.9621
904.916	35.9721
906.592	37.0453
908.266	37.797
909.941	38.4812
911.614	38.7804
913.288	39.5702
914.961	40.0231
916.635	39.8364
918.306	39.1774
919.979	38.3633
921.651	37.739
923.321	37.3481
924.994	37.0868
926.664	37.1285
928.336	37.5528
930.005	36.823
931.674	36.0963
933.345	35.8601
935.014	35.6889
936.682	35.2481
938.352	34.7921
940.019	34.028
941.687	33.1326
943.356	33.1278
945.022	32.1531
946.689	31.963
948.357	31.5054
950.022	31.2685
951.688	30.7359
953.355	31.2339
955.02	30.3324
956.684	30.3285
958.348	29.7932
960.014	29.3687
961.678	27.9525
963.341	26.7319
965.004	27.7528
966.669	27.5194
968.331	28.6621
969.993	29.1854
971.655	29.1406
973.316	29.5659
974.979	31.2016
976.64	31.21
978.3	32.2589
979.961	33.0684
981.62	33.9376
983.28	34.5717
984.941	35.4701
986.6	36.1987
988.259	36.4766
989.917	36.8458
991.575	37.4303
993.233	37.9258
994.89	38.7345
996.547	38.5535
998.204	38.9641
999.86	39.7122
1001.52	39.3969
1003.17	40.0186
1004.83	39.561
1006.49	40.3231
1008.14	40.0029
1009.79	39.19
1011.45	38.6256
1013.1	38.0315
1014.76	37.9838
1016.41	37.6061
1018.06	37.0201
1019.72	35.6648
1021.37	34.9948
1023.02	34.6053
1024.67	33.2224
1026.32	33.035
1027.97	32.0067
1029.62	31.6074
1031.27	30.3397
1032.92	29.0993
1034.57	27.7982
1036.22	26.5264
1037.87	25.5333
1039.52	25.2123
1041.17	23.8187
1042.82	22.5487
1044.47	21.5739
1046.11	22.1628
1047.76	21.9989
1049.41	21.2318
1051.06	21.1743
1052.7	20.8652
1054.35	20.6445
1055.99	19.9143
1057.64	18.9032
1059.28	18.2634
1060.93	18.4003
1062.57	18.7603
1064.22	18.6528
1065.86	18.0221
1067.5	18.3671
1069.15	18.8043
1070.79	19.3855
1072.43	20.707
1074.08	21.9434
1075.72	22.5261
1077.36	22.4374
1079	22.1391
1080.64	22.2649
1082.28	22.1322
1083.92	21.9348
1085.56	21.7492
1087.2	21.8435
1088.84	22.2096
1090.48	21.5247
1092.12	21.2268
1093.76	21.778
1095.39	22.4139
1097.03	22.4466
1098.67	22.6919
1100.31	22.583
1101.94	22.8999
1103.58	22.9529
1105.22	22.7987
1106.85	22.5499
1108.49	22.4147
1110.12	22.5504
1111.76	22.5656
1113.39	22.6555
1115.03	22.509
1116.66	22.7957
1118.29	23.2684
1119.93	22.449
1121.56	21.879
1123.19	20.0702
1124.82	18.5517
1126.46	17.9232
1128.09	17.2709
1129.72	15.4577
1131.35	15.4209
1132.98	14.7765
1134.61	14.1346
1136.24	12.7898
1137.87	11.9974
1139.5	11.4583
1141.13	11.5986
1142.76	11.8819
1144.39	12.4881
1146.01	11.7192
1147.64	11.9622
1149.27	13.4127
1150.9	13.3186
1152.53	13.8283
1154.15	15.0222
1155.78	14.0062
1157.4	13.9527
1159.03	14.1265
1160.65	14.2539
1162.28	14.1604
1163.9	14.1395
1165.53	15.0832
1167.15	15.0568
1168.78	15.3735
1170.4	15.0098
1172.02	15.7411
1173.65	16.5346
1175.27	17.8596
1176.89	18.193
1178.51	18.3584
1180.14	19.0935
1181.76	19.2888
1183.38	20.3078
1185	20.4047
1186.62	20.5297
1188.24	21.019
1189.86	21.2002
1191.48	21.9692
1193.1	22.1808
1194.71	22.8036
1196.33	23.3517
1197.95	23.629
1199.57	22.835
1201.19	22.59
1202.8	23.8091
1204.42	23.3563
1206.04	24.7187
1207.65	26.3302
1209.27	27.8389
1210.88	29.5816
1212.5	31.2187
1214.12	32.7636
1215.73	34.7201
1217.35	36.0496
1218.96	38.7262
1220.57	41.1478
1222.19	42.8571
1223.8	43.632
1225.41	45.1885
1227.03	47.0023
1228.64	48.1907
1230.25	49.1569
1231.86	48.9554
1233.47	50.4074
1235.08	51.6528
1236.69	51.5813
1238.31	53.0381
1239.92	53.1372
1241.52	53.9808
1243.13	54.1804
1244.74	55.1411
1246.35	55.5207
1247.96	54.9842
1249.57	55.1038
1251.18	56.2995
1252.78	55.8374
1254.39	54.7194
1256	54.1959
1257.6	52.9728
1259.21	53.3559
1260.82	53.0314
1262.42	51.3706
1264.03	50.6181
1265.63	50.0679
1267.24	49.5743
1268.84	49.2776
1270.45	49.3352
1272.05	49.9436
1273.65	50.4599
1275.26	50.7055
1276.86	50.7214
1278.46	51.5913
1280.06	52.8226
1281.67	53.773
1283.27	54.9758
1284.87	56.3893
1286.47	57.9847
1288.07	58.9543
1289.67	60.9037
1291.27	62.3868
1292.87	63.5244
1294.47	64.1718
1296.07	65.0955
1297.67	66.4231
1299.27	68.5613
1300.87	69.691
1302.47	69.2117
1304.06	69.739
1305.66	71.7393
1307.26	73.1217
1308.85	73.7773
1310.45	74.9239
1312.05	76.2275
1313.64	78.2381
1315.24	78.784
1316.83	79.6431
1318.43	81.0586
1320.02	82.1313
1321.62	83.4571
1323.21	83.4007
1324.8	83.0841
1326.4	82.8506
1327.99	83.1143
1329.59	82.3878
1331.18	81.2685
1332.77	79.8448
1334.36	79.996
1335.95	79.3247
1337.54	78.3884
1339.14	78.3679
1340.73	77.188
1342.32	75.496
1343.91	75.3901
1345.5	74.5877
1347.09	73.5497
1348.67	72.55
1350.26	71.7916
1351.85	71.1983
1353.44	69.4043
1355.03	67.8851
1356.62	66.9784
1358.2	66.2804
1359.79	65.0681
1361.38	63.6188
1362.96	63.9799
1364.55	62.8014
1366.14	62.0422
1367.72	61.24
1369.31	60.164
1370.89	58.1664
1372.48	56.6213
1374.06	55.5244
1375.64	56.434
1377.23	56.2091
1378.81	55.4881
1380.39	54.1949
1381.98	53.1845
1383.56	53.038
1385.14	52.9206
1386.72	52.5009
1388.3	51.8874
1389.89	51.1872
1391.47	50.6509
1393.05	50.1792
1394.63	48.5656
1396.21	48.632
1397.79	48.4356
1399.37	47.5944
1400.95	46.5034
1402.52	45.8737
1404.1	44.9819
1405.68	45.0054
1407.26	45.4264
1408.84	45.3704
1410.42	45.9555
1411.99	47.0568
1413.57	47.801
1415.15	48.0767
1416.72	50.153
1418.3	51.919
1419.87	53.1914
1421.45	54.4358
1423.02	56.1932
1424.6	58.336
1426.17	60.2887
1427.75	62.0447
1429.32	64.6503
1430.89	66.6134
1432.47	68.4103
1434.04	71.6784
1435.61	74.6499
1437.18	76.9394
1438.76	79.5718
1440.33	80.4494
1441.9	81.766
1443.47	82.28
1445.04	82.6927
1446.61	83.6125
1448.18	83.7301
1449.75	84.7587
1451.32	85.5434
1452.89	85.9504
1454.46	86.0331
1456.03	84.9964
1457.6	84.3572
1459.16	83.7311
1460.73	82.3963
1462.3	80.657
1463.87	78.8795
1465.43	77.3095
1467	75.4713
1468.56	72.8467
1470.13	70.6154
1471.7	67.869
1473.26	65.0299
1474.83	62.5069
1476.39	59.7795
1477.96	56.7958
1479.52	54.1782
1481.08	52.06
1482.65	49.7864
1484.21	48.497
1485.77	47.1019
1487.34	44.9134
1488.9	44.4646
1490.46	42.5471
1492.02	41.5974
1493.58	40.2253
1495.15	39.2316
1496.71	38.2959
1498.27	36.7941
1499.83	35.2706
1501.39	34.752
1502.95	34.0158
1504.51	32.7328
1506.07	32.6135
1507.63	32.9442
1509.18	32.1503
1510.74	31.6031
1512.3	31.192
1513.86	29.3698
1515.41	28.6964
1516.97	27.588
1518.53	26.8137
1520.08	26.72
1521.64	26.9685
1523.2	27.3054
1524.75	27.6548
1526.31	27.2596
1527.86	28.292
1529.42	28.4412
1530.97	29.3513
1532.52	30.4465
1534.08	31.3839
1535.63	32.309
1537.19	32.3648
1538.74	32.7084
1540.29	33.6638
1541.84	34.0153
1543.4	35.0407
1544.95	36.333
1546.5	36.9258
1548.05	37.8644
1549.6	37.762
1551.15	40.2057
1552.7	41.8434
1554.25	44.1133
1555.8	46.7501
1557.35	48.6195
1558.9	50.8662
1560.45	52.5748
1562	54.8252
1563.54	56.8939
1565.09	58.0635
1566.64	59.4733
1568.19	60.5947
1569.73	62.8083
1571.28	63.8286
1572.83	65.3621
1574.37	66.8589
1575.92	67.5547
1577.47	68.6019
1579.01	69.6206
1580.56	70.5452
1582.1	71.8242
1583.64	73.2006
1585.19	74.0276
1586.73	73.8391
1588.28	74.1443
1589.82	75.0156
1591.36	75.0328
1592.9	75.8146
1594.45	75.3604
1595.99	75.4099
1597.53	75.3409
1599.07	75.3589
1600.61	75.0549
1602.15	73.9435
1603.69	73.4228
1605.23	72.6624
1606.77	71.8587
1608.31	71.8063
1609.85	71.1629
1611.39	69.8214
1612.93	68.2325
1614.47	67.5842
1616.01	67.0637
1617.55	65.8662
1619.08	65.0648
1620.62	65.181
1622.16	65.5769
1623.7	65.4824
1625.23	64.8397
1626.77	65.3772
1628.3	67.5261
1629.84	68.0449
1631.37	68.9358
1632.91	68.9657
1634.44	68.9544
1635.98	69.855
1637.51	70.4415
1639.05	72.1495
1640.58	72.7301
1642.11	72.8031
1643.65	74.2332
1645.18	76.1202
1646.71	76.6351
1648.24	77.2418
1649.78	78.3922
1651.31	79.0636
1652.84	79.4163
1654.37	80.3145
1655.9	81.0307
1657.43	81.6176
1658.96	81.2707
1660.49	80.4029
1662.02	79.3274
1663.55	78.2911
1665.08	77.214
1666.61	76.1566
1668.14	74.2861
1669.66	72.8639
1671.19	70.85
1672.72	68.7272
1674.25	67.4341
1675.77	65.2345
1677.3	63.2983
1678.83	61.008
1680.35	58.6676
1681.88	56.6776
1683.4	54.6403
1684.93	51.9594
1686.45	49.2086
1687.98	46.8386
1689.5	45.027
1691.03	42.66
1692.55	40.2881
1694.07	37.6536
1695.6	36.4257
1697.12	34.6744
1698.64	32.7919
1700.17	30.741
1701.69	28.9335
1703.21	28.3083
1704.73	27.0776
1706.25	25.9912
1707.77	24.6207
1709.29	23.476
1710.81	22.7731
1712.33	22.2005
1713.85	20.8504
1715.37	20.3322
1716.89	19.3658
1718.41	18.7082
1719.93	18.7681
1721.45	18.0927
1722.97	17.3736
1724.49	16.4854
1726	15.5682
1727.52	14.2453
1729.04	13.4773
1730.55	12.7576
1732.07	11.8566
1733.59	10.807
1735.1	10.4071
1736.62	9.79506
1738.13	9.72098
1739.65	9.5088
1741.16	9.07071
1742.68	8.45637
1744.19	8.40458
1745.7	8.32913
1747.22	8.08679
1748.73	7.78389
1750.24	7.72203
1751.76	7.35912
1753.27	6.79516
1754.78	5.86581
1756.29	4.99203
1757.8	4.34064
1759.31	3.84539
1760.83	3.53303
1762.34	3.8258
1763.85	4.0729
1765.36	4.21205
1766.87	3.96832
1768.38	4.20682
1769.89	4.11522
1771.39	4.55672
1772.9	3.90961
1774.41	4.1659
1775.92	4.12007
1777.43	4.12132
1778.94	4.21763
1780.44	3.95529
1781.95	4.38715
1783.46	4.21824
1784.96	4.01837
1786.47	3.47213
1787.97	3.41474
1789.48	2.84258
1790.99	3.18964
1792.49	2.98031
1794	2.58351
1795.5	2.49015
1797	1.71656
1798.51	1.56984
1800.01	0.973844
1801.51	0.899132
1803.02	1.30231
1804.52	1.73294
1806.02	1.79201
1807.53	1.85926
1809.03	1.54655
1810.53	1.50139
1812.03	0.814402
1813.53	1.24747
1815.03	1.23987
1816.53	1.52529
1818.03	1.46811
1819.53	1.75072
1821.03	1.36423
1822.53	1.30733
1824.03	0.866866
1825.53	0.415642
1827.03	0.317974
1828.53	-0.381146
1830.02	-0.308765
1831.52	-0.156683
1833.02	-0.463324
1834.52	-0.0367725
1836.01	0.11594
1837.51	0.542321
1839.01	1.15021
1840.5	1.31351
1842	1.04005
1843.49	0.328126
1844.99	0.121897
1846.48	-0.145016
1847.98	0.109496
1849.47	-0.0385431
1850.97	-0.281054
1852.46	0.0278025
1853.95	0.327695
1855.45	1.35244
1856.94	1.65858
1858.43	2.11601
1859.93	2.33484
1861.42	2.55185
1862.91	3.00259
1864.4	3.18341
1865.89	3.51653
1867.38	3.26909
1868.87	3.39245
1870.36	3.44416
1871.85	3.38608
1873.34	3.34887
1874.83	4.08453
1876.32	4.67656
1877.81	4.28326
1879.3	4.35658
1880.79	4.75331
1882.28	5.00502
1882.52	5.2349
1884.02	5.78592
1885.51	5.53189
1887.01	5.7008
1888.5	5.53801
1889.99	5.52447
1891.49	5.23325
1892.98	5.16989
1894.47	4.97332
1895.97	4.98559
1897.46	4.56373
1898.95	4.74616
1900.44	4.60261
1901.93	3.79194
1903.42	3.7427
1904.91	3.33779
1906.4	3.16437
1907.89	3.53371
1909.38	3.80704
1910.87	4.02645
1912.36	3.89355
1913.85	4.1331
1915.34	3.71794
1916.83	3.7247
1918.32	3.50596
1919.8	3.54155
1921.29	3.89985
1922.78	3.54957
1924.27	4.38721
1925.75	5.0361
1927.24	5.68202
1928.73	6.04962
1930.21	5.87579
1931.7	6.2113
1933.18	5.84726
1934.67	5.88082
1936.15	5.7793
1937.64	5.31014
1939.12	5.48398
1940.61	5.80867
1942.09	5.86527
1943.57	5.6475
1945.06	5.62095
1946.54	5.76641
1948.02	6.22929
1949.51	6.59001
1950.99	6.43966
1952.47	6.49542
1953.95	6.24754
1955.43	5.49235
1956.91	5.23247
1958.4	5.49278
1959.88	5.10119
1961.36	4.92084
1962.84	5.07033
1964.32	4.70697
1965.8	4.18187
1967.27	4.20809
1968.75	4.0289
1970.23	4.53328
1971.71	4.16549
1973.19	3.73705
1974.67	3.448
1976.14	3.60995
1977.62	4.13915
1979.1	4.48154
1980.58	4.49963
1982.05	4.52084
1983.53	4.52871
1985	3.50838
1986.48	3.16958
1987.95	2.95102
1989.43	2.20652
1990.9	2.24682
1992.38	2.10623
1993.85	2.52503
1995.33	2.96479
1996.8	2.9089
1998.27	3.31795
1999.75	3.0315
2001.22	3.39215
2002.69	3.88024
2004.16	4.16404
2005.64	3.74475
2007.11	3.83465
2008.58	4.25286
2010.05	4.58697
2011.52	4.76757
2012.99	5.23187
2014.46	5.08022
2015.93	4.95112
2017.4	4.99314
2018.87	5.18951
2020.34	5.8915
2021.81	6.0395
2023.28	6.40396
2024.75	5.91339
2026.22	5.40601
2027.69	6.12476
2029.15	5.88495
2030.62	6.53897
2032.09	6.46167
2033.56	6.48383
2035.02	6.11979
2036.49	6.20082
2037.96	6.26662
2039.42	6.45295
2040.89	6.79262
2042.35	6.76747
2043.82	6.7141
2045.28	6.11113
2046.75	6.10042
2048.21	6.36536
2049.67	6.82535
2051.14	6.22518
2052.6	6.38577
2054.07	6.53562
2055.53	6.82424
2056.99	5.98003
2058.45	5.06681
2059.92	5.71688
2061.38	5.48544
2062.84	5.95129
2064.3	6.37973
2065.76	6.6671
2067.22	6.62064
2068.68	6.70323
2070.14	6.58389
2071.6	6.82708
2073.06	6.89834
2074.52	7.57312
2075.98	7.8135
2077.44	7.65
2078.9	8.19609
2080.36	8.71077
2081.82	8.66963
2083.27	8.21033
2084.73	8.25519
2086.19	8.50363
2087.65	8.5812
2089.1	8.85444
2090.56	8.5992
2092.02	8.99452
2093.47	9.69952
2094.93	8.95102
2096.38	9.02631
2097.84	8.60899
2099.29	8.3259
2100.75	8.80137
2102.2	8.2444
2103.66	8.30578
2105.11	7.91239
2106.56	8.24122
2108.02	7.93405
2109.47	7.62903
2110.92	7.18239
2112.38	6.6961
2113.83	6.39696
2115.28	5.64084
2116.73	5.03056
2118.18	5.40528
2119.63	5.10125
2121.09	4.85192
2122.54	4.71792
2123.99	3.82508
2125.44	4.63028
2126.89	4.26428
2128.34	3.65454
2129.79	2.40678
2131.23	2.33481
2132.68	2.80529
2134.13	3.13602
2135.58	3.74157
2137.03	4.14427
2138.48	3.88786
2139.92	3.78304
2141.37	4.39533
2142.82	4.44358
2144.27	4.61561
2145.71	4.20042
2147.16	4.82671
2148.6	5.42621
2150.05	5.27472
2151.49	5.50287
2152.94	5.94965
2154.38	6.00032
2155.83	6.35183
2157.27	7.53088
2158.72	8.05195
2160.16	7.87876
2161.6	8.72386
2163.05	9.33836
2164.49	10.2806
2165.93	10.4903
2167.38	10.552
2168.82	11.5273
2170.26	11.6267
2171.7	11.7928
2173.14	11.7847
2174.58	11.3952
2176.03	11.0716
2177.47	11.8695
2178.91	12.2899
2180.35	11.9842
2181.79	11.4998
2183.23	11.1833
2184.67	11.4833
2186.1	11.7999
2187.54	11.7479
2188.98	11.5844
2190.42	11.582
2191.86	11.264
2193.3	11.6661
2194.73	11.5862
2196.17	11.6036
2197.61	11.5057
2199.05	10.9178
2200.48	10.653
2201.92	10.3356
2203.35	10.7001
2204.79	11.1132
2206.22	10.7377
2207.66	9.84172
2209.1	9.22396
2210.53	8.39372
2211.97	7.85736
2213.4	7.37095
2214.83	6.21846
2216.27	5.25887
2217.7	4.85822
2219.13	4.79175
2220.57	4.25674
2222	3.6498
2223.43	3.18418
2224.86	3.30388
2226.29	3.08403
2227.72	2.82404
2229.16	2.74016
2230.59	2.43379
2232.02	2.24869
2233.45	2.65223
2234.88	2.7616
2236.31	2.66735
2237.74	2.44256
2239.17	2.71742
2240.6	2.41093
2242.03	2.09432
2243.45	2.37862
2244.88	3.16149
2246.31	3.29647
2247.74	3.80672
2249.17	4.63423
2250.59	4.71568
2252.02	5.22543
2253.45	6.23317
2254.87	6.81393
2256.3	7.47021
2257.73	7.78992
2259.15	8.2125
2260.58	8.37851
2262	9.46933
2263.43	10.2536
2264.85	10.8254
2266.28	10.6106
2267.7	11.0485
2269.13	11.3396
2270.55	11.8837
2271.97	12.2954
2273.4	12.1266
2274.82	11.5015
2276.24	11.0492
2277.67	9.81865
2279.09	9.42839
2280.51	8.96254
2281.93	9.0315
2283.35	8.85177
2284.77	8.56675
2286.2	8.17211
2287.62	7.97725
2289.04	8.15012
2290.46	7.45798
2291.88	6.40387
2293.3	6.08248
2294.72	5.97893
2296.13	6.5086
2297.55	6.80256
2298.97	6.94024
2300.39	6.84569
2301.81	7.26395
2303.23	7.3871
2304.64	7.82877
2306.06	8.18711
2307.48	7.92455
2308.89	7.8923
2310.31	8.48912
2311.73	8.84583
2313.14	9.39914
2314.56	10.4349
2315.98	10.5474
2317.39	10.3951
2318.81	11.4602
2320.22	12.0025
2321.64	12.8633
2323.05	13.5324
2324.46	14.1346
2325.88	14.3299
2327.29	14.4737
2328.7	15.0489
2330.12	15.174
2331.53	15.1575
2332.94	15.4457
2334.35	14.967
2335.77	14.7489
2337.18	13.5314
2338.59	13.2606
2340	12.1931
2341.41	11.0258
2342.82	10.1799
2344.23	8.67002
2345.64	7.91554
2347.05	6.83811
2348.46	6.36442
2349.87	5.96117
2351.28	5.58128
2352.69	5.72773
2354.1	5.60674
2355.51	4.86391
2356.91	4.43637
2358.32	4.02347
2359.73	3.05883
2361.14	2.35277
2362.54	1.79439
2363.95	2.37108
2365.36	2.40924
2366.76	2.37608
2368.17	2.56619
2369.58	1.79339
2370.98	0.988602
2372.39	1.25952
2373.79	1.05775
2375.2	1.22141
2376.6	1.41565
2378	1.55161
2379.41	2.30841
2380.81	2.81439
2382.22	2.74684
2383.62	3.0536
2385.02	3.42866
2386.43	3.02568
2387.83	3.29655
2389.23	4.10884
2390.63	4.01177
2392.03	4.09279
2393.44	4.64511
2394.84	4.8669
2396.24	4.82849
2397.64	4.1023
2399.04	4.25756
2400.44	3.97908
2401.84	4.40105
2403.24	4.61501
2404.64	4.76474
2406.04	5.29043
2407.44	4.96822
2408.84	5.47275
2410.23	5.27147
2411.63	5.2357
2413.03	5.85602
2414.43	5.70511
2415.83	6.39812
2417.22	6.72905
2418.62	7.44016
2420.02	7.45321
2421.41	7.87387
2422.81	8.13715
2424.21	8.09919
2425.6	7.82727
2427	8.68406
2428.39	8.07115
2429.79	7.71414
2431.18	7.9257
2432.58	7.71567
2433.97	8.17951
2435.36	8.07544
2436.76	7.72021
2438.15	7.96104
2439.54	7.24703
2440.94	7.51311
2442.33	7.38263
2443.72	6.97491
2445.12	6.87671
2446.51	6.75244
2447.9	6.34804
2449.29	6.55817
2450.68	6.31832
2452.07	6.05886
2453.46	6.27986
2454.85	5.49936
2456.24	5.52522
2457.64	5.22478
2459.02	5.13103
2460.41	4.40256
2461.8	4.16351
2463.19	4.37702
2464.58	3.69613
2465.97	3.26532
2467.36	2.7771
2468.75	3.07831
2470.13	3.21813
2471.52	3.23479
2472.91	3.27557
2474.3	3.38214
2475.68	2.6798
2477.07	2.08341
2478.45	1.79234
2479.84	1.13649
2481.23	1.12879
2482.61	1.42524
2484	1.21881
2485.38	2.08915
2486.77	1.21259
2488.15	1.07299
2489.54	0.895711
2490.92	0.495015
2492.3	0.454029
2493.69	0.576218
2495.07	0.505742
2496.45	0.0974161
2497.84	-0.62622
2499.22	-0.263367
2500.6	-0.0267983
2501.98	0.25135
2503.36	0.603436
2504.75	0.204108
2506.13	0.650574
2507.51	1.67797
2508.89	1.53918
2510.27	1.73936
2511.65	1.67139
2513.03	2.71529
2514.41	3.02263
2515.79	3.43765
2517.17	3.80555
2518.55	4.49146
2519.93	4.87572
2521.3	4.52542
2522.68	4.99161
2524.06	4.85454
2525.44	5.33492
2526.82	5.48388
2528.19	5.72156
2529.57	5.90873
2530.95	6.25337
2532.32	6.17752
2533.7	5.93361
2535.08	5.89293
2536.45	5.72035
2537.83	5.69982
2539.2	5.64391
2540.58	5.28548
2541.95	5.67255
2543.33	5.82795
2544.7	5.63763
2546.08	6.0556
2547.45	5.97185
2548.82	5.97286
2550.2	6.04962
2551.57	6.45124
2552.94	6.37117
2554.32	6.2477
2555.69	5.24585
2557.06	5.46414
2558.43	4.55939
2559.8	4.22379
2561.18	4.3034
2562.55	3.99137
2563.92	3.59576
2565.29	3.95508
2566.66	4.58625
2568.03	4.39651
2569.4	4.15374
2570.77	4.09333
2572.14	3.96263
2573.51	3.83118
2574.88	3.53901
2576.25	3.38093
2577.61	3.06718
2578.98	2.75423
2580.35	2.56109
2581.72	2.63128
2583.09	2.21488
2584.45	2.594
2585.82	2.58236
2587.19	2.53503
2588.55	2.78409
2589.92	2.76325
2591.29	2.67928
2592.65	2.22702
2594.02	2.30476
2595.38	2.02979
2596.75	1.41284
2598.11	1.6389
2599.48	1.46591
2600.84	1.56341
2602.21	1.93387
2603.57	1.90948
2604.93	2.58787
2606.3	2.85011
2607.66	2.77308
2609.02	2.73149
2610.39	3.45368
2611.75	3.37079
2613.11	3.29363
2614.47	3.50612
2615.83	3.6078
2617.19	3.6739
2618.56	4.41519
2619.92	4.4434
2621.28	4.55923
2622.64	4.71067
2624	5.02426
2625.36	5.23244
2626.72	5.21292
2628.08	5.4438
2629.44	5.36228
2630.8	5.34153
2632.15	5.77756
2633.51	6.12271
2634.87	6.26476
2636.23	6.26043
2637.59	6.35399
2638.94	6.79914
2640.3	6.63849
2641.66	6.66573
2643.02	6.22028
2644.37	7.07523
2645.73	7.10872
2647.09	6.6008
2648.44	6.43604
2649.8	6.14452
2651.15	5.77512
2652.51	5.29559
2653.86	4.87806
2655.22	4.69024
2656.57	4.6904
2657.93	4.31045
2659.28	3.65959
2660.63	3.18653
2661.99	3.45296
2663.34	3.14818
2664.69	3.25991
2666.05	4.06563
2667.4	4.35623
2668.75	4.61072
2670.1	4.43438
2671.45	4.42115
2672.81	4.60145
2674.16	3.72549
2675.51	3.60284
2676.86	3.4689
2678.21	3.69758
2679.56	3.57011
2680.91	3.78612
2682.26	3.97446
2683.61	4.12226
2684.96	4.68675
2686.31	5.06385
2687.66	4.79985
2689	5.39987
2690.35	5.24622
2691.7	5.67047
2693.05	6.04761
2694.4	6.30437
2695.74	6.6221
2697.09	7.03209
2698.44	7.64896
2699.79	7.97862
2701.13	8.77086
2702.48	9.05013
2703.83	9.24364
2705.17	9.45438
2706.52	9.70441
2707.86	9.39701
2709.21	10.0959
2710.55	10.2477
2711.9	11.0267
2713.24	11.0359
2714.58	11.1304
2715.93	11.0261
2717.27	10.8267
2718.62	11.3171
2719.96	11.3831
2721.3	11.4177
2722.65	11.2249
2723.99	10.8249
2725.33	10.9614
2726.67	10.8658
2728.01	10.7432
2729.35	11.2469
2730.7	11.2558
2732.04	11.2885
2733.38	11.6705
2734.72	11.1634
2736.06	10.8099
2737.4	10.795
2738.74	11.0287
2740.08	11.0041
2741.42	10.5327
2742.76	10.4779
2744.1	10.0562
2745.43	10.4717
2746.77	10.5244
2748.11	10.4599
2749.45	10.1863
2750.79	10.1814
2752.12	9.68026
2753.46	9.35913
2754.8	9.19884
2756.14	9.29169
2757.47	9.76522
2758.81	9.14732
2760.14	8.98228
2761.48	8.38259
2762.81	7.83072
2764.15	7.59492
2765.49	7.18816
2766.82	7.01834
2768.16	7.00193
2769.49	6.62779
2770.82	6.61642
2772.16	6.02442
2773.49	5.41941
2774.82	5.22425
2776.16	5.45128
2777.49	4.95717
2778.82	4.53816
2780.16	3.67805
2781.49	3.1143
2782.82	2.64678
2784.15	2.84615
2785.48	3.06353
2786.82	2.44025
2788.15	1.9763
2789.48	2.20614
2790.81	1.92017
2792.14	2.26348
2793.47	2.1065
2794.8	1.80513
2796.13	1.83674
2797.46	1.51762
2798.79	0.952976
2800.12	0.880942
2801.44	0.870525
2802.77	0.746959
2804.1	1.2569
2805.43	1.13414
2806.76	1.01537
2808.08	0.727124
2809.41	0.534647
2810.74	0.143557
2812.07	-0.118658
2813.39	-0.361495
2814.72	-0.340747
2816.05	-0.100939
2817.37	-0.0228754
2818.7	0.579236
2820.02	1.66253
2821.35	2.46547
2822.67	3.75221
2824	5.11783
2825.32	5.84875
2826.65	7.81724
2827.97	9.19281
2829.3	10.5892
2830.62	12.4455
2831.94	13.8872
2833.26	15.7121
2834.59	17.1953
2835.91	19.3315
2837.23	20.8481
2838.56	22.8662
2839.88	25.3949
2841.2	28.2825
2842.52	31.13
2843.84	33.9669
2845.16	37.6102
2846.48	41.1059
2847.8	44.8665
2849.12	48.5233
2850.45	52.459
2851.77	56.3806
2853.08	60.1596
2854.4	64.1247
2855.72	68.6404
2857.04	72.0729
2858.36	76.1564
2859.68	79.9508
2861	83.5321
2862.32	87.373
2863.63	90.762
2864.95	94.4658
2866.27	98.2968
2867.59	101.176
2868.9	103.795
2870.22	107.18
2871.54	109.649
2872.85	112.43
2874.17	114.883
2875.48	116.901
2876.8	119.518
2878.11	122.344
2879.43	124.611
2880.74	126.331
2882.06	128.51
2883.37	130.641
2884.69	133.447
2886	135.668
2887.31	137.516
2888.63	139.719
2889.94	141.558
2891.25	143.408
2892.57	145.105
2893.88	146.332
2895.19	148.276
2896.5	150.306
2897.82	152.562
2899.13	155.535
2900.44	158.286
2901.75	161.563
2903.06	164.059
2904.37	167.945
2905.68	171.35
2906.99	174.964
2908.3	178.876
2909.61	182.542
2910.92	186.559
2912.23	190.076
2913.54	193.98
2914.85	198.246
2916.16	203.021
2917.46	206.995
2918.77	210.826
2920.08	213.933
2921.39	217.17
2922.7	219.229
2924	221.753
2925.31	223.785
2926.62	224.904
2927.92	225.645
2929.23	225.812
2930.54	225.939
2931.84	225.189
2933.15	223.893
2934.45	223.057
2935.76	222.397
2937.06	220.283
2938.37	218.804
2939.67	216.313
2940.98	213.521
2942.28	211.265
2943.58	207.54
2944.89	204.046
2946.19	200.439
2947.49	197.054
2948.8	193.513
2950.1	189.738
2951.4	185.818
2952.7	182.071
2954.01	178.689
2955.31	175.045
2956.61	171.382
2957.91	168.418
2959.21	164.877
2960.51	162.107
2961.81	159.015
2963.11	156.218
2964.41	153.086
2965.71	149.636
2967.01	146.363
2968.31	143.077
2969.61	140.486
2970.91	137.058
2972.21	134.525
2973.51	131.761
2974.81	128.121
2976.1	125.325
2977.4	122.629
2978.7	119.991
2980	116.977
2981.29	113.805
2982.59	109.489
2983.89	105.585
2985.18	101.205
2986.48	96.9904
2987.78	92.2888
2989.07	88.3957
2990.37	83.8546
2991.66	79.1933
2992.96	74.9009
2994.25	70.8332
2995.55	66.5797
2996.84	62.1264
2998.14	58.2823
2999.43	54.5339
3000.73	50.6171
3002.02	47.0264
3003.31	43.7262
3004.61	40.0634
3005.9	36.8989
3007.19	34.0369
3008.48	30.9611
3009.77	28.3936
3011.07	25.4036
3012.36	22.9735
3013.65	20.5384
3014.94	18.4481
3016.23	16.8495
3017.52	15.2112
3018.81	13.986
3020.1	12.7621
3021.4	11.1328
3022.68	10.3783
3023.97	8.60665
3025.26	8.016
3026.55	7.45458
3027.84	6.99876
3029.13	6.34931
3030.42	5.78866
3031.71	5.68785
3033	5.62429
3034.28	6.17759
3035.57	6.52952
3036.86	7.35529
3038.15	7.4126
3039.43	7.84875
3040.72	8.78234
3042.01	9.72618
3043.29	9.81753
3044.58	10.1158
3045.87	10.3712
3047.15	10.7416
3048.44	11.5783
3049.72	12.249
3051.01	12.3403
3052.29	12.5402
3053.58	13.4979
3054.86	13.355
3056.15	13.5146
3057.43	13.5134
3058.71	13.3217
3060	13.0631
3061.28	12.9345
3062.56	12.8363
3063.84	12.6175
3065.13	12.3822
3066.41	12.3098
3067.69	11.4831
3068.97	11.3854
3070.26	10.9764
3071.54	10.0026
3072.82	9.06316
3074.1	7.53053
3075.38	6.48755
3076.66	5.70764
3077.94	5.08435
3079.22	4.68691
3080.5	4.06625
3081.78	3.24537
3083.06	2.6802
3084.34	2.1671
3085.62	1.47906
3086.9	1.28736
3088.18	0.35233
3089.45	0.114403
3090.73	-0.23744
3092.01	-0.226648
3093.29	-0.734017
3094.56	-0.882183
3095.84	-0.443043
3097.12	-0.313242
3098.4	0.0284339
3099.67	0.407511
3100.95	0.203765
3102.22	-0.0452832
3103.5	0.0987943
3104.78	0.248891
3106.05	0.863539
3107.33	0.771598
3108.6	1.35478
3109.88	1.88292
3111.15	2.71305
3112.43	2.20431
3113.7	2.19193
3114.97	2.40611
3116.25	3.03877
3117.52	3.77947
3118.79	3.86791
3120.07	4.54741
3121.34	4.96754
3122.61	5.38242
3123.88	6.09354
3125.16	6.7128
3126.43	7.3325
3127.7	8.16817
3128.97	8.63508
3130.24	9.21629
3131.51	10
3132.79	10.7889
3134.06	11.2578
3135.33	11.6295
3136.6	12.9825
3137.87	13.9012
3139.14	15.2934
3140.41	16.6589
3141.67	17.8187
3142.94	19.0454
3144.21	20.3476
3145.48	21.6263
3146.75	22.848
3148.02	23.8632
3149.29	26.4514
