#Acq. time (s)=	45
#Accumulations=	2
#Range (cm-¹)=	200...3150
#Windows=	2
#Auto scanning=	Off
#Autofocus=	Off
#Macrospot=	Off
#AutoExposure=	Off
#Spike filter=	Multiple accum.
#Delay time (s)=	0
#Binning=	1
#Readout mode=	Signal
#DeNoise=	Off
#ICS correction=	On
#Dark correction=	Off
#Inst. Process=	Off
#Detector Gain=	Best Dynamic Range
#Detector ADC=	20 kHz       
#Detector temperature (°C)=	-69.85
#Instrument=	LabRAM HR Evol
#Detector=	Synapse
#Objective=	x100
#Grating=	600 gr/mm
#ND Filter=	100%
#Laser (nm)=	532 
#Hole=	100.021
#Range=	Auto
#Laser Pol.=	No
#Raman. Pol.=	No
#Laser Pol. (°)=	-0.0007625
#Raman Pol. (°)=	89.9995
#Collection=	Microscope
#StageXY=	Marzhauser
#StageZ=	Marzhauser
#X (µm)=	268.8
#Y (µm)=	1691.3
#Z (µm)=	427.7
#Full time(mm:ss)=	3:18
#Project=	
#Sample=	
#Site=	
#Title=	Thy_40_11_50_2x_45s_532 nm_x100_100%_600 gr_mm
#Remark=	
#Date=	05.07.2022 13:37
#Acquired=	05.07.2022 13:37:58
#Base:Fit=	10.08.2022 10:01:35
#Base:Sub=	10.08.2022 10:01:52
#Filter:Polynom=	16.08.2022 10:21:53
#AxisType[0]=Intens
#AxisUnit[0]=Cnt
#AxisType[1]=Spectr
#AxisUnit[1]=1/cm
200.43	6.15257
202.244	6.91
204.059	5.19928
205.873	4.53415
207.688	5.5345
209.501	6.29503
211.314	6.7525
213.127	6.78184
214.941	6.82212
216.753	6.81582
218.564	6.1186
220.375	4.95528
222.186	4.94391
223.999	5.19673
225.809	5.8856
227.618	5.06039
229.428	4.46046
231.236	3.42468
233.045	2.84884
234.855	4.34586
236.663	6.27268
238.471	7.73541
240.278	7.99388
242.085	9.22505
243.891	9.75368
245.698	10.5132
247.503	10.7763
249.309	11.1947
251.116	11.813
252.921	11.8797
254.725	10.6814
256.529	10.9142
258.333	12.0112
260.136	12.0221
261.939	12.5736
263.742	11.9886
265.544	11.7974
267.346	11.9499
269.148	12.7045
270.949	13.7582
272.75	13.3411
274.55	12.8752
276.351	13.5211
278.15	13.6692
279.95	12.9007
281.749	12.9673
283.548	12.7146
285.346	12.8553
287.144	12.6939
288.942	12.3958
290.739	13.2082
292.536	13.7942
294.333	14.6415
296.129	14.979
297.925	13.4331
299.721	14.0959
301.514	14.0128
303.309	12.7447
305.104	12.5616
306.898	12.2243
308.692	12.4996
310.486	13.1706
312.279	13.6515
314.072	13.0391
315.862	13.4374
317.654	13.5443
319.446	14.0831
321.238	15.5879
323.029	16.965
324.819	18.9197
326.608	19.1469
328.398	19.1952
330.188	19.4105
331.977	20.1906
333.766	20.3132
335.553	20.5314
337.341	20.7396
339.129	20.8289
340.917	21.2942
342.704	20.8511
344.489	20.9121
346.275	21.6411
348.062	21.6669
349.845	20.6796
351.631	20.8014
353.416	19.6702
355.201	19.7013
356.984	19.7802
358.768	19.5392
360.552	19.0597
362.333	17.7401
364.116	17.4747
365.899	16.9289
367.68	16.2129
369.462	15.2658
371.243	16.3284
373.023	16.7568
374.804	16.9194
376.585	16.7623
378.363	17.0886
380.143	17.0562
381.923	16.8855
383.7	17.2825
385.479	17.4408
387.256	16.7505
389.034	16.5939
390.812	15.9725
392.588	15.4508
394.365	16.0667
396.14	16.5794
397.916	17.3944
399.691	16.7682
401.467	16.3513
403.24	16.4538
405.015	18.0629
406.788	17.5853
408.563	17.9516
410.335	18.64
412.109	19.1946
413.88	19.6557
415.654	19.2107
417.424	19.8406
419.197	20.2938
420.967	19.7533
422.739	19.488
424.508	18.2605
426.279	17.8153
428.048	16.6457
429.819	16.4327
431.587	14.8742
433.356	14.9754
435.124	14.4817
436.891	13.9266
438.66	13.4518
440.426	13.0442
442.194	11.8798
443.96	12.5189
445.725	11.6325
447.492	12.0036
449.257	11.7527
451.021	11.4233
452.787	11.5109
454.551	10.2268
456.314	11.4497
458.079	11.9496
459.842	13.2017
461.604	13.2959
463.368	13.5175
465.13	13.8208
466.891	14.3535
468.654	14.4403
470.415	15.1307
472.175	14.9173
473.935	14.7643
475.696	15.2666
477.456	14.8413
479.215	16.1211
480.973	16.2476
482.733	16.692
484.491	17.2892
486.249	17.5057
488.006	16.9585
489.765	17.6676
491.522	18.1759
493.278	18.5127
495.034	19.3746
496.789	20.8779
498.544	21.4131
500.301	21.4303
502.056	20.3692
503.81	20.4244
505.564	19.9319
507.317	19.1765
509.071	18.1079
510.825	17.7263
512.578	16.9142
514.33	17.7614
516.082	16.7641
517.833	16.1402
519.585	15.7937
521.335	15.529
523.086	15.152
524.836	14.4472
526.586	14.0001
528.335	13.256
530.085	13.586
531.835	14.104
533.584	13.499
535.332	13.6585
537.08	12.7403
538.827	12.1073
540.574	12.1758
542.321	12.4766
544.068	12.9085
545.814	12.4727
547.56	12.8827
549.305	12.569
551.05	12.4676
552.795	11.371
554.54	11.2863
556.282	10.1818
558.025	9.32079
559.769	7.89676
561.512	8.13319
563.255	7.41535
564.997	6.75321
566.739	8.34937
568.481	7.76923
570.223	7.78915
571.964	7.48131
573.705	6.86284
575.443	7.13144
577.183	7.73026
578.923	7.39712
580.663	7.35169
582.402	7.23703
584.141	6.64148
585.879	5.97878
587.615	5.37322
589.353	4.13469
591.09	4.19029
592.828	2.44374
594.564	3.52611
596.299	3.68986
598.035	3.71202
599.771	3.25467
601.506	3.77508
603.242	2.62593
604.974	3.84596
606.709	3.7762
608.443	4.0632
610.177	4.39003
611.908	3.17398
613.642	3.16466
615.374	3.9276
617.105	4.51329
618.837	4.30299
620.569	3.43433
622.3	3.55562
624.03	3.63033
625.761	4.06499
627.491	4.68372
629.219	5.84182
630.949	4.93985
632.677	7.00033
634.406	7.62535
636.135	8.04471
637.861	8.08174
639.59	8.07061
641.318	9.13495
643.043	9.00183
644.77	9.66858
646.495	9.78544
648.222	10.2735
649.948	10.1088
651.672	9.91047
653.398	10.8761
655.121	9.91373
656.846	9.90076
658.569	9.70155
660.293	9.24829
662.015	9.08308
663.738	9.29777
665.46	8.63226
667.183	9.11114
668.903	9.39351
670.626	10.0125
672.346	10.1105
674.067	10.3889
675.787	10.2836
677.508	11.6335
679.226	12.1023
680.947	13.1403
682.665	12.4737
684.385	12.4754
686.102	12.6592
687.821	13.1121
689.538	12.3937
691.254	13.1263
692.972	12.9355
694.688	13.4716
696.406	12.7534
698.121	12.5639
699.835	13.0741
701.552	14.1102
703.266	14.541
704.98	15.0139
706.695	14.9731
708.409	15.5272
710.121	16.6866
711.836	17.2853
713.548	18.3616
715.26	19.5388
716.973	19.4389
718.685	20.784
720.396	19.9609
722.108	20.4565
723.818	21.3137
725.528	22.6234
727.238	23.4932
728.949	23.4506
730.658	23.5029
732.367	23.4814
734.075	25.0126
735.785	25.394
737.493	25.9758
739.2	28.6303
740.907	29.3181
742.614	30.3935
744.322	31.6463
746.028	31.8499
747.734	33.0464
749.439	35.57
751.144	36.6494
752.849	38.3661
754.555	39.2305
756.26	40.5765
757.963	41.8255
759.667	42.993
761.37	43.7669
763.073	44.6056
764.775	45.2881
766.477	45.3649
768.179	46.4959
769.883	48.3017
771.584	49.4816
773.285	50.2303
774.986	51.0212
776.686	53.3994
778.386	54.8554
780.085	55.7245
781.785	56.6007
783.484	57.8832
785.182	58.4561
786.881	59.0615
788.579	58.8003
790.276	59.016
791.974	59.7815
793.671	60.5712
795.367	62.1665
797.064	62.0897
798.76	62.1556
800.456	62.4825
802.151	61.8119
803.846	62.219
805.541	63.3027
807.234	64.7144
808.928	65.1243
810.622	65.5987
812.315	64.9916
814.008	64.5347
815.701	64.2339
817.394	64.689
819.086	65.4096
820.778	64.7513
822.468	64.9681
824.159	65.1251
825.85	63.7308
827.541	63.564
829.231	63.4072
830.921	62.4003
832.609	62.7299
834.298	62.4232
835.987	62.0411
837.676	61.3994
839.364	60.3456
841.051	59.4748
842.738	58.2849
844.426	57.5399
846.113	57.1514
847.798	56.516
849.484	55.1098
851.171	54.1266
852.857	53.3952
854.54	52.6413
856.226	51.2312
857.911	50.4782
859.593	49.8687
861.278	49.7602
862.961	49.085
864.645	48.6571
866.327	47.9628
868.01	46.6729
869.692	44.9284
871.373	43.7658
873.055	44.1622
874.735	43.4056
876.416	42.7877
878.097	42.3156
879.776	42.1023
881.457	41.0354
883.135	41.4407
884.815	42.7067
886.495	42.8153
888.172	43.3531
889.851	42.8839
891.528	42.384
893.206	41.1824
894.882	41.4194
896.56	40.4496
898.237	40.3177
899.912	40.7561
901.589	40.5845
903.263	40.7734
904.94	41.1939
906.614	40.4432
908.289	39.9053
909.962	39.9325
911.635	39.7457
913.31	38.8362
914.982	37.5848
916.656	37.7949
918.328	36.2282
920.001	34.8568
921.672	34.0955
923.345	32.8463
925.015	31.6988
926.685	30.8251
928.357	29.9782
930.026	29.0122
931.698	27.243
933.366	26.0328
935.035	25.964
936.705	24.6306
938.373	24.1947
940.041	24.2583
941.71	24.0311
943.377	23.9037
945.044	23.1279
946.712	22.3175
948.378	22.0681
950.044	21.7401
951.709	21.5759
953.376	21.5031
955.041	21.2339
956.706	21.8524
958.372	20.6659
960.036	21.7764
961.699	22.0436
963.362	21.6463
965.027	21.4868
966.69	21.9179
968.352	21.4454
970.014	20.0861
971.676	19.3898
973.339	19.033
975	19.6995
976.661	19.1483
978.322	20.2417
979.982	20.3778
981.642	20.2174
983.303	20.0181
984.962	18.7062
986.621	18.6316
988.28	16.7393
989.938	15.7241
991.596	15.1985
993.254	15.1841
994.911	14.0785
996.57	13.0625
998.227	12.4077
999.884	11.422
1001.54	10.6766
1003.2	10.6418
1004.85	10.7316
1006.51	10.1973
1008.16	9.50743
1009.82	8.62537
1011.47	8.15742
1013.12	8.02883
1014.78	7.68098
1016.43	7.88197
1018.08	7.79237
1019.74	7.18708
1021.39	8.22011
1023.04	8.08077
1024.69	7.90026
1026.34	8.39143
1028	8.77633
1029.65	9.3311
1031.3	10.5692
1032.95	10.8753
1034.6	10.5518
1036.25	10.1879
1037.9	10.0223
1039.54	9.86493
1041.19	9.19117
1042.84	10.2872
1044.49	10.4049
1046.14	10.5937
1047.78	11.2349
1049.43	12.733
1051.08	13.7507
1052.72	13.9509
1054.37	14.472
1056.02	15.0258
1057.66	15.6784
1059.31	16.3968
1060.95	17.3803
1062.6	17.6896
1064.24	17.2997
1065.88	17.8858
1067.53	18.3696
1069.17	19.1247
1070.81	19.4588
1072.45	21.3522
1074.1	22.3491
1075.74	22.9375
1077.38	22.5279
1079.02	22.8666
1080.66	23.7899
1082.3	24.1888
1083.94	25.5291
1085.58	25.7968
1087.22	25.9654
1088.86	26.5371
1090.5	27.0031
1092.14	26.9707
1093.78	28.8874
1095.42	30.4749
1097.05	30.5302
1098.69	30.7481
1100.33	30.0222
1101.96	30.4636
1103.6	31.276
1105.24	31.0627
1106.87	31.9214
1108.51	31.9456
1110.14	31.9368
1111.78	31.1286
1113.41	30.7849
1115.05	30.0284
1116.68	28.8396
1118.31	28.0838
1119.95	26.6842
1121.58	26.4564
1123.21	26.0108
1124.85	25.6785
1126.48	25.0368
1128.11	23.2033
1129.74	23.014
1131.37	21.6176
1133	20.1256
1134.63	18.8387
1136.26	17.6975
1137.89	17.2736
1139.52	17.1939
1141.15	16.9447
1142.78	15.1326
1144.41	14.7577
1146.04	13.2243
1147.66	12.279
1149.29	11.2698
1150.92	9.93096
1152.55	8.61072
1154.17	8.10664
1155.8	7.98268
1157.43	6.94124
1159.05	6.56264
1160.68	6.81896
1162.3	7.17773
1163.93	6.76629
1165.55	6.76386
1167.17	6.41893
1168.8	6.68094
1170.42	6.11399
1172.05	6.77843
1173.67	5.53371
1175.29	6.50347
1176.91	4.95117
1178.54	4.09505
1180.16	4.30139
1181.78	4.73512
1183.4	4.81748
1185.02	4.42682
1186.64	4.57292
1188.26	4.94806
1189.88	4.03208
1191.5	3.44532
1193.12	2.54283
1194.74	2.54152
1196.36	2.75122
1197.97	2.12441
1199.59	2.32063
1201.21	2.23869
1202.83	2.83155
1204.44	2.90871
1206.06	3.75345
1207.68	4.56008
1209.29	5.5852
1210.91	7.31487
1212.52	6.91384
1214.14	7.58995
1215.75	8.59095
1217.37	9.02195
1218.98	10.4775
1220.59	11.4283
1222.21	11.7566
1223.82	12.4791
1225.43	14.3508
1227.05	14.6569
1228.66	15.2889
1230.27	15.9372
1231.88	16.6922
1233.49	17.7876
1235.1	19.1315
1236.72	20.0293
1238.33	20.7324
1239.94	22.0261
1241.55	23.5615
1243.16	25.1322
1244.76	25.5186
1246.37	26.7165
1247.98	27.6319
1249.59	28.0635
1251.2	27.7406
1252.8	28.9501
1254.41	28.878
1256.02	30.1537
1257.62	30.1924
1259.23	31.8854
1260.84	32.3657
1262.44	33.1055
1264.05	32.079
1265.66	33.4138
1267.26	34.5314
1268.86	34.9123
1270.47	36.0066
1272.07	36.8141
1273.67	38.2996
1275.28	40.3463
1276.88	41.3033
1278.48	42.5497
1280.09	44.2576
1281.69	46.6123
1283.29	49.1459
1284.89	51.2696
1286.49	52.8718
1288.09	55.2275
1289.69	57.546
1291.29	57.8255
1292.89	58.771
1294.49	61.3261
1296.09	63.4755
1297.69	64.9334
1299.29	67.2175
1300.89	69.6859
1302.49	71.5303
1304.08	74.5531
1305.68	77.101
1307.28	79.8101
1308.88	83.1876
1310.47	86.1634
1312.07	89.7526
1313.66	92.9596
1315.26	95.4028
1316.85	99.074
1318.45	103.203
1320.04	106.205
1321.64	108.459
1323.23	111.199
1324.83	112.466
1326.42	113.962
1328.01	115.019
1329.61	116.176
1331.2	117.784
1332.79	119.236
1334.38	120.612
1335.97	122.176
1337.56	123.867
1339.16	124.478
1340.75	125.201
1342.34	126.146
1343.93	125.919
1345.52	128.081
1347.11	128.544
1348.7	128.576
1350.29	128.605
1351.87	127.681
1353.46	127.939
1355.05	127.781
1356.64	126.32
1358.22	125.513
1359.81	124.079
1361.4	123.223
1362.98	120.994
1364.57	118.184
1366.16	116.585
1367.74	114.311
1369.33	111.423
1370.91	108.475
1372.5	106.553
1374.08	103.805
1375.67	100.142
1377.25	97.3818
1378.83	95.7928
1380.41	94.7725
1382	93.4039
1383.58	92.292
1385.16	90.9092
1386.74	90.2803
1388.33	88.7199
1389.91	86.0313
1391.49	84.9702
1393.07	83.2684
1394.65	80.8998
1396.23	79.8966
1397.81	78.0399
1399.39	75.8346
1400.97	73.9198
1402.55	71.7931
1404.13	69.5343
1405.7	68.1192
1407.28	68.107
1408.86	66.7429
1410.44	66.0089
1412.01	65.9536
1413.59	65.558
1415.17	64.8277
1416.74	64.9
1418.32	63.9219
1419.89	64.2628
1421.47	64.4019
1423.04	64.8153
1424.62	64.7139
1426.19	64.131
1427.77	64.2206
1429.34	64.4982
1430.91	64.8174
1432.49	65.449
1434.06	65.2277
1435.63	64.1483
1437.2	64.2602
1438.78	64.0411
1440.35	63.5578
1441.92	63.1968
1443.49	62.6867
1445.06	63.3135
1446.63	62.5246
1448.2	62.4196
1449.77	61.5595
1451.34	60.8917
1452.91	59.9421
1454.48	59.8856
1456.05	59.4963
1457.62	60.2227
1459.18	60.0073
1460.75	59.5526
1462.32	58.2658
1463.89	57.6664
1465.45	57.5201
1467.02	57.2149
1468.59	55.2707
1470.15	55.0133
1471.72	52.8198
1473.28	51.1321
1474.85	50.2636
1476.41	49.7026
1477.98	48.1415
1479.54	47.2207
1481.1	45.8232
1482.67	45.5929
1484.23	45.05
1485.79	43.6278
1487.36	41.9121
1488.92	41.5672
1490.48	40.913
1492.04	39.7588
1493.61	39.5683
1495.17	39.1085
1496.73	38.0898
1498.29	37.9777
1499.85	37.4822
1501.41	36.8408
1502.97	36.2299
1504.53	36.8477
1506.09	36.802
1507.65	37.1294
1509.2	37.1005
1510.76	37.2585
1512.32	36.8616
1513.88	37.1257
1515.43	37.7336
1516.99	38.0395
1518.55	38.7436
1520.1	38.8539
1521.66	39.3241
1523.22	40.3612
1524.77	40.5765
1526.33	41.1195
1527.88	42.0144
1529.44	43.4393
1530.99	44.4119
1532.54	44.9996
1534.1	45.0559
1535.65	46.4646
1537.21	47.229
1538.76	48.0521
1540.31	49.3497
1541.86	51.7228
1543.42	53.6756
1544.97	54.4986
1546.52	54.0669
1548.07	55.6932
1549.62	57.0642
1551.17	59.5595
1552.72	61.5013
1554.27	63.4005
1555.82	64.2069
1557.37	66.0027
1558.92	67.2268
1560.47	69.7219
1562.02	71.0997
1563.56	72.5003
1565.11	75.1488
1566.66	76.9938
1568.21	79.5094
1569.75	82.436
1571.3	84.6174
1572.85	86.1693
1574.39	87.1952
1575.94	88.7881
1577.49	90.1417
1579.03	92.0271
1580.57	93.6185
1582.12	95.6022
1583.66	96.1245
1585.21	97.054
1586.75	98.5113
1588.3	100.861
1589.84	101.918
1591.38	103.317
1592.92	104.946
1594.47	105.397
1596.01	106.236
1597.55	106.712
1599.09	107.908
1600.63	108.647
1602.17	108.906
1603.71	109.174
1605.25	108.753
1606.79	107.429
1608.33	105.969
1609.87	104.746
1611.41	102.839
1612.95	101.947
1614.49	99.5439
1616.03	97.7239
1617.57	96.208
1619.1	93.5218
1620.64	90.5635
1622.18	88.2853
1623.72	86.3447
1625.25	84.8138
1626.79	82.6864
1628.32	79.1516
1629.86	76.1473
1631.39	73.9282
1632.93	71.0624
1634.46	68.3172
1636	66.3581
1637.53	64.3574
1639.07	62.0146
1640.6	60.5734
1642.13	58.4093
1643.67	56.7622
1645.2	55.0052
1646.73	53.4845
1648.26	50.7215
1649.8	47.4998
1651.33	45.6634
1652.86	44.2663
1654.39	41.9348
1655.92	39.4705
1657.45	37.9442
1658.98	36.6374
1660.51	35.9761
1662.04	34.8585
1663.57	34.6738
1665.1	34.3883
1666.63	34.4426
1668.16	35.381
1669.68	35.7969
1671.21	34.9212
1672.74	35.1593
1674.27	34.8856
1675.79	34.7169
1677.32	34.8636
1678.85	34.5773
1680.37	35.258
1681.9	34.5625
1683.42	35.0635
1684.95	35.2527
1686.47	35.7521
1688	34.3066
1689.52	34.7368
1691.05	34.3805
1692.57	34.7536
1694.09	35.1176
1695.62	34.6913
1697.14	35.025
1698.66	35.2399
1700.18	35.0258
1701.71	34.5721
1703.23	34.1573
1704.75	34.4434
1706.27	35.4108
1707.79	36.0662
1709.31	36.2441
1710.83	36.702
1712.35	37.3856
1713.87	37.1646
1715.39	36.6377
1716.91	36.441
1718.43	35.8918
1719.95	35.1761
1721.47	34.6763
1722.99	34.1835
1724.5	32.6788
1726.02	31.0455
1727.54	30.3804
1729.06	28.5941
1730.57	27.6342
1732.09	27.0657
1733.61	27.5575
1735.12	27.2434
1736.64	27.2291
1738.15	26.0757
1739.67	26.7711
1741.18	27.1811
1742.7	26.8553
1744.21	26.1812
1745.72	25.2922
1747.24	24.5289
1748.75	24.1114
1750.26	23.7627
1751.77	23.6192
1753.29	23.4827
1754.8	23.785
1756.31	23.5566
1757.82	22.2806
1759.33	21.9555
1760.84	20.8859
1762.36	19.8435
1763.87	18.2334
1765.38	18.3608
1766.89	18.0912
1768.4	17.7768
1769.91	18.3807
1771.41	17.7091
1772.92	17.8776
1774.43	18.0377
1775.94	18.2858
1777.45	18.5179
1778.95	19.1455
1780.46	19.1214
1781.97	18.4355
1783.48	18.3705
1784.98	18.146
1786.49	17.6607
1787.99	17.2551
1789.5	16.9474
1791.01	17.1866
1792.51	17.2707
1794.01	17.1286
1795.52	16.8683
1797.02	17.5132
1798.53	17.4602
1800.03	17.5458
1801.53	18.0902
1803.04	18.6357
1804.54	19.3357
1806.04	19.3653
1807.54	19.0791
1809.05	19.3117
1810.55	18.9463
1812.05	19.0076
1813.55	18.7876
1815.05	18.4145
1816.55	17.6011
1818.05	17.3836
1819.55	17.4864
1821.05	16.9797
1822.55	16.9054
1824.05	15.9514
1825.55	15.5986
1827.05	15.2949
1828.55	14.9654
1830.04	14.8259
1831.54	13.8668
1833.04	13.47
1834.54	13.081
1836.03	12.2715
1837.53	11.4143
1839.03	10.9414
1840.52	10.9128
1842.02	10.6953
1843.51	9.5606
1845.01	8.82887
1846.5	7.56771
1848	7.30401
1849.49	6.64782
1850.99	6.20948
1852.48	5.86671
1853.97	4.64639
1855.47	3.84591
1856.96	2.71459
1858.45	2.45116
1859.94	2.24931
1861.44	1.73283
1862.93	1.37168
1864.42	1.1811
1865.91	1.43308
1867.4	0.803451
1868.89	1.12499
1870.38	1.4889
1871.87	1.78358
1873.36	2.46158
1874.85	2.42334
1876.34	2.63323
1877.83	2.46177
1879.32	1.86287
1880.81	1.97469
1882.3	2.33818
1882.57	2.04255
1884.07	2.17089
1885.56	2.56782
1887.06	2.06742
1888.55	2.54756
1890.04	2.69873
1891.54	3.31016
1893.03	3.49703
1894.52	3.96104
1896.02	4.69714
1897.51	4.51837
1899	5.01147
1900.49	5.36335
1901.98	5.59858
1903.47	5.92776
1904.96	4.90137
1906.45	4.76121
1907.94	4.88711
1909.43	4.93401
1910.92	4.78825
1912.41	4.80881
1913.9	4.8117
1915.39	4.59982
1916.88	4.65946
1918.37	5.03812
1919.85	5.68162
1921.34	5.98602
1922.83	5.32843
1924.32	4.60156
1925.8	4.4555
1927.29	3.90023
1928.78	3.72122
1930.26	3.18993
1931.75	3.36412
1933.23	3.5325
1934.72	3.1597
1936.2	2.9406
1937.69	3.15845
1939.17	3.6319
1940.66	3.71945
1942.14	3.44673
1943.63	3.8059
1945.11	4.12233
1946.59	3.96327
1948.07	4.06768
1949.56	4.25634
1951.04	4.54578
1952.52	4.27673
1954	5.5535
1955.48	4.97978
1956.96	4.84319
1958.45	5.31086
1959.93	5.54064
1961.41	5.05586
1962.89	5.36606
1964.37	4.70604
1965.85	4.4658
1967.32	4.03422
1968.8	5.15544
1970.28	5.54777
1971.76	5.72657
1973.24	5.7416
1974.72	6.58626
1976.19	6.92046
1977.67	7.32257
1979.15	7.8941
1980.63	8.3827
1982.1	8.23292
1983.58	7.45253
1985.05	7.11937
1986.53	7.56695
1988	8.0453
1989.48	8.98638
1990.95	9.8183
1992.43	10.3595
1993.9	10.9458
1995.38	10.2271
1996.85	10.0826
1998.32	10.4788
1999.8	10.6417
2001.27	10.38
2002.74	11.0027
2004.22	11.6492
2005.69	11.8369
2007.16	12.4178
2008.63	12.7965
2010.1	12.607
2011.57	12.7911
2013.04	13.3518
2014.51	13.4701
2015.98	13.3871
2017.45	14.1258
2018.92	14.3429
2020.39	14.155
2021.86	14.9205
2023.33	14.4937
2024.8	14.4711
2026.27	14.386
2027.74	14.6284
2029.2	13.906
2030.67	13.7553
2032.14	12.8181
2033.61	12.2252
2035.07	11.4604
2036.54	11.6245
2038.01	11.8268
2039.47	12.2246
2040.94	12.7823
2042.4	13.2359
2043.87	13.1507
2045.33	13.7813
2046.8	13.2151
2048.26	13.8383
2049.72	13.6649
2051.19	13.0079
2052.65	12.1445
2054.12	10.9583
2055.58	10.9651
2057.04	10.9367
2058.5	11.0958
2059.97	11.0573
2061.43	11.0255
2062.89	10.9464
2064.35	10.9829
2065.81	10.6661
2067.27	10.1347
2068.73	9.04957
2070.19	9.05244
2071.65	9.11887
2073.11	8.48083
2074.57	9.33081
2076.03	9.42405
2077.49	8.97515
2078.95	8.94158
2080.41	8.88218
2081.87	8.69395
2083.32	8.14199
2084.78	8.73053
2086.24	9.41185
2087.7	9.13324
2089.15	9.44995
2090.61	9.58795
2092.07	10.0372
2093.52	10.2537
2094.98	10.2637
2096.43	10.1683
2097.89	10.968
2099.34	11.8606
2100.8	11.8141
2102.25	11.6815
2103.71	11.4303
2105.16	11.4432
2106.61	12.2644
2108.07	12.8867
2109.52	13.9806
2110.97	14.3644
2112.43	14.408
2113.88	15.0184
2115.33	14.9585
2116.78	16.1087
2118.23	15.9776
2119.68	15.1049
2121.13	15.5994
2122.59	14.9227
2124.04	13.958
2125.49	13.6789
2126.94	13.4544
2128.39	13.9012
2129.83	13.7284
2131.28	13.312
2132.73	13.456
2134.18	14.0329
2135.63	14.2742
2137.08	14.4474
2138.53	13.6944
2139.97	12.9637
2141.42	11.9966
2142.87	12.4485
2144.31	12.976
2145.76	13.24
2147.21	13.8313
2148.65	13.429
2150.1	13.4684
2151.54	13.8949
2152.99	13.4221
2154.43	13.1837
2155.88	12.8017
2157.32	13.5
2158.77	13.4017
2160.21	13.6109
2161.65	13.7872
2163.1	13.8524
2164.54	13.5387
2165.98	14.0547
2167.43	14.0162
2168.87	14.5805
2170.31	14.9781
2171.75	14.6527
2173.19	13.8326
2174.64	13.8708
2176.07	14.1928
2177.52	14.5447
2178.96	14.9567
2180.4	15.4396
2181.84	15.9603
2183.28	15.3771
2184.72	15.2001
2186.15	15.4122
2187.59	15.585
2189.03	16.2392
2190.47	16.2153
2191.91	16.8383
2193.35	17.2584
2194.78	17.3489
2196.22	17.8572
2197.66	18.3237
2199.09	18.2981
2200.53	18.6126
2201.97	17.8301
2203.4	17.9336
2204.84	18.2858
2206.27	19.4064
2207.71	18.6432
2209.14	18.6311
2210.58	17.8326
2212.01	17.8905
2213.45	18.275
2214.88	19.0646
2216.31	19.1919
2217.75	18.9655
2219.18	18.6503
2220.61	18.4467
2222.05	18.5322
2223.48	18.7795
2224.91	17.721
2226.34	17.3139
2227.78	17.4679
2229.21	17.5931
2230.64	17.1038
2232.07	16.4372
2233.5	15.5867
2234.93	15.554
2236.36	15.2894
2237.79	15.9006
2239.22	15.2217
2240.65	14.6605
2242.08	14.2899
2243.5	13.8583
2244.93	13.7523
2246.36	14.238
2247.79	13.7002
2249.22	14.3566
2250.64	14.535
2252.07	15.0754
2253.5	14.8064
2254.92	15.226
2256.35	14.8605
2257.78	15.2931
2259.2	15.3648
2260.63	15.3562
2262.05	15.1793
2263.48	15.258
2264.9	14.758
2266.33	13.8602
2267.75	13.3544
2269.18	12.7637
2270.6	12.3043
2272.02	12.6437
2273.45	13.2425
2274.87	14.3227
2276.29	13.8346
2277.71	13.8961
2279.14	13.2384
2280.56	13.3068
2281.98	12.8045
2283.4	13.2088
2284.82	13.2175
2286.24	13.016
2287.66	13.2124
2289.08	13.4644
2290.5	13.3372
2291.92	12.0949
2293.34	11.3542
2294.76	10.3257
2296.18	10.9145
2297.6	11.1143
2299.02	12.3127
2300.44	12.1324
2301.86	12.526
2303.27	12.2678
2304.69	13.0163
2306.11	13.3673
2307.53	14.1514
2308.94	14.3594
2310.36	13.8789
2311.78	13.8207
2313.19	14.3409
2314.61	14.4797
2316.02	14.6546
2317.44	15.0702
2318.85	15.1948
2320.27	15.7043
2321.68	15.0523
2323.1	15.2586
2324.51	14.7656
2325.92	14.3844
2327.34	13.4414
2328.75	12.9268
2330.16	12.5202
2331.58	12.2451
2332.99	12.038
2334.4	11.7177
2335.81	10.8692
2337.23	10.7132
2338.64	11.1955
2340.05	10.5135
2341.46	10.341
2342.87	10.7128
2344.28	10.3176
2345.69	9.36084
2347.1	8.11878
2348.51	7.64326
2349.92	7.0712
2351.33	6.25797
2352.74	6.19378
2354.15	5.76607
2355.55	5.52827
2356.96	5.0048
2358.37	4.21596
2359.78	4.08121
2361.19	3.51862
2362.59	3.61938
2364	4.79762
2365.41	5.62253
2366.81	7.01793
2368.22	6.57281
2369.62	7.61055
2371.03	6.99666
2372.44	7.54128
2373.84	7.12573
2375.24	7.2698
2376.65	7.12038
2378.05	7.1175
2379.46	6.74709
2380.86	6.4801
2382.26	6.30662
2383.67	6.18792
2385.07	6.281
2386.47	5.72874
2387.88	5.32105
2389.28	4.83498
2390.68	4.56237
2392.08	4.60895
2393.48	4.35226
2394.89	4.13045
2396.29	4.51219
2397.69	4.77277
2399.09	4.47869
2400.49	4.6106
2401.89	4.44532
2403.29	4.11183
2404.69	3.7026
2406.09	3.8789
2407.48	3.9112
2408.88	3.41338
2410.28	2.87409
2411.68	3.07179
2413.08	2.60716
2414.48	2.34244
2415.87	3.34158
2417.27	3.43557
2418.67	3.30362
2420.06	3.96549
2421.46	4.67899
2422.86	4.3432
2424.25	4.05468
2425.65	4.32232
2427.04	3.93948
2428.44	4.26192
2429.83	5.76761
2431.23	6.33205
2432.62	6.1936
2434.02	6.1508
2435.41	6.05871
2436.81	5.95906
2438.2	5.97779
2439.59	6.63147
2440.99	6.24236
2442.38	6.67107
2443.77	6.29117
2445.16	6.27659
2446.56	5.83582
2447.95	5.96461
2449.34	5.75056
2450.73	4.9711
2452.12	5.0106
2453.51	4.88757
2454.9	4.61294
2456.29	3.50112
2457.68	3.76379
2459.07	3.95823
2460.46	4.45848
2461.85	4.08276
2463.24	3.58326
2464.63	3.43077
2466.02	2.69687
2467.4	1.93353
2468.79	0.590226
2470.18	-0.297021
2471.57	-0.612475
2472.95	-0.871444
2474.34	-0.905771
2475.73	-0.585821
2477.12	-0.614818
2478.5	-0.510735
2479.89	0.0836266
2481.27	0.024186
2482.66	0.0321447
2484.04	1.33535
2485.43	1.52842
2486.81	0.380424
2488.2	0.0859701
2489.58	0.348242
2490.97	0.0432088
2492.35	-0.149059
2493.73	0.449968
2495.12	0.667621
2496.5	1.1788
2497.88	2.29139
2499.27	2.80531
2500.65	2.82407
2502.03	2.5011
2503.41	3.17168
2504.79	3.16818
2506.17	3.44523
2507.56	4.28768
2508.94	4.93874
2510.32	5.1521
2511.7	4.98772
2513.08	4.98864
2514.46	4.997
2515.84	4.84676
2517.22	5.4117
2518.59	4.62549
2519.97	5.15447
2521.35	4.97449
2522.73	4.50708
2524.11	4.41987
2525.49	4.31103
2526.86	4.42901
2528.24	4.23916
2529.62	4.45439
2530.99	3.7911
2532.37	3.0567
2533.75	2.25626
2535.12	1.54453
2536.5	1.57483
2537.88	1.68564
2539.25	2.17892
2540.63	2.58164
2542	2.65124
2543.38	3.02736
2544.75	2.78948
2546.12	2.14144
2547.5	1.89913
2548.87	2.23731
2550.24	1.26029
2551.62	1.518
2552.99	2.17816
2554.36	1.25492
2555.74	1.04007
2557.11	1.21573
2558.48	1.42985
2559.85	2.29191
2561.22	2.55481
2562.59	2.39793
2563.96	2.56399
2565.34	3.10575
2566.71	3.32306
2568.08	2.9179
2569.45	2.80886
2570.82	2.54636
2572.18	2.51437
2573.55	2.46291
2574.92	3.00676
2576.29	3.28471
2577.66	2.71066
2579.03	2.48756
2580.4	2.07929
2581.77	2.18172
2583.13	2.08865
2584.5	2.45888
2585.87	3.00068
2587.23	2.85359
2588.6	2.97296
2589.97	2.05006
2591.33	2.48032
2592.7	2.85022
2594.06	2.85774
2595.43	2.89588
2596.79	3.26685
2598.16	3.30862
2599.52	2.67873
2600.89	2.09694
2602.25	1.89582
2603.62	1.94685
2604.98	2.40893
2606.34	3.02406
2607.71	2.30808
2609.07	2.48971
2610.43	2.21997
2611.79	2.42368
2613.16	2.38487
2614.52	2.36805
2615.88	3.3955
2617.24	4.13698
2618.6	3.70665
2619.96	4.57767
2621.32	4.37273
2622.68	4.50313
2624.04	5.50098
2625.4	6.12735
2626.76	6.09433
2628.12	6.64095
2629.48	6.15455
2630.84	5.85083
2632.2	6.57092
2633.56	7.10568
2634.92	6.99146
2636.28	6.56948
2637.63	6.81943
2638.99	7.24018
2640.35	6.85674
2641.71	7.01994
2643.06	6.57221
2644.42	5.77664
2645.77	5.91834
2647.13	6.67492
2648.49	6.69209
2649.84	7.20632
2651.2	7.31833
2652.55	7.29753
2653.91	7.00615
2655.26	6.75268
2656.62	6.54529
2657.97	6.56915
2659.33	7.55052
2660.68	7.55895
2662.03	7.2509
2663.39	7.06412
2664.74	6.89608
2666.09	6.98044
2667.44	6.39211
2668.8	5.64642
2670.15	5.70631
2671.5	6.38697
2672.85	6.74781
2674.2	7.00429
2675.55	6.06871
2676.91	6.16708
2678.26	5.68815
2679.61	5.9468
2680.96	6.41766
2682.31	5.8427
2683.66	6.71396
2685	6.82792
2686.35	6.54643
2687.7	7.01775
2689.05	7.4835
2690.4	8.36796
2691.75	7.87263
2693.1	7.46252
2694.44	7.54294
2695.79	7.67631
2697.14	7.18577
2698.49	7.27132
2699.83	7.55172
2701.18	7.76756
2702.52	7.91548
2703.87	7.83133
2705.22	8.31254
2706.56	7.85037
2707.91	6.94545
2709.25	7.31528
2710.6	6.77813
2711.94	7.14717
2713.29	7.40482
2714.63	7.43796
2715.97	6.82972
2717.32	7.06832
2718.66	6.84538
2720.01	6.75496
2721.35	6.65627
2722.69	6.88543
2724.03	6.60795
2725.38	7.30646
2726.72	7.0017
2728.06	6.49667
2729.4	6.40358
2730.74	6.14879
2732.08	5.93508
2733.42	5.77823
2734.76	5.99351
2736.1	5.87453
2737.44	6.57717
2738.78	6.39265
2740.12	5.54028
2741.46	4.57006
2742.8	4.27556
2744.14	4.70866
2745.48	4.49556
2746.82	4.98322
2748.16	4.64944
2749.49	4.64497
2750.83	5.24698
2752.17	4.76284
2753.51	4.713
2754.84	4.50347
2756.18	4.77427
2757.52	4.66137
2758.85	4.56753
2760.19	4.70813
2761.53	4.97854
2762.86	4.37983
2764.2	4.72103
2765.53	5.21857
2766.87	4.88632
2768.2	5.31957
2769.54	4.76642
2770.87	4.32648
2772.2	4.45755
2773.54	4.1072
2774.87	4.02464
2776.2	3.91483
2777.54	4.13985
2778.87	3.90348
2780.2	2.89422
2781.53	2.66838
2782.87	1.68404
2784.2	1.31505
2785.53	1.29531
2786.86	0.573446
2788.19	0.451766
2789.52	1.18754
2790.85	0.971138
2792.18	1.21932
2793.51	0.574654
2794.84	1.31676
2796.17	1.01476
2797.5	1.12144
2798.83	1.38772
2800.16	1.68362
2801.49	1.70393
2802.82	1.25876
2804.15	1.69522
2805.47	1.54222
2806.8	1.87833
2808.13	2.76391
2809.46	3.38097
2810.78	3.78917
2812.11	3.95195
2813.44	4.46765
2814.76	4.91343
2816.09	5.91414
2817.42	6.24664
2818.74	6.85884
2820.07	7.85856
2821.39	8.3422
2822.72	10.0906
2824.04	10.5594
2825.37	11.2707
2826.69	11.9321
2828.02	13.2967
2829.34	14.0122
2830.66	15.4464
2831.99	16.2758
2833.31	17.7919
2834.63	19.4548
2835.96	20.8959
2837.28	22.2077
2838.6	23.012
2839.92	24.0829
2841.24	24.8929
2842.57	25.4931
2843.89	26.5041
2845.21	26.8287
2846.53	27.6764
2847.85	29.3
2849.17	30.053
2850.49	31.7111
2851.81	33.6336
2853.13	35.3786
2854.45	37.457
2855.77	39.9142
2857.09	41.4833
2858.41	43.4776
2859.72	46.0976
2861.04	48.7933
2862.36	50.8273
2863.68	53.0245
2865	55.1532
2866.31	56.9659
2867.63	59.6387
2868.95	62.1666
2870.26	64.212
2871.58	66.1923
2872.9	68.7365
2874.21	70.4984
2875.53	71.4574
2876.84	73.3006
2878.16	74.8568
2879.47	76.1429
2880.79	77.9612
2882.1	78.8733
2883.42	80.4571
2884.73	81.4014
2886.05	81.976
2887.36	83.4391
2888.67	84.8753
2889.99	84.579
2891.3	85.5476
2892.61	85.9334
2893.92	85.7771
2895.24	85.9423
2896.55	85.9868
2897.86	85.8035
2899.17	85.3978
2900.48	84.3929
2901.79	83.2174
2903.11	81.9251
2904.42	81.534
2905.73	81.1535
2907.04	79.7175
2908.35	78.5781
2909.66	78.2703
2910.97	77.6687
2912.27	76.8356
2913.58	75.8431
2914.89	74.9109
2916.2	74.8525
2917.51	74.3949
2918.82	74.6346
2920.13	74.4419
2921.43	74.5018
2922.74	74.2657
2924.05	74.1234
2925.35	74.3694
2926.66	74.0282
2927.97	73.0114
2929.27	72.3437
2930.58	71.713
2931.89	70.7789
2933.19	70.2949
2934.5	69.3486
2935.8	67.9305
2937.11	66.7926
2938.41	65.379
2939.72	63.8916
2941.02	62.8182
2942.32	61.6824
2943.63	60.4363
2944.93	58.9353
2946.24	57.9886
2947.54	56.4256
2948.84	55.564
2950.14	53.565
2951.45	52.1145
2952.75	50.7586
2954.05	49.5081
2955.35	47.57
2956.65	46.4218
2957.95	44.2285
2959.26	42.5252
2960.56	41.1244
2961.86	39.205
2963.16	37.1753
2964.46	35.572
2965.76	34.5907
2967.06	32.978
2968.36	31.9188
2969.66	30.7137
2970.96	28.8443
2972.25	27.217
2973.55	26.7751
2974.85	25.3422
2976.15	24.0583
2977.45	22.7234
2978.74	21.7046
2980.04	20.7819
2981.34	19.8291
2982.64	18.9617
2983.93	18.3697
2985.23	17.2646
2986.52	16.2198
2987.82	15.5385
2989.12	14.4678
2990.41	13.7273
2991.71	12.4594
2993	10.8894
2994.3	9.75267
2995.59	8.58121
2996.89	7.58221
2998.18	7.05369
2999.48	6.21052
3000.77	4.72953
3002.06	3.53345
3003.36	2.40363
3004.65	2.06672
3005.94	1.52461
3007.23	0.976776
3008.53	1.02461
3009.82	0.925456
3011.11	0.629522
3012.4	0.193656
3013.69	0.087629
3014.99	-0.0103924
3016.28	0.140061
3017.57	-0.0424986
3018.86	0.0774327
3020.15	-0.40813
3021.44	-0.551116
3022.73	-0.988802
3024.02	-0.518091
3025.31	-0.313449
3026.6	-0.441865
3027.89	-0.327679
3029.18	0.190919
3030.46	0.473231
3031.75	0.0365758
3033.04	0.367043
3034.33	0.128103
3035.62	0.108942
3036.9	0.887026
3038.19	1.18495
3039.48	0.727521
3040.76	0.841879
3042.05	0.560322
3043.34	1.1529
3044.62	0.771381
3045.91	0.661495
3047.19	0.960582
3048.48	1.1744
3049.77	1.44501
3051.05	1.79097
3052.34	1.75196
3053.62	1.75708
3054.9	1.83273
3056.19	1.83442
3057.47	2.37978
3058.76	2.44162
3060.04	2.82262
3061.32	2.96994
3062.61	2.76483
3063.89	2.38458
3065.17	2.49857
3066.45	1.90983
3067.74	2.7794
3069.02	3.70048
3070.3	3.94486
3071.58	4.09306
3072.86	3.78932
3074.14	3.00343
3075.42	2.42562
3076.7	2.02003
3077.99	2.06382
3079.26	1.68204
3080.54	0.840901
3081.82	0.630282
3083.1	0.723529
3084.38	1.41088
3085.66	1.32746
3086.94	1.63861
3088.22	2.26172
3089.5	2.63485
3090.78	2.49888
3092.05	3.22649
3093.33	3.50722
3094.61	3.57591
3095.89	3.72863
3097.16	3.88053
3098.44	3.83821
3099.72	4.04976
3100.99	4.21212
3102.27	3.78483
3103.54	3.87625
3104.82	4.09163
3106.1	4.6403
3107.37	5.5811
3108.65	5.96812
3109.92	7.32945
3111.2	8.06344
3112.47	8.21014
3113.74	9.26236
3115.02	10.2727
3116.29	10.9974
3117.56	11.8395
3118.84	12.3939
3120.11	13.3472
3121.38	13.9014
3122.66	14.1878
3123.93	15.0893
3125.2	15.5688
3126.47	15.92
3127.74	16.9276
3129.01	17.4765
3130.29	17.4333
3131.56	18.6172
3132.83	18.361
3134.1	17.8982
3135.37	17.5898
3136.64	17.2562
3137.91	17.48
3139.18	18.0284
3140.45	18.545
3141.72	19.0261
3142.99	19.2615
3144.26	19.6307
3145.52	19.4947
3146.79	18.9328
3148.06	17.2251
3149.33	16.1565
