#Acq. time (s)=	45
#Accumulations=	2
#Range (cm-¹)=	200...3150
#Windows=	2
#Auto scanning=	Off
#Autofocus=	Off
#Macrospot=	Off
#AutoExposure=	Off
#Spike filter=	Multiple accum.
#Delay time (s)=	0
#Binning=	1
#Readout mode=	Signal
#DeNoise=	Off
#ICS correction=	On
#Dark correction=	Off
#Inst. Process=	Off
#Detector Gain=	Best Dynamic Range
#Detector ADC=	20 kHz       
#Detector temperature (°C)=	-69.85
#Instrument=	LabRAM HR Evol
#Detector=	Synapse
#Objective=	x100
#Grating=	600 gr/mm
#ND Filter=	100%
#Laser (nm)=	532 
#Hole=	100.021
#Range=	Auto
#Laser Pol.=	No
#Raman. Pol.=	No
#Laser Pol. (°)=	-0.0007625
#Raman Pol. (°)=	89.9995
#Collection=	Microscope
#StageXY=	Marzhauser
#StageZ=	Marzhauser
#X (µm)=	-1421.6
#Y (µm)=	-634.7
#Z (µm)=	-228
#Full time(mm:ss)=	3:18
#Project=	
#Sample=	
#Site=	
#Title=	Thy_00_07_49_2x_45s_532 nm_x100_100%_600 gr_mm
#Remark=	
#Date=	29.06.2022 09:57
#Acquired=	29.06.2022 09:57:16
#Base:Fit=	10.08.2022 10:07:56
#Base:Sub=	10.08.2022 10:08:40
#Filter:Polynom=	16.08.2022 10:26:06
#AxisType[0]=Intens
#AxisUnit[0]=Cnt
#AxisType[1]=Spectr
#AxisUnit[1]=1/cm
200.523	65.0443
202.339	59.8716
204.154	55.2357
205.967	51.3682
207.781	47.7765
209.596	44.4971
211.409	41.738
213.222	39.0951
215.034	36.6613
216.848	34.6474
218.659	33.3681
220.47	31.2471
222.281	28.8894
224.091	29.7904
225.903	29.1523
227.713	27.5419
229.522	24.9899
231.331	23.246
233.14	21.0365
234.948	19.3856
236.756	17.7476
238.566	16.3077
240.373	16.2415
242.18	14.9123
243.986	14.3392
245.792	14.3792
247.598	13.4604
249.403	12.4089
251.208	12.5142
253.013	12.0052
254.818	10.9544
256.624	11.3953
258.427	10.8185
260.231	11.0151
262.034	11.0259
263.836	10.2951
265.638	10.1302
267.44	11.2711
269.242	10.7079
271.043	10.2013
272.844	9.06768
274.645	8.66528
276.445	7.48024
278.245	6.88368
280.044	6.94656
281.843	6.87196
283.642	7.43772
285.44	7.22916
287.238	7.09228
289.036	8.34699
290.833	8.5008
292.63	8.44749
294.425	8.71047
296.221	8.14811
298.017	8.27425
299.813	9.44033
301.608	9.0862
303.403	9.35186
305.198	9.49817
306.992	10.6068
308.786	11.217
310.579	11.9258
312.371	12.8573
314.163	14.1739
315.956	13.3375
317.748	12.9038
319.54	12.755
321.331	13.3818
323.122	13.8474
324.911	15.2892
326.701	16.3517
328.491	16.6368
330.281	17.6505
332.071	17.1332
333.857	17.665
335.646	18.1864
337.434	17.8994
339.222	17.7192
341.008	18.7583
342.795	18.3096
344.582	18.1703
346.369	19.0397
348.153	18.4106
349.939	18.4587
351.724	17.8786
353.51	16.6526
355.292	15.8752
357.077	15.6058
358.861	13.0963
360.643	12.513
362.426	12.6673
364.21	12.0137
365.99	10.6798
367.773	10.5954
369.555	10.263
371.335	9.70923
373.116	9.13699
374.897	7.88704
376.676	7.97592
378.456	8.00969
380.236	7.06181
382.014	5.66169
383.793	4.59745
385.57	3.14693
387.349	3.01297
389.127	3.46334
390.903	2.88342
392.681	3.42216
394.456	4.71833
396.233	5.2207
398.007	5.41143
399.784	5.40808
401.56	5.0952
403.333	4.44505
405.108	4.80046
406.881	4.61727
408.656	4.99969
410.428	5.18727
412.202	5.36606
413.973	5.11116
415.746	4.88733
417.517	4.60423
419.29	4.63645
421.06	3.92264
422.831	4.4559
424.601	6.21055
426.37	6.17085
428.141	4.64939
429.909	3.90011
431.679	2.75592
433.447	2.56473
435.216	3.07513
436.983	2.7472
438.75	2.34883
440.519	2.65226
442.285	2.69453
444.052	4.21119
445.818	4.78557
447.583	5.78183
449.349	6.95697
451.114	7.63852
452.878	8.46571
454.643	9.80491
456.407	11.7858
458.169	13.362
459.934	14.8476
461.696	15.8598
463.458	18.2938
465.222	20.8991
466.983	21.7575
468.744	22.2643
470.507	22.6845
472.267	24.1676
474.027	25.7603
475.787	27.9295
477.548	29.4782
479.307	30.348
481.065	32.0074
482.823	33.569
484.583	33.4673
486.341	34.4627
488.098	33.9093
489.855	34.749
491.612	35.6105
493.37	36.2833
495.126	36.5395
496.881	36.2368
498.636	35.6335
500.391	34.8694
502.148	34.4188
503.902	33.9375
505.656	32.9239
507.409	31.7885
509.162	30.3857
510.915	29.7928
512.668	28.0678
514.42	24.3189
516.174	22.0376
517.925	21.1658
519.676	20.9445
521.427	20.6264
523.178	19.725
524.928	18.0603
526.678	17.4334
528.427	17.0749
530.176	16.3939
531.925	16.5266
533.673	15.8127
535.422	15.4802
537.169	15.4718
538.917	15.3942
540.664	15.0275
542.411	15.118
544.157	15.1646
545.903	14.1881
547.649	14.5335
549.395	15.2842
551.14	16.23
552.884	15.3557
554.629	14.5655
556.373	15.0721
558.117	14.7111
559.86	15.8163
561.603	16.2095
563.346	16.3637
565.089	16.5669
566.831	16.1973
568.573	16.1484
570.314	16.5815
572.053	16.259
573.794	15.7892
575.534	14.7283
577.274	14.9202
579.014	14.7219
580.754	13.6326
582.493	13.6141
584.23	12.3
585.968	12.2088
587.706	11.378
589.444	10.4271
591.181	8.62314
592.919	7.89525
594.653	6.80675
596.39	5.47244
598.126	5.06122
599.862	3.76703
601.595	3.50413
603.33	4.51289
605.065	4.7294
606.8	3.92365
608.532	3.61675
610.266	3.97245
611.999	4.40281
613.732	5.16522
615.463	5.06039
617.196	4.7836
618.928	4.85295
620.66	4.63991
622.389	4.97243
624.12	6.4302
625.851	6.21513
627.58	5.69881
629.31	6.69768
631.04	6.47068
632.767	7.10042
634.497	8.31042
636.223	8.45837
637.952	8.26376
639.68	8.72177
641.406	9.30132
643.134	10.001
644.861	9.56945
646.586	10.1271
648.312	9.5943
650.037	9.67644
651.762	9.75615
653.486	9.1302
655.211	9.44779
656.936	10.1247
658.659	10.312
660.383	9.85528
662.105	10.3391
663.829	11.2945
665.55	12.3211
667.273	13.2535
668.994	13.797
670.716	13.7157
672.436	14.3761
674.158	14.405
675.877	15.7656
677.598	16.8168
679.317	19.0632
681.035	19.7471
682.755	20.8353
684.473	21.9597
686.192	23.5916
687.909	25.464
689.628	26.2804
691.344	26.8466
693.06	27.703
694.778	28.7125
696.493	29.068
698.211	28.8652
699.925	28.5826
701.64	28.2786
703.356	28.456
705.07	29.1437
706.783	28.8966
708.498	29.3892
710.211	29.3128
711.924	28.4484
713.638	29.0783
715.35	29.7836
717.061	29.9706
718.774	30.1671
720.485	29.9705
722.196	29.6705
723.906	29.9051
725.618	30.9203
727.328	30.7286
729.037	30.638
730.746	30.4239
732.456	30.2179
734.165	30.8151
735.873	31.9959
737.58	32.088
739.289	32.4939
740.997	33.6543
742.703	35.341
744.41	35.7812
746.116	36.4077
747.823	38.8267
749.529	40.3874
751.234	41.427
752.938	42.708
754.643	44.6777
756.347	46.8343
758.051	49.1299
759.756	51.6809
761.459	53.9332
763.162	54.9751
764.865	56.4615
766.567	57.4807
768.269	59.1299
769.97	60
771.671	60.9779
773.372	62.7636
775.073	64.2487
776.773	65.4489
778.473	65.8153
780.174	66.6126
781.874	67.2754
783.573	67.3989
785.271	66.7247
786.97	68.108
788.668	69.5086
790.365	71.3722
792.063	72.617
793.76	74.4364
795.456	75.5741
797.153	76.9827
798.847	77.5593
800.543	77.9619
802.238	78.0706
803.933	78.2399
805.628	78.114
807.322	77.8106
809.017	77.4253
810.71	77.9259
812.404	77.473
814.097	77.5048
815.79	78.8013
817.483	79.2437
819.173	79.9774
820.865	81.3231
822.556	81.5182
824.248	82.9843
825.939	84.3144
827.629	84.7429
829.318	85.5642
831.008	86.4571
832.697	86.8757
834.387	86.6543
836.076	86.0485
837.765	87.2212
839.451	87.1066
841.139	86.6286
842.827	85.6801
844.514	85.2504
846.2	83.4162
847.886	81.8771
849.573	81.2225
851.259	80.1582
852.943	79.0451
854.629	77.0251
856.314	75.5445
857.997	73.9867
859.682	71.4661
861.366	69.4508
863.05	67.9178
864.732	66.42
866.415	64.1868
868.098	61.6192
869.779	60.9122
871.461	60.2077
873.141	58.5205
874.823	57.4372
876.505	55.6844
878.184	53.0096
879.865	51.4968
881.545	49.9942
883.223	48.7257
884.903	47.1164
886.581	45.6165
888.26	44.3451
889.937	42.6451
891.616	41.8047
893.294	41.4957
894.97	42.1922
896.648	42.7894
898.323	43.852
900	44.424
901.675	44.1693
903.351	46.3989
905.026	47.8589
906.701	48.2108
908.375	50.189
910.05	51.2615
911.723	52.7846
913.398	53.5798
915.07	53.7157
916.742	53.6765
918.415	53.6743
920.087	54.148
921.76	54.879
923.43	54.8133
925.103	55.5758
926.773	54.3213
928.443	53.6537
930.114	52.1404
931.783	51.2478
933.454	50.2137
935.123	48.6779
936.791	46.6441
938.461	44.789
940.128	44.2677
941.796	43.3263
943.464	42.1468
945.131	41.7957
946.797	40.6525
948.465	38.8869
950.131	37.4963
951.797	36.2433
953.462	34.5309
955.128	31.7755
956.793	30.8307
958.457	28.1455
960.121	25.218
961.786	23.6111
963.45	24.832
965.113	24.8885
966.775	25.6594
968.44	26.4671
970.102	27.515
971.763	27.8986
973.425	29.3444
975.086	30.4685
976.748	32.5851
978.409	35.2963
980.069	37.7264
981.729	38.8164
983.388	39.344
985.048	40.4771
986.708	41.5821
988.367	39.8339
990.025	40.2788
991.683	42.5559
993.341	42.6096
994.998	43.2844
996.655	43.4696
998.312	44.5466
999.969	45.1865
1001.62	46.589
1003.28	47.2748
1004.94	47.8675
1006.59	48.2625
1008.25	48.2783
1009.9	48.0835
1011.56	48.2128
1013.21	48.9512
1014.86	48.9924
1016.52	48.9656
1018.17	49.5175
1019.82	49.7484
1021.48	50.1375
1023.13	49.8438
1024.78	49.4281
1026.43	49.5213
1028.08	50.3227
1029.73	48.7508
1031.38	46.5923
1033.03	44.8966
1034.68	43.3147
1036.33	40.6695
1037.98	40.8272
1039.63	39.381
1041.28	38.9559
1042.93	39.8198
1044.57	41.1175
1046.22	43.9317
1047.87	45.2183
1049.52	45.316
1051.16	46.2708
1052.81	46.1242
1054.45	46.1595
1056.1	46.5998
1057.75	45.5159
1059.39	45.2321
1061.04	44.9239
1062.68	42.2969
1064.32	40.2287
1065.97	38.7694
1067.61	36.6002
1069.25	36.32
1070.9	35.9546
1072.54	37.3931
1074.18	37.6964
1075.82	36.7837
1077.47	37.9695
1079.11	38.4189
1080.75	39.0953
1082.39	37.9609
1084.03	37.0772
1085.67	37.2751
1087.31	38.6851
1088.95	39.5327
1090.59	39.8639
1092.22	40.9974
1093.86	41.9313
1095.5	43.4095
1097.14	44.2575
1098.78	45.1196
1100.41	46.2983
1102.05	47.2872
1103.69	46.7269
1105.32	47.3503
1106.96	48.3396
1108.59	48.5149
1110.23	48.1683
1111.86	46.198
1113.5	44.9837
1115.13	44.3796
1116.77	43.6679
1118.4	42.8364
1120.03	42.2033
1121.67	40.4081
1123.3	39.9782
1124.93	39.0019
1126.56	38.5536
1128.19	38.8571
1129.83	37.5421
1131.46	35.0002
1133.09	34.0147
1134.72	31.06
1136.35	29.3699
1137.98	28.3075
1139.61	26.0093
1141.24	25.3455
1142.86	24.4955
1144.49	21.9213
1146.12	20.9171
1147.75	18.2174
1149.38	16.1967
1151	15.9917
1152.63	13.5106
1154.26	11.1107
1155.88	9.22567
1157.51	8.50877
1159.14	6.60515
1160.76	4.01858
1162.39	2.57428
1164.01	0.79829
1165.63	1.12344
1167.26	1.99641
1168.88	1.67519
1170.51	2.55626
1172.13	2.41439
1173.75	4.40307
1175.38	4.62514
1177	5.72536
1178.62	6.25285
1180.24	6.27153
1181.86	6.83003
1183.48	7.273
1185.1	7.53318
1186.72	9.26854
1188.34	10.4949
1189.96	11.7788
1191.58	13.0433
1193.2	14.3628
1194.82	15.3961
1196.44	17.2486
1198.06	20.0518
1199.68	22.1541
1201.29	24.0496
1202.91	26.692
1204.53	29.09
1206.14	31.6881
1207.76	34.2618
1209.38	36.9987
1210.99	39.801
1212.61	41.0452
1214.22	44.4373
1215.84	48.2272
1217.45	51.3222
1219.07	54.2697
1220.68	56.9856
1222.29	60.5951
1223.91	62.572
1225.52	64.1203
1227.13	66.3653
1228.74	67.9095
1230.36	69.8486
1231.97	71.5611
1233.58	72.7399
1235.19	73.9894
1236.8	75.9662
1238.41	76.1889
1240.02	76.5532
1241.63	78.6541
1243.24	79.9137
1244.85	80.5885
1246.46	81.1848
1248.07	81.2872
1249.67	81.0385
1251.28	81.4968
1252.89	81.6302
1254.5	83.2296
1256.1	82.5336
1257.71	82.7168
1259.32	80.9243
1260.92	81.6866
1262.53	80.9266
1264.13	79.5963
1265.74	79.2032
1267.34	79.7659
1268.95	80.0294
1270.55	79.9565
1272.15	79.3896
1273.76	79.1854
1275.36	78.0354
1276.97	78.5238
1278.57	79.1328
1280.17	78.9686
1281.77	79.9199
1283.37	80.3626
1284.97	80.4875
1286.58	80.953
1288.18	83.0606
1289.78	84.6131
1291.38	86.3514
1292.98	88.1677
1294.58	91.2956
1296.18	92.8278
1297.78	94.8034
1299.37	97.8336
1300.97	100.883
1302.57	103.963
1304.17	106.144
1305.77	108.886
1307.36	111.708
1308.96	114.022
1310.55	116.221
1312.15	119.39
1313.75	122.381
1315.34	124.353
1316.94	127.052
1318.53	128.45
1320.13	130.375
1321.72	131.173
1323.32	131.833
1324.91	132.618
1326.5	133.154
1328.1	133.541
1329.69	134.545
1331.28	135.497
1332.87	135.724
1334.47	134.708
1336.06	133.426
1337.65	132.687
1339.24	131.067
1340.83	131.085
1342.42	127.992
1344.01	126.59
1345.6	125.17
1347.19	123.588
1348.78	121.097
1350.37	118.373
1351.96	115.48
1353.54	112.817
1355.13	109.995
1356.72	107.788
1358.31	106.194
1359.89	103.462
1361.48	100.588
1363.07	98.0391
1364.65	96.8339
1366.24	95.8451
1367.82	95.0992
1369.41	93.9624
1370.99	91.9051
1372.58	91.4313
1374.16	89.6061
1375.75	88.8178
1377.33	88.9187
1378.91	87.2395
1380.5	86.3924
1382.08	86.2648
1383.66	85.1456
1385.25	84.0012
1386.83	83.6689
1388.41	82.2589
1389.99	81.761
1391.57	81.1958
1393.15	80.6994
1394.73	79.9045
1396.31	78.6647
1397.89	76.7111
1399.47	75.0307
1401.05	74.3002
1402.63	74.0511
1404.21	72.9244
1405.78	72.7997
1407.36	72.8267
1408.94	72.9438
1410.52	73.6714
1412.1	75.0659
1413.67	77.8595
1415.25	80.79
1416.82	82.6153
1418.4	84.9542
1419.98	87.382
1421.55	89.6499
1423.13	93.7707
1424.7	97.0345
1426.28	100.832
1427.85	104.376
1429.42	107.923
1431	111.127
1432.57	116.418
1434.14	121.077
1435.71	125.104
1437.29	129.321
1438.86	132.561
1440.43	136.302
1442	139.35
1443.57	142.33
1445.14	144.162
1446.71	145.926
1448.28	146.249
1449.85	146.322
1451.42	146.273
1452.99	144.8
1454.56	144.458
1456.13	142.259
1457.7	139.838
1459.26	138.16
1460.83	135.845
1462.4	131.416
1463.97	127.158
1465.54	123.514
1467.1	117.818
1468.67	112.696
1470.23	107.319
1471.8	102.053
1473.36	96.1335
1474.93	89.4106
1476.49	83.1714
1478.06	78.0002
1479.62	73.144
1481.19	67.3743
1482.75	61.5322
1484.31	56.7866
1485.88	52.2662
1487.44	48.4152
1489	45.8674
1490.56	43.3539
1492.13	40.5075
1493.69	37.2121
1495.25	33.99
1496.81	32.1691
1498.37	29.9311
1499.93	27.9966
1501.49	27.5618
1503.05	26.1612
1504.61	25.3159
1506.17	25.4987
1507.73	25.0858
1509.28	24.434
1510.84	25.0278
1512.4	24.4202
1513.96	24.1912
1515.52	24.3046
1517.07	23.7879
1518.63	23.6883
1520.19	23.6412
1521.74	24.2235
1523.3	25.0446
1524.85	26.05
1526.41	25.7411
1527.96	27.2753
1529.52	27.8124
1531.07	29.7727
1532.63	30.9881
1534.18	31.5662
1535.73	33.3148
1537.29	35.4197
1538.84	36.0301
1540.39	36.9872
1541.94	38.6707
1543.5	40.3413
1545.05	42.334
1546.6	44.573
1548.15	47.5204
1549.7	49.6503
1551.25	51.8626
1552.8	54.8693
1554.35	57.7566
1555.9	60.2815
1557.45	62.3969
1559	64.5176
1560.55	66.8318
1562.1	68.9202
1563.65	71.8924
1565.19	73.7591
1566.74	76.4032
1568.29	78.6104
1569.83	79.5205
1571.38	81.0264
1572.93	83.0413
1574.47	85.3135
1576.02	86.8254
1577.56	89.1281
1579.11	91.1799
1580.66	92.2582
1582.2	93.4389
1583.74	94.9968
1585.29	95.3363
1586.83	96.311
1588.38	96.699
1589.92	96.9546
1591.46	96.387
1593.01	95.9698
1594.55	95.3791
1596.09	95.8404
1597.63	95.654
1599.17	95.5637
1600.71	95.8477
1602.25	95.246
1603.79	93.7619
1605.34	93.7698
1606.88	91.9312
1608.41	91.5209
1609.95	90.4679
1611.49	90.0624
1613.03	89.5415
1614.57	89.0519
1616.11	86.6329
1617.65	86.1857
1619.18	85.733
1620.72	86.3739
1622.26	86.8275
1623.79	86.1921
1625.33	86.7252
1626.87	87.1376
1628.4	87.8459
1629.94	87.8223
1631.48	87.9241
1633.01	88.1421
1634.55	88.3277
1636.08	89.2642
1637.61	88.9416
1639.15	90.0673
1640.68	91.7603
1642.21	92.506
1643.75	94.759
1645.28	96.3714
1646.81	97.3406
1648.34	100.394
1649.88	103.149
1651.41	104.595
1652.94	105.827
1654.47	107.019
1656	107.253
1657.53	109.008
1659.06	109.607
1660.59	109.831
1662.12	109.517
1663.65	108.232
1665.18	106.638
1666.71	105.852
1668.24	103.975
1669.76	103.403
1671.29	101.477
1672.82	99.4088
1674.35	96.6344
1675.87	94.3108
1677.4	91.4053
1678.93	88.0937
1680.45	84.7029
1681.98	81.709
1683.5	77.627
1685.03	74.4382
1686.55	70.9454
1688.08	67.2128
1689.6	63.9207
1691.13	60.5543
1692.65	56.2691
1694.17	53.2844
1695.7	50.5819
1697.22	47.3679
1698.74	43.7315
1700.27	40.2796
1701.79	37.2342
1703.31	34.2385
1704.83	30.502
1706.35	28.0372
1707.87	25.6564
1709.39	22.8243
1710.91	20.456
1712.43	19.2894
1713.95	17.1594
1715.47	16.3473
1716.99	15.1008
1718.51	14.5075
1720.03	13.8243
1721.55	12.8987
1723.07	12.3661
1724.58	12.2901
1726.1	11.445
1727.62	10.5582
1729.13	9.64942
1730.65	9.2491
1732.17	8.63572
1733.68	8.68387
1735.2	7.50204
1736.72	7.00908
1738.23	6.63743
1739.74	5.42772
1741.26	4.82131
1742.77	4.55219
1744.29	4.15648
1745.8	4.44825
1747.32	3.42542
1748.83	3.5565
1750.34	3.33372
1751.85	3.46579
1753.37	3.29126
1754.88	3.09972
1756.39	3.23561
1757.9	2.95695
1759.41	2.88918
1760.92	3.59355
1762.44	4.0965
1763.95	3.7527
1765.46	3.82707
1766.96	3.41999
1768.47	3.06074
1769.98	2.74554
1771.49	3.18158
1773	2.7254
1774.51	2.8451
1776.02	3.02636
1777.53	3.19625
1779.03	3.20713
1780.54	2.86248
1782.05	3.37973
1783.55	2.87663
1785.06	3.07808
1786.57	3.10979
1788.07	3.44015
1789.58	2.88015
1791.08	2.82325
1792.59	2.4344
1794.09	2.49586
1795.6	2.49161
1797.1	2.81504
1798.61	2.75629
1800.11	2.68865
1801.61	2.62524
1803.12	2.15781
1804.62	1.97149
1806.12	2.1912
1807.62	2.11413
1809.12	2.49702
1810.63	1.9066
1812.13	2.15447
1813.63	1.95809
1815.13	2.30034
1816.63	2.81582
1818.13	3.09389
1819.63	3.02911
1821.13	3.22935
1822.63	3.33343
1824.13	3.69804
1825.63	3.94501
1827.13	4.04392
1828.62	3.77
1830.12	3.69329
1831.62	4.21495
1833.12	4.11748
1834.61	4.24926
1836.11	4.48735
1837.61	4.19802
1839.1	4.09758
1840.6	4.44826
1842.09	5.17361
1843.59	5.40763
1845.09	5.52369
1846.58	6.0734
1848.08	6.21493
1849.57	6.95973
1851.06	7.49506
1852.56	7.80505
1854.05	7.85517
1855.54	8.02323
1857.04	8.1226
1858.53	7.90739
1860.02	7.68607
1861.51	7.39936
1863.01	7.27046
1864.5	6.50599
1865.99	6.51836
1867.48	6.70601
1868.97	6.98705
1870.46	6.82109
1871.95	6.66398
1873.44	6.05461
1874.93	5.45561
1876.42	5.67044
1877.91	5.94834
1879.4	5.86983
1880.89	5.31708
1882.37	4.58195
1882.46	4.37908
1883.95	3.84245
1885.45	3.8957
1886.94	4.24749
1888.43	4.65685
1889.93	3.77842
1891.42	3.43304
1892.91	3.57844
1894.41	3.63349
1895.9	3.74913
1897.39	3.44604
1898.88	3.17381
1900.37	2.50272
1901.86	2.58046
1903.36	2.76604
1904.85	2.79067
1906.34	2.79143
1907.83	2.80733
1909.32	3.37186
1910.81	3.81781
1912.29	3.69122
1913.78	4.32414
1915.27	4.71505
1916.76	4.80267
1918.25	5.19932
1919.74	5.81384
1921.23	6.27105
1922.71	6.775
1924.2	6.61404
1925.69	7.13208
1927.17	7.2833
1928.66	7.58455
1930.15	7.79992
1931.63	7.74961
1933.12	8.03201
1934.6	8.20636
1936.09	8.05619
1937.57	8.2514
1939.06	8.16808
1940.54	9.12745
1942.02	9.79506
1943.51	9.33684
1944.99	8.58956
1946.47	8.27495
1947.96	7.32891
1949.44	7.21898
1950.92	6.47183
1952.4	5.91533
1953.88	5.34
1955.37	4.92095
1956.85	4.44442
1958.33	3.57067
1959.81	3.22735
1961.29	2.6329
1962.77	1.50896
1964.25	0.856655
1965.73	1.04442
1967.21	0.709218
1968.69	0.74365
1970.16	0.197269
1971.64	-0.559832
1973.12	-0.972835
1974.6	-1.16977
1976.08	-0.584864
1977.55	-0.80132
1979.03	-0.580238
1980.51	-0.888148
1981.98	-0.924282
1983.46	-0.296125
1984.94	-0.652169
1986.41	-0.56741
1987.89	0.720947
1989.36	0.995132
1990.84	1.78638
1992.31	1.94154
1993.79	2.35985
1995.26	2.98219
1996.73	3.53385
1998.21	4.89159
1999.68	5.77492
2001.15	6.15244
2002.63	6.4701
2004.1	6.31628
2005.57	6.64749
2007.04	7.17358
2008.51	7.74299
2009.99	7.61528
2011.46	8.53436
2012.93	8.26282
2014.4	9.14686
2015.87	8.03529
2017.34	6.9046
2018.81	7.01319
2020.28	7.98446
2021.75	7.85448
2023.21	8.27172
2024.68	8.65589
2026.15	8.89848
2027.62	8.13441
2029.09	7.80414
2030.56	7.28975
2032.02	7.23907
2033.49	7.40301
2034.96	7.15495
2036.42	7.62773
2037.89	7.7663
2039.36	7.30182
2040.82	7.26092
2042.29	7.72057
2043.75	8.07806
2045.22	8.39675
2046.68	8.65632
2048.14	8.74155
2049.61	9.08939
2051.07	8.33278
2052.54	8.5967
2054	8.09748
2055.46	8.80037
2056.93	9.16635
2058.39	8.84563
2059.85	9.14601
2061.31	9.17912
2062.77	8.73134
2064.23	9.0181
2065.7	8.41777
2067.16	8.95048
2068.62	9.43715
2070.08	9.30542
2071.54	9.62503
2073	8.78977
2074.46	8.60469
2075.92	8.57891
2077.38	7.67218
2078.83	7.66509
2080.29	7.49286
2081.75	7.61729
2083.21	7.11877
2084.67	7.55909
2086.12	7.20974
2087.58	7.43098
2089.04	6.72717
2090.49	6.7496
2091.95	6.51367
2093.41	6.35704
2094.86	6.04076
2096.32	6.08031
2097.77	6.16499
2099.23	6.16613
2100.68	6.12187
2102.14	6.42834
2103.59	6.38687
2105.05	6.62258
2106.5	6.61958
2107.95	6.26295
2109.41	6.44508
2110.86	5.6404
2112.31	5.83442
2113.76	6.84741
2115.21	7.54671
2116.67	7.91553
2118.12	7.24052
2119.57	7.35106
2121.02	7.34639
2122.47	8.04421
2123.92	7.79602
2125.37	8.36075
2126.82	8.2789
2128.27	8.60856
2129.72	8.14783
2131.17	7.47012
2132.62	7.32252
2134.07	7.12585
2135.51	7.62477
2136.96	7.98742
2138.41	7.60371
2139.86	7.64344
2141.31	6.94359
2142.75	6.65556
2144.2	6.59981
2145.65	6.23525
2147.09	6.22067
2148.54	5.88845
2149.98	5.47088
2151.43	5.88506
2152.87	6.51598
2154.32	6.57008
2155.76	6.26126
2157.21	5.89106
2158.65	5.48141
2160.1	4.91825
2161.54	4.84079
2162.98	4.94546
2164.43	5.89469
2165.87	6.95413
2167.31	7.42325
2168.75	7.35207
2170.2	7.70297
2171.64	8.33397
2173.08	8.8467
2174.52	8.86593
2175.96	9.04077
2177.4	8.77128
2178.84	8.60691
2180.28	8.61061
2181.72	8.60781
2183.16	8.88287
2184.6	9.86992
2186.04	10.1394
2187.48	10.3719
2188.92	10.9987
2190.36	10.8838
2191.79	10.9412
2193.23	10.6643
2194.67	11.1957
2196.11	10.9461
2197.54	10.7304
2198.98	9.82238
2200.42	9.29534
2201.85	8.91447
2203.29	8.79963
2204.72	8.51663
2206.16	8.31454
2207.59	8.54687
2209.03	7.583
2210.46	6.7763
2211.9	6.67473
2213.33	7.21441
2214.77	8.05519
2216.2	7.65447
2217.63	7.75299
2219.07	7.68725
2220.5	6.96528
2221.93	7.43022
2223.36	7.29398
2224.8	6.55919
2226.23	5.42399
2227.66	5.49191
2229.09	5.6711
2230.52	6.29722
2231.95	7.09108
2233.39	7.67395
2234.81	7.72691
2236.25	8.46694
2237.67	8.93202
2239.1	9.71216
2240.53	10.859
2241.96	12.1246
2243.39	12.5554
2244.82	12.6851
2246.25	13.0452
2247.68	13.0766
2249.1	13.1282
2250.53	13.2959
2251.96	14.1135
2253.38	14.8649
2254.81	15.504
2256.24	15.7186
2257.66	15.9218
2259.09	16.2324
2260.51	16.742
2261.94	16.4081
2263.36	16.5602
2264.79	16.6048
2266.21	17.1154
2267.64	16.1504
2269.06	15.5547
2270.49	15.6221
2271.91	15.5813
2273.33	14.8972
2274.76	14.2171
2276.18	13.7005
2277.6	13.3015
2279.02	13.2181
2280.44	12.4085
2281.87	12.0737
2283.29	11.9653
2284.71	11.4274
2286.13	10.6503
2287.55	9.43754
2288.97	9.00544
2290.39	7.61461
2291.81	6.55267
2293.23	6.01389
2294.65	5.23188
2296.07	5.00108
2297.49	6.17057
2298.91	6.73622
2300.33	6.44385
2301.74	7.03337
2303.16	7.23395
2304.58	7.14094
2306	7.25057
2307.41	7.7179
2308.83	8.31925
2310.25	8.17075
2311.66	7.93936
2313.08	7.97785
2314.5	7.83466
2315.91	8.05534
2317.33	8.53001
2318.74	8.45323
2320.16	8.66382
2321.57	8.93614
2322.98	9.4727
2324.4	9.76405
2325.81	9.51135
2327.23	9.42579
2328.64	9.17019
2330.05	9.08951
2331.46	9.66209
2332.88	9.57121
2334.29	9.60276
2335.7	9.54696
2337.11	9.32274
2338.52	8.31974
2339.94	7.66222
2341.35	7.37375
2342.76	6.12244
2344.17	5.71278
2345.58	5.58184
2346.99	5.45269
2348.4	5.10518
2349.81	4.23187
2351.22	3.23882
2352.62	2.90319
2354.03	2.70096
2355.44	2.22104
2356.85	2.31199
2358.26	1.74143
2359.67	1.99915
2361.07	1.85216
2362.48	2.35878
2363.89	2.91963
2365.29	3.86305
2366.7	4.19642
2368.11	4.08034
2369.51	3.68417
2370.92	3.41362
2372.32	3.58643
2373.73	3.1586
2375.13	2.96933
2376.54	2.47717
2377.94	2.06335
2379.35	2.48169
2380.75	2.30823
2382.15	2.59465
2383.56	2.19536
2384.96	2.0279
2386.36	1.68719
2387.76	1.80761
2389.17	1.71752
2390.57	1.97931
2391.97	2.53894
2393.37	2.67388
2394.77	3.27725
2396.17	2.51485
2397.58	2.26858
2398.98	2.29961
2400.38	2.32629
2401.78	2.90574
2403.18	2.77975
2404.58	3.0243
2405.97	2.83235
2407.37	2.50784
2408.77	2.32348
2410.17	2.44357
2411.57	2.84108
2412.97	2.76861
2414.37	3.61751
2415.76	3.85947
2417.16	3.93732
2418.56	3.99534
2419.95	3.93265
2421.35	4.56895
2422.75	5.14965
2424.14	5.4559
2425.54	5.71466
2426.93	6.5554
2428.33	7.41259
2429.72	8.29018
2431.12	8.88423
2432.51	8.81771
2433.91	9.04585
2435.3	9.3858
2436.7	9.16962
2438.09	8.79827
2439.48	8.8485
2440.88	9.2037
2442.27	9.34288
2443.66	8.77961
2445.05	8.22464
2446.44	7.88485
2447.84	7.48582
2449.23	7.75048
2450.62	7.30315
2452.01	7.21978
2453.4	6.56949
2454.79	6.34391
2456.18	6.48889
2457.57	6.45725
2458.96	6.1431
2460.35	6.02038
2461.74	5.6699
2463.13	4.86249
2464.52	4.21088
2465.91	3.72152
2467.29	3.78362
2468.68	3.18177
2470.07	3.14431
2471.46	2.70313
2472.85	2.56695
2474.23	2.26765
2475.62	1.5424
2477.01	1.29034
2478.39	0.668371
2479.78	0.18339
2481.16	0.269361
2482.55	0.769782
2483.93	1.26395
2485.32	0.80419
2486.7	0.52057
2488.09	0.655654
2489.47	0.568592
2490.86	0.389481
2492.24	0.674698
2493.62	0.953724
2495.01	1.71164
2496.39	2.41641
2497.77	2.99515
2499.15	2.39996
2500.54	2.18397
2501.92	1.90005
2503.3	2.01026
2504.68	2.13798
2506.06	1.83819
2507.45	1.99521
2508.83	2.22748
2510.21	2.71858
2511.59	1.87401
2512.97	1.74764
2514.35	2.40544
2515.73	2.77849
2517.11	2.92927
2518.48	3.38217
2519.86	3.72834
2521.24	4.20924
2522.62	4.00559
2524	4.24197
2525.38	4.75994
2526.75	4.50808
2528.13	4.26228
2529.51	4.14324
2530.89	4.13707
2532.26	3.77854
2533.64	4.00837
2535.02	3.84735
2536.39	3.32677
2537.77	3.2601
2539.14	3.44676
2540.52	3.3013
2541.89	3.6024
2543.27	3.44919
2544.64	3.78038
2546.01	3.82874
2547.39	3.9582
2548.76	3.65812
2550.14	3.63711
2551.51	3.10124
2552.88	2.38788
2554.25	1.5962
2555.63	1.23065
2557	1.12592
2558.37	1.20279
2559.74	1.35316
2561.11	1.19121
2562.49	1.09025
2563.86	1.15735
2565.23	0.548098
2566.6	0.257619
2567.97	-0.537499
2569.34	-0.191088
2570.71	-0.272312
2572.08	-0.101334
2573.45	0.0140412
2574.82	-0.00877261
2576.18	0.28628
2577.55	0.364087
2578.92	1.28996
2580.29	1.16912
2581.66	1.28678
2583.02	2.07132
2584.39	2.21424
2585.76	2.70389
2587.13	2.83579
2588.49	3.23347
2589.86	3.35405
2591.22	3.8028
2592.59	4.07214
2593.96	3.95496
2595.32	4.09997
2596.69	4.21541
2598.05	4.56994
2599.42	5.13363
2600.78	5.55385
2602.14	6.06277
2603.51	5.93372
2604.87	6.6568
2606.23	7.33531
2607.6	7.44549
2608.96	7.8399
2610.32	8.19493
2611.69	8.05814
2613.05	8.38459
2614.41	8.06107
2615.77	7.69786
2617.13	7.10107
2618.49	7.16039
2619.86	7.60404
2621.22	7.60749
2622.58	7.86245
2623.94	7.90359
2625.3	8.71219
2626.66	8.68017
2628.02	8.5835
2629.37	8.52474
2630.73	9.29378
2632.09	9.52822
2633.45	10.0206
2634.81	10.4402
2636.17	10.4777
2637.53	11.13
2638.88	10.1251
2640.24	10.2154
2641.6	9.67889
2642.96	9.73476
2644.31	9.90863
2645.67	9.72335
2647.02	10.1492
2648.38	9.78498
2649.74	9.54717
2651.09	9.3863
2652.45	9.05278
2653.8	8.51527
2655.16	8.09922
2656.51	8.02738
2657.86	8.2418
2659.22	8.03206
2660.57	7.29327
2661.93	7.51736
2663.28	7.52556
2664.63	7.27022
2665.98	7.17948
2667.34	6.89281
2668.69	6.47502
2670.04	5.56548
2671.39	5.28159
2672.75	5.56426
2674.09	5.55345
2675.45	5.12604
2676.8	5.11966
2678.15	4.57078
2679.5	3.92784
2680.85	3.67043
2682.2	2.96401
2683.55	3.03416
2684.9	3.74332
2686.25	3.9501
2687.6	4.33812
2688.94	4.48674
2690.29	4.70322
2691.64	5.16062
2692.99	6.0225
2694.34	6.59466
2695.68	7.59521
2697.03	8.63117
2698.38	9.62255
2699.73	9.76754
2701.07	9.84323
2702.42	9.58326
2703.76	10.0536
2705.11	10.847
2706.45	10.4996
2707.8	11.8701
2709.15	12.156
2710.49	12.6226
2711.83	13.4019
2713.18	13.5157
2714.52	14.0327
2715.87	13.8733
2717.21	13.6115
2718.55	13.6778
2719.9	13.8263
2721.24	13.8292
2722.58	14.2212
2723.93	14.2137
2725.27	14.1183
2726.61	13.5238
2727.95	13.3363
2729.29	12.9454
2730.63	11.8524
2731.98	11.897
2733.32	11.8097
2734.66	11.1267
2736	11.0387
2737.34	10.9804
2738.68	11.1617
2740.02	10.8416
2741.36	10.3717
2742.7	9.67185
2744.03	9.61253
2745.37	8.99278
2746.71	8.88591
2748.05	8.4739
2749.39	8.73322
2750.72	9.07872
2752.06	8.62842
2753.4	7.37408
2754.74	7.09394
2756.07	6.53225
2757.41	6.63436
2758.75	6.85508
2760.08	6.4096
2761.42	6.7644
2762.76	6.40777
2764.09	5.63053
2765.42	5.18013
2766.76	4.16722
2768.09	4.20122
2769.43	4.38716
2770.76	4.62544
2772.1	4.41837
2773.43	3.85557
2774.76	3.73845
2776.1	3.39227
2777.43	2.83463
2778.76	2.315
2780.1	2.13979
2781.43	1.95869
2782.76	1.84649
2784.09	1.37037
2785.42	0.974012
2786.75	0.433935
2788.09	0.483465
2789.42	0.246844
2790.75	-0.545519
2792.08	-1.11647
2793.41	-0.90917
2794.74	-0.881754
2796.07	-0.344042
2797.4	0.319918
2798.73	0.513587
2800.06	0.769254
2801.39	1.09877
2802.71	1.70594
2804.04	2.04557
2805.37	2.27936
2806.7	2.50984
2808.03	2.39961
2809.35	2.21742
2810.68	2.63076
2812.01	2.22478
2813.33	2.66359
2814.66	2.72502
2815.99	2.72423
2817.31	3.06664
2818.64	3.96184
2819.96	4.77932
2821.29	6.11167
2822.61	7.29613
2823.94	9.45
2825.26	10.6017
2826.59	12.5176
2827.91	14.8804
2829.23	16.3804
2830.56	17.8044
2831.88	20.3505
2833.21	22.3278
2834.53	25.1153
2835.85	26.9802
2837.17	30.0473
2838.5	33.2669
2839.82	36.5372
2841.14	41.118
2842.46	45.6426
2843.78	50.5554
2845.1	56.1303
2846.42	62.0598
2847.74	67.5549
2849.06	73.5834
2850.38	80.1283
2851.71	86.8305
2853.03	94.1329
2854.34	101.013
2855.66	107.774
2856.98	114.826
2858.3	122.358
2859.62	129.689
2860.94	136.633
2862.26	143.758
2863.57	150.279
2864.89	156.658
2866.21	163.77
2867.53	170.224
2868.84	176.582
2870.16	183.212
2871.48	188.822
2872.79	194.491
2874.11	200.296
2875.42	206.262
2876.74	212.128
2878.05	217.725
2879.37	223.388
2880.68	228.763
2882	233.729
2883.31	238.825
2884.63	244.019
2885.94	248.757
2887.26	253.929
2888.57	259.119
2889.88	263.869
2891.19	268.153
2892.51	272.25
2893.82	276.245
2895.13	279.614
2896.44	284.013
2897.76	289.499
2899.07	294.509
2900.38	299.718
2901.69	304.59
2903	310.465
2904.31	316.284
2905.62	322.507
2906.93	329.357
2908.24	335.538
2909.55	342.217
2910.86	348.371
2912.17	354.548
2913.48	360.961
2914.79	367.834
2916.1	373.932
2917.41	379.056
2918.71	384.243
2920.02	388.214
2921.33	392.523
2922.64	395.829
2923.94	398.593
2925.25	400.486
2926.56	402.796
2927.86	403.712
2929.17	404.001
2930.48	403.445
2931.78	402.214
2933.09	400.206
2934.39	398.124
2935.7	395.293
2937	391.518
2938.31	389.052
2939.61	385.727
2940.92	381.135
2942.22	376.07
2943.53	370.835
2944.83	365.216
2946.13	359.069
2947.43	353.181
2948.74	346.842
2950.04	341.297
2951.34	335.056
2952.64	328.232
2953.95	321.439
2955.25	314.511
2956.55	307.242
2957.85	299.874
2959.15	293.189
2960.45	286.471
2961.75	280.821
2963.05	274.256
2964.35	267.299
2965.65	260.229
2966.95	253.082
2968.25	247.451
2969.55	242.299
2970.85	236.016
2972.15	230.586
2973.45	225.151
2974.75	218.772
2976.05	212.818
2977.34	207.064
2978.64	201.556
2979.94	195.452
2981.24	188.541
2982.53	181.799
2983.83	175.277
2985.13	168.282
2986.42	161.091
2987.72	154.153
2989.01	147.795
2990.31	140.075
2991.61	132.844
2992.9	124.906
2994.19	117.429
2995.49	109.674
2996.78	103.026
2998.08	96.6454
2999.37	90.8897
3000.67	85.0574
3001.96	79.7456
3003.25	74.4925
3004.55	67.9932
3005.84	62.7077
3007.13	57.5642
3008.42	53.1663
3009.72	48.6812
3011.01	44.5327
3012.3	40.845
3013.59	37.0109
3014.88	33.9226
3016.17	30.5471
3017.46	27.7674
3018.76	24.6803
3020.05	21.7733
3021.34	19.6193
3022.63	17.2862
3023.92	15.4356
3025.21	13.8385
3026.49	12.7672
3027.78	11.556
3029.07	10.1615
3030.36	9.16357
3031.65	8.62428
3032.94	8.91736
3034.23	8.61542
3035.51	8.10713
3036.8	9.09999
3038.09	8.92669
3039.38	8.86502
3040.66	9.6055
3041.95	10.2292
3043.23	10.7591
3044.52	11.1807
3045.81	11.7857
3047.09	12.717
3048.38	13.842
3049.66	13.864
3050.95	14.1875
3052.23	15.0281
3053.52	15.5812
3054.8	14.6408
3056.09	14.9877
3057.37	14.9833
3058.65	15.2371
3059.94	15.2284
3061.22	15.3167
3062.5	15.4328
3063.79	15.2009
3065.07	15.2292
3066.35	14.6845
3067.63	13.9004
3068.92	13.7118
3070.2	13.8981
3071.48	12.9539
3072.76	12.3426
3074.04	11.1055
3075.32	10.3876
3076.6	8.9358
3077.88	8.80143
3079.16	7.41615
3080.44	6.42022
3081.72	5.21266
3083	4.08814
3084.28	3.46172
3085.56	2.70378
3086.84	0.830765
3088.12	0.965355
3089.4	0.622549
3090.67	0.494025
3091.95	-0.297746
3093.23	-0.482714
3094.51	0.0837567
3095.78	-0.345535
3097.06	0.205061
3098.34	0.116284
3099.61	0.271462
3100.89	0.887176
3102.17	1.06022
3103.44	1.69014
3104.72	2.17473
3105.99	2.8927
3107.27	3.46174
3108.54	4.35222
3109.82	5.14825
3111.09	5.79153
3112.37	5.70978
3113.64	5.90658
3114.92	6.70173
3116.19	7.26827
3117.46	7.66154
3118.74	7.79258
3120.01	8.95922
3121.28	9.65395
3122.55	10.5966
3123.83	11.0161
3125.1	11.838
3126.37	13.1099
3127.64	13.6498
3128.91	14.9035
3130.19	15.3821
3131.46	16.5135
3132.73	17.637
3134	17.8277
3135.27	18.4473
3136.54	18.9369
3137.81	19.6297
3139.08	20.7031
3140.35	21.6679
3141.62	22.9496
3142.89	23.8313
3144.16	25.258
3145.42	26.7613
3146.69	28.2891
3147.96	30.3736
3149.23	31.8739
