#Acq. time (s)=	45
#Accumulations=	2
#Range (cm-¹)=	200...3150
#Windows=	2
#Auto scanning=	Off
#Autofocus=	Off
#Macrospot=	Off
#AutoExposure=	Off
#Spike filter=	Multiple accum.
#Delay time (s)=	0
#Binning=	1
#Readout mode=	Signal
#DeNoise=	Off
#ICS correction=	On
#Dark correction=	Off
#Inst. Process=	Off
#Detector Gain=	Best Dynamic Range
#Detector ADC=	20 kHz       
#Detector temperature (°C)=	-69.85
#Instrument=	LabRAM HR Evol
#Detector=	Synapse
#Objective=	x100
#Grating=	600 gr/mm
#ND Filter=	100%
#Laser (nm)=	532 
#Hole=	100.021
#Range=	Auto
#Laser Pol.=	No
#Raman. Pol.=	No
#Laser Pol. (°)=	-0.0007625
#Raman Pol. (°)=	89.9995
#Collection=	Microscope
#StageXY=	Marzhauser
#StageZ=	Marzhauser
#X (µm)=	-5134.5
#Y (µm)=	1497.1
#Z (µm)=	63.2
#Full time(mm:ss)=	3:18
#Project=	
#Sample=	
#Site=	
#Title=	Thy_50_12_27_2x_45s_532 nm_x100_100%_600 gr_mm
#Remark=	
#Date=	07.07.2022 11:13
#Acquired=	07.07.2022 11:13:35
#Base:Fit=	10.08.2022 10:04:29
#Base:Sub=	10.08.2022 10:04:45
#Filter:Polynom=	16.08.2022 10:20:24
#AxisType[0]=Intens
#AxisUnit[0]=Cnt
#AxisType[1]=Spectr
#AxisUnit[1]=1/cm
200.43	27.7715
202.246	24.4515
204.061	23.3586
205.875	23.2773
207.688	22.3563
209.501	21.2067
211.316	19.7679
213.129	18.2868
214.941	17.2086
216.753	16.5684
218.566	14.5886
220.377	13.9272
222.188	13.9876
223.999	12.0734
225.809	11.1657
227.618	9.38368
229.43	9.23389
231.239	8.53663
233.047	7.30437
234.855	5.97586
236.663	4.88579
238.471	4.0874
240.278	4.24653
242.087	3.983
243.894	3.39703
245.7	3.12824
247.506	3.04456
249.311	2.61489
251.116	2.06459
252.921	2.26478
254.725	2.61402
256.529	3.34654
258.333	2.86787
260.136	3.20962
261.939	2.94949
263.744	2.52942
265.546	3.09923
267.348	3.68658
269.15	2.88494
270.951	3.91568
272.752	4.29947
274.552	6.11897
276.353	6.7811
278.152	6.12123
279.952	5.98144
281.751	4.81347
283.55	4.30639
285.348	3.26122
287.146	4.47191
288.942	5.2986
290.739	6.23001
292.536	6.90678
294.333	5.29798
296.129	4.04954
297.925	4.15072
299.721	4.2449
301.516	4.46728
303.311	5.98792
305.106	6.20008
306.9	5.78866
308.694	5.28113
310.486	5.43
312.279	4.54818
314.072	3.8522
315.864	4.13118
317.656	3.67127
319.448	4.08188
321.24	2.51329
323.029	2.96292
324.819	3.43159
326.61	3.09159
328.4	2.6639
330.19	3.68858
331.977	3.62317
333.766	3.26761
335.555	4.11061
337.343	4.83117
339.131	4.63066
340.917	4.39919
342.704	4.67826
344.491	5.5364
346.277	5.66334
348.062	6.15515
349.848	7.44392
351.633	7.53949
353.416	7.73181
355.201	7.46804
356.986	8.56345
358.77	8.65017
360.552	9.01082
362.335	8.8644
364.118	9.543
365.899	8.3989
367.682	7.3543
369.464	8.87
371.243	8.86062
373.025	9.42447
374.806	10.4607
376.585	11.3409
378.365	10.4248
380.143	10.835
381.923	9.67581
383.702	9.5169
385.479	8.9804
387.258	9.26645
389.034	10.0825
390.812	10.1024
392.59	9.83531
394.365	8.53239
396.142	8.56805
397.916	9.64287
399.693	9.09939
401.467	8.5327
403.242	8.82738
405.015	8.06244
406.79	7.47394
408.565	6.93512
410.337	6.34829
412.111	6.48088
413.882	4.9812
415.656	3.84525
417.426	3.40253
419.197	4.64192
420.969	4.21329
422.739	4.99691
424.51	5.4136
426.279	4.96205
428.05	4.93653
429.819	5.82314
431.589	6.32137
433.356	6.20321
435.124	6.36886
436.893	6.39053
438.66	6.14702
440.428	6.08744
442.194	5.85636
443.96	6.73761
445.727	7.29536
447.492	6.46787
449.259	7.07677
451.023	7.28399
452.787	7.1527
454.553	6.98495
456.316	7.34995
458.079	8.07198
459.844	7.0099
461.606	7.62519
463.368	8.42125
465.132	8.69019
466.893	8.64037
468.654	9.15667
470.415	9.62181
472.177	10.4444
473.937	10.0734
475.696	11.4114
477.456	12.4462
479.217	12.8834
480.975	14.398
482.733	16.309
484.491	18.0269
486.251	19.5115
488.008	19.6375
489.765	20.5082
491.522	22.3318
493.278	23.0653
495.036	23.691
496.791	24.4488
498.546	25.5845
500.301	25.953
502.056	26.6733
503.81	27.4801
505.566	27.9331
507.319	29.6828
509.073	30.9401
510.825	31.9906
512.578	32.4181
514.33	33.2349
516.082	33.612
517.833	33.6408
519.587	32.546
521.337	32.9388
523.088	33.5531
524.838	33.2858
526.588	32.3413
528.337	32.2099
530.087	31.5428
531.835	30.6138
533.584	29.7353
535.332	29.0164
537.08	28.1015
538.827	27.3463
540.574	26.345
542.321	25.6208
544.068	25.5487
545.814	24.6471
547.56	23.7545
549.305	22.8775
551.05	22.17
552.795	21.2436
554.54	20.6037
556.284	20.6708
558.027	20.5274
559.771	19.2397
561.514	19.333
563.257	19.2086
564.999	18.813
566.742	18.8921
568.481	19.1158
570.223	19.1023
571.964	18.2452
573.705	17.8786
575.445	16.8889
577.185	15.9775
578.925	15.2225
580.665	13.9148
582.402	12.3794
584.141	11.9208
585.879	11.7539
587.617	10.3879
589.355	9.2145
591.092	9.11103
592.828	9.03046
594.564	8.8343
596.301	8.67011
598.037	8.90791
599.773	9.06164
601.506	7.83992
603.242	7.28847
604.976	7.4669
606.711	7.63022
608.443	8.70185
610.177	8.83071
611.91	8.9412
613.644	8.57262
615.374	9.34068
617.107	9.34187
618.839	10.0614
620.569	10.3056
622.3	10.9019
624.032	11.3533
625.761	12.5749
627.491	12.8523
629.221	13.8155
630.949	15.2319
632.679	15.0245
634.408	15.8357
636.135	17.0533
637.863	19.5263
639.592	20.7483
641.318	22.1175
643.045	22.6686
644.77	22.3182
646.497	23.6094
648.224	24.1934
649.948	25.0657
651.674	25.5827
653.398	26.7017
655.123	27.2507
656.846	27.6216
658.57	27.7831
660.293	28.1157
662.017	28.1604
663.738	28.3351
665.462	28.2813
667.185	29.0686
668.905	29.5027
670.628	30.2431
672.348	30.3391
674.067	30.3497
675.789	31.1245
677.508	32.6621
679.228	33.4425
680.947	34.9047
682.667	35.769
684.385	36.6524
686.104	36.0478
687.821	37.3762
689.538	38.2192
691.256	39.0825
692.972	40.6381
694.69	41.5604
696.406	41.2635
698.121	40.5693
699.837	40.7179
701.552	40.4253
703.268	41.1263
704.982	41.8587
706.695	42.2841
708.41	43.4452
710.123	44.0619
711.836	44.7372
713.55	45.728
715.262	46.0908
716.973	47.8686
718.685	48.7526
720.398	49.5235
722.108	50.5969
723.818	51.0149
725.53	50.8876
727.24	51.5856
728.949	51.7949
730.658	53.2084
732.369	53.8445
734.077	53.92
735.785	55.5697
737.493	55.6283
739.2	56.2461
740.909	57.5677
742.616	58.5267
744.322	59.3261
746.028	60.1261
747.734	61.8488
749.441	63.2424
751.146	64.7854
752.851	66.2625
754.555	67.4073
756.26	67.8865
757.963	69.6892
759.667	71.3265
761.372	72.0194
763.075	73.4148
764.777	74.5967
766.479	76.2912
768.181	76.7765
769.883	77.8898
771.584	79.3465
773.285	81.7504
774.986	81.4952
776.686	83.4927
778.386	85.8537
780.085	86.3537
781.785	85.8727
783.484	85.5596
785.182	86.6068
786.881	87.4592
788.579	89.7116
790.276	90.1602
791.974	91.4235
793.671	92.1978
795.367	93.531
797.064	93.7751
798.76	94.5243
800.456	94.0971
802.151	94.3234
803.846	94.1296
805.541	92.7893
807.236	93.5491
808.93	92.8098
810.624	92.3274
812.317	92.2675
814.01	91.8384
815.703	91.5445
817.394	90.6064
819.086	91.546
820.778	90.8765
822.47	90.9135
824.161	90.1321
825.852	89.2849
827.543	88.0904
829.231	87.3424
830.921	85.8847
832.611	84.9966
834.3	83.8771
835.989	82.064
837.676	81.0052
839.364	79.6287
841.053	78.112
842.74	78.0007
844.426	76.6099
846.113	75.5722
847.8	73.8651
849.486	72.7255
851.171	71.6309
852.857	70.234
854.542	69.2171
856.227	68.3853
857.911	68.1255
859.595	66.4734
861.279	66.6043
862.961	65.7367
864.645	64.3926
866.329	62.8422
868.01	62.9491
869.692	63.6916
871.375	63.3397
873.055	62.7382
874.737	61.6179
876.418	60.9905
878.097	58.9347
879.778	57.5571
881.457	55.5467
883.137	54.7605
884.817	53.9937
886.495	53.3694
888.174	53.263
889.851	51.8859
891.53	51.6382
893.206	50.4282
894.884	50.1733
896.562	50.586
898.237	50.2124
899.914	49.7575
901.589	50.6422
903.265	50.1181
904.94	49.4866
906.615	48.8921
908.289	48.0586
909.964	47.6422
911.637	48.0986
913.31	47.4887
914.984	46.6344
916.656	47.0846
918.33	45.7538
920.001	45.6022
921.674	46.1972
923.345	45.4886
925.015	45.0405
926.687	44.0177
928.357	42.7242
930.028	41.4451
931.698	40.5346
933.366	41.5725
935.037	41.0451
936.705	41.3048
938.373	41.2324
940.043	40.9803
941.71	41.0904
943.379	40.0866
945.046	40.9651
946.712	40.9875
948.378	41.3682
950.046	41.369
951.711	41.3447
953.376	40.9648
955.043	40.9157
956.708	40.4731
958.372	39.4515
960.036	38.0296
961.701	37.6013
963.364	38.4193
965.027	38.5414
966.69	38.8031
968.354	38.3587
970.016	38.4679
971.678	39.3141
973.339	38.7328
975	38.2991
976.661	38.8513
978.324	39.2512
979.984	39.645
981.644	39.1515
983.303	39.2003
984.962	39.6297
986.621	38.8056
988.282	38.2736
989.94	36.9488
991.598	37.177
993.256	37.017
994.913	37.0106
996.57	36.5642
998.227	35.9214
999.884	36.186
1001.54	35.9437
1003.2	36.8447
1004.85	36.1514
1006.51	35.5607
1008.16	35.8323
1009.82	36.033
1011.47	36.4674
1013.12	36.7596
1014.78	38.1324
1016.43	38.6994
1018.08	38.8176
1019.74	39.8129
1021.39	39.8061
1023.04	40.6624
1024.69	41.3517
1026.34	42.4695
1028	43.4053
1029.65	43.7235
1031.3	45.1305
1032.95	45.9443
1034.6	45.7352
1036.25	45.2999
1037.9	44.2829
1039.55	44.0407
1041.19	44.2793
1042.84	44.17
1044.49	45.137
1046.14	44.5295
1047.79	43.5059
1049.43	43.0577
1051.08	41.568
1052.73	40.2172
1054.37	38.5596
1056.02	36.0217
1057.66	35.7989
1059.31	35.7234
1060.95	34.9456
1062.6	32.9275
1064.24	31.6171
1065.88	30.0383
1067.53	28.9741
1069.17	27.812
1070.81	26.3897
1072.46	26.4064
1074.1	26.5479
1075.74	25.9637
1077.38	25.2136
1079.02	24.0546
1080.66	22.5542
1082.3	22.2189
1083.94	21.2476
1085.58	21.1422
1087.22	21.9829
1088.86	22.9877
1090.5	24.4576
1092.14	23.7001
1093.78	24.4626
1095.42	24.0738
1097.05	24.3938
1098.69	24.9108
1100.33	25.224
1101.97	25.6237
1103.6	26.2229
1105.24	26.7954
1106.87	26.6187
1108.51	26.1455
1110.15	25.6197
1111.78	25.9296
1113.41	26.4278
1115.05	26.156
1116.68	25.4616
1118.31	24.4105
1119.95	23.6965
1121.58	24.46
1123.21	23.6263
1124.85	21.6831
1126.48	21.2147
1128.11	19.9006
1129.74	18.8134
1131.37	18.0314
1133	17.1101
1134.63	16.7582
1136.26	16.6596
1137.89	16.4263
1139.52	17.1809
1141.15	16.3897
1142.78	15.9988
1144.41	15.5841
1146.04	15.1285
1147.66	13.8617
1149.29	14.0499
1150.92	13.5277
1152.55	12.2849
1154.17	11.1285
1155.8	9.81082
1157.43	8.64037
1159.05	7.88429
1160.68	6.53498
1162.3	6.83467
1163.93	6.8182
1165.55	6.33249
1167.17	7.54992
1168.8	7.60443
1170.42	7.47579
1172.05	7.96519
1173.67	7.10865
1175.29	8.01563
1176.91	7.22552
1178.54	8.25929
1180.16	9.5933
1181.78	8.96889
1183.4	9.55842
1185.02	9.8532
1186.64	9.39491
1188.26	9.38779
1189.88	9.2827
1191.5	9.86874
1193.12	10.7055
1194.74	11.68
1196.36	11.8004
1197.97	12.362
1199.59	12.631
1201.21	13.6594
1202.83	15.0265
1204.44	15.7699
1206.06	16.9346
1207.68	19.0203
1209.29	20.8134
1210.91	22.5126
1212.52	24.0596
1214.14	25.4556
1215.75	26.8559
1217.37	28.3656
1218.98	29.6573
1220.6	31.8905
1222.21	33.9193
1223.82	35.9466
1225.44	36.6034
1227.05	36.9681
1228.66	39.1465
1230.27	40.5535
1231.88	41.3395
1233.49	42.3466
1235.1	43.7902
1236.72	45.9195
1238.33	47.2633
1239.94	49.0905
1241.55	50.954
1243.16	53.559
1244.76	54.4817
1246.37	56.1031
1247.98	59.3358
1249.59	61.0262
1251.2	62.421
1252.8	63.8058
1254.41	64.8606
1256.02	66.2697
1257.63	67.1652
1259.23	69.0143
1260.84	70.2901
1262.44	71.2187
1264.05	72.9839
1265.66	73.7074
1267.26	74.3784
1268.87	76.6145
1270.47	78.2045
1272.07	80.2258
1273.68	81.3398
1275.28	82.7331
1276.88	82.8953
1278.48	84.159
1280.09	84.779
1281.69	84.7914
1283.29	85.6808
1284.89	86.4968
1286.49	87.5127
1288.09	88.5357
1289.69	88.8979
1291.3	89.0711
1292.9	88.8081
1294.49	89.5342
1296.09	90.1273
1297.69	90.2864
1299.29	91.4392
1300.89	92.4658
1302.49	92.3131
1304.09	91.8267
1305.68	91.9371
1307.28	93.1971
1308.88	94.2483
1310.47	93.6338
1312.07	93.9153
1313.66	93.5831
1315.26	93.8423
1316.86	94.5836
1318.45	94.5161
1320.05	94.7081
1321.64	94.2432
1323.23	93.5491
1324.83	93.044
1326.42	92.3361
1328.01	91.021
1329.61	89.6669
1331.2	87.7835
1332.79	86.5164
1334.38	85.4538
1335.98	84.2507
1337.57	82.6102
1339.16	81.6047
1340.75	79.4959
1342.34	77.7518
1343.93	76.0619
1345.52	74.0851
1347.11	72.843
1348.7	71.6611
1350.29	69.5596
1351.87	68.0081
1353.46	65.9914
1355.05	63.887
1356.64	61.7388
1358.23	60.926
1359.81	58.8372
1361.4	57.0434
1362.99	55.8893
1364.57	53.4083
1366.16	52.4121
1367.74	51.4986
1369.33	50.4709
1370.91	49.8556
1372.5	48.3521
1374.08	48.2558
1375.67	47.4675
1377.25	46.8893
1378.83	46.5632
1380.42	44.5912
1382	44.3382
1383.58	44.2088
1385.16	44.3811
1386.75	44.0741
1388.33	42.5815
1389.91	41.4123
1391.49	41.144
1393.07	41.1154
1394.65	41.6114
1396.23	41.6966
1397.81	40.5282
1399.39	40.0942
1400.97	40.6255
1402.55	40.8146
1404.13	41.0378
1405.7	39.8705
1407.28	40.3172
1408.86	42.0238
1410.44	42.775
1412.01	43.7753
1413.59	46.2642
1415.17	47.2942
1416.74	48.2163
1418.32	50.5103
1419.89	51.9172
1421.47	54.8606
1423.05	58.2605
1424.62	61.5089
1426.19	64.76
1427.77	67.3221
1429.34	70.6454
1430.92	73.4184
1432.49	76.2104
1434.06	79.1261
1435.63	81.7069
1437.2	84.6159
1438.78	86.4519
1440.35	88.4897
1441.92	90.1076
1443.49	92.538
1445.06	94.8164
1446.63	95.9392
1448.2	96.6711
1449.77	96.3716
1451.34	95.1212
1452.91	93.8334
1454.48	91.007
1456.05	87.6189
1457.62	85.312
1459.18	83.3959
1460.75	82.7792
1462.32	82.1479
1463.89	80.6062
1465.45	78.8939
1467.02	76.5762
1468.59	74.4856
1470.15	72.1285
1471.72	69.6363
1473.28	67.7347
1474.85	65.1783
1476.41	61.499
1477.98	58.7917
1479.54	56.7586
1481.11	53.6392
1482.67	51.059
1484.23	47.9759
1485.8	46.5517
1487.36	44.2383
1488.92	42.16
1490.48	39.9443
1492.05	38.4338
1493.61	34.9194
1495.17	33.066
1496.73	32.2407
1498.29	30.4508
1499.85	29.9796
1501.41	29.5877
1502.97	28.7
1504.53	27.4458
1506.09	27.3403
1507.65	27.9825
1509.2	27.777
1510.76	28.2362
1512.32	28.2545
1513.88	27.8858
1515.44	28.3363
1516.99	28.2833
1518.55	28.8597
1520.1	29.181
1521.66	29.8673
1523.22	29.1138
1524.77	29.1568
1526.33	29.0812
1527.88	28.433
1529.44	28.3043
1530.99	28.851
1532.55	29.8316
1534.1	32.7858
1535.65	36.4847
1537.21	40.1218
1538.76	43.7203
1540.31	47.3745
1541.86	49.602
1543.42	52.8009
1544.97	55.4433
1546.52	58.3759
1548.07	62.056
1549.62	65.3262
1551.17	67.9192
1552.72	69.5453
1554.27	70.9867
1555.82	73.0814
1557.37	74.9452
1558.92	77.0458
1560.47	78.9184
1562.02	80.6813
1563.57	82.3785
1565.11	83.7647
1566.66	85.2274
1568.21	85.3135
1569.75	86.3097
1571.3	86.1288
1572.85	86.7702
1574.39	88.3872
1575.94	89.1388
1577.49	90.1917
1579.03	90.8404
1580.58	91.0711
1582.12	91.9514
1583.67	91.9783
1585.21	92.2865
1586.75	91.2145
1588.3	90.7362
1589.84	89.559
1591.38	89.0568
1592.93	88.811
1594.47	88.586
1596.01	87.7526
1597.55	85.899
1599.09	84.51
1600.63	83.5749
1602.18	83.5893
1603.72	82.8415
1605.26	82.1209
1606.8	81.943
1608.34	82.2682
1609.87	82.3704
1611.41	82.9703
1612.95	83.2952
1614.49	83.9941
1616.03	84.9027
1617.57	86.7839
1619.11	86.4367
1620.64	87.9426
1622.18	87.7821
1623.72	88.196
1625.25	88.4222
1626.79	88.7842
1628.32	89.4276
1629.86	90.2982
1631.4	91.5842
1632.93	93.6801
1634.47	94.8689
1636	96.8997
1637.53	97.6049
1639.07	98.1241
1640.6	99.0597
1642.14	100.253
1643.67	101.009
1645.2	101.43
1646.73	102.533
1648.27	102.676
1649.8	102.388
1651.33	103.528
1652.86	102.75
1654.39	102.764
1655.92	102.324
1657.45	102.126
1658.98	101.137
1660.51	99.3912
1662.04	98.5064
1663.57	96.7614
1665.1	94.8395
1666.63	92.4687
1668.16	90.8221
1669.69	88.3991
1671.21	85.618
1672.74	82.9084
1674.27	80.2744
1675.79	77.9391
1677.32	75.9846
1678.85	73.3994
1680.37	69.875
1681.9	66.5186
1683.42	63.5641
1684.95	60.9476
1686.47	56.8639
1688	53.7959
1689.52	51.1353
1691.05	47.8588
1692.57	45.1195
1694.1	42.7165
1695.62	38.8479
1697.14	36.6508
1698.66	33.1176
1700.19	30.6445
1701.71	27.7434
1703.23	26.5369
1704.75	24.128
1706.27	23.3722
1707.79	22.3059
1709.32	20.8758
1710.83	18.1852
1712.35	17.045
1713.88	15.72
1715.39	14.6669
1716.91	14.5206
1718.43	13.7455
1719.95	12.426
1721.47	11.5878
1722.99	10.6377
1724.5	9.20178
1726.02	8.16536
1727.54	8.89973
1729.06	8.53533
1730.57	8.91724
1732.09	8.41474
1733.61	8.40546
1735.12	7.92288
1736.64	7.43409
1738.15	7.19801
1739.67	6.85498
1741.18	6.07813
1742.7	5.81622
1744.21	6.38044
1745.72	6.47119
1747.24	6.23862
1748.75	6.00206
1750.26	5.5894
1751.78	5.58719
1753.29	5.64567
1754.8	5.93272
1756.31	5.37514
1757.82	5.22687
1759.34	5.0985
1760.85	4.77206
1762.36	4.17171
1763.87	4.77739
1765.38	4.76831
1766.89	3.89214
1768.4	3.79949
1769.91	3.7432
1771.41	3.14256
1772.92	2.54243
1774.43	1.85461
1775.94	1.77929
1777.45	2.0818
1778.96	3.18018
1780.46	2.73679
1781.97	3.75212
1783.48	3.11016
1784.98	3.10436
1786.49	2.23231
1788	2.76927
1789.5	2.57545
1791.01	2.35468
1792.51	1.76594
1794.01	1.65297
1795.52	1.09583
1797.02	1.15012
1798.53	0.576028
1800.03	0.451349
1801.54	1.1636
1803.04	1.11404
1804.54	0.438919
1806.04	0.499997
1807.54	0.833478
1809.05	0.571296
1810.55	0.496053
1812.05	0.281077
1813.55	0.509166
1815.05	0.282691
1816.55	0.0204999
1818.05	-0.37309
1819.55	-0.402547
1821.05	-0.483023
1822.55	-0.473681
1824.05	-0.360496
1825.55	-0.0168661
1827.05	0.423589
1828.55	0.455092
1830.04	0.696713
1831.54	0.425862
1833.04	1.09486
1834.54	1.45068
1836.03	1.53804
1837.53	1.52199
1839.03	1.57991
1840.52	1.38523
1842.02	1.19454
1843.51	1.47896
1845.01	1.37956
1846.5	1.15919
1848	1.00098
1849.49	1.4193
1850.99	1.64751
1852.48	1.69011
1853.97	2.14999
1855.47	1.80528
1856.96	2.00276
1858.45	1.29341
1859.94	1.27582
1861.44	1.13581
1862.93	1.11986
1864.42	1.1154
1865.91	1.73154
1867.4	1.76098
1868.89	2.4551
1870.38	2.472
1871.87	2.70721
1873.36	2.28612
1874.85	2.60304
1876.34	2.56508
1877.83	2.15961
1879.32	2.37491
1880.81	3.20627
1882.3	3.23298
1882.56	3.05267
1884.06	3.55659
1885.55	3.84842
1887.04	3.5931
1888.54	3.6125
1890.03	3.60564
1891.52	3.71315
1893.02	4.37257
1894.51	4.75368
1896	5.12489
1897.49	5.01581
1898.99	5.87308
1900.48	6.1997
1901.97	6.36602
1903.46	6.88559
1904.95	7.21729
1906.44	7.81959
1907.93	7.4474
1909.42	7.02498
1910.91	6.98262
1912.4	6.50877
1913.89	6.21345
1915.38	5.70158
1916.86	5.39034
1918.35	5.50868
1919.84	5.17541
1921.33	4.82544
1922.82	4.54732
1924.3	4.56253
1925.79	4.68534
1927.28	4.65805
1928.76	4.00517
1930.25	3.42951
1931.74	3.14023
1933.22	3.48062
1934.71	3.48712
1936.19	3.45974
1937.67	3.67914
1939.16	3.72083
1940.64	3.27529
1942.13	3.27993
1943.61	3.62331
1945.09	3.32308
1946.58	2.62579
1948.06	2.51567
1949.54	2.8043
1951.03	2.37348
1952.51	2.65947
1953.99	2.60725
1955.47	2.12792
1956.95	1.89714
1958.43	1.44651
1959.91	1.14356
1961.39	0.425885
1962.87	0.704274
1964.35	1.0981
1965.83	1.80573
1967.31	2.68325
1968.79	3.10522
1970.27	3.38749
1971.75	3.72648
1973.22	3.66638
1974.7	3.5369
1976.18	3.46552
1977.66	3.1611
1979.13	2.76944
1980.61	2.4511
1982.09	1.94852
1983.56	2.21927
1985.04	2.61811
1986.52	2.37629
1987.99	3.11618
1989.47	3.06772
1990.94	3.10278
1992.41	3.69073
1993.89	3.39867
1995.36	3.53074
1996.84	4.65445
1998.31	5.11305
1999.78	5.23404
2001.26	5.23863
2002.73	5.2799
2004.2	5.29796
2005.67	5.89821
2007.15	6.71348
2008.62	6.91981
2010.09	7.30145
2011.56	7.76596
2013.03	8.94074
2014.5	9.25786
2015.97	9.76311
2017.44	10.0706
2018.91	9.71911
2020.38	9.82957
2021.85	10.425
2023.32	11.5784
2024.79	11.0999
2026.25	11.9152
2027.72	12.7371
2029.19	13.2544
2030.66	13.8632
2032.13	14.2782
2033.59	14.7959
2035.06	14.9982
2036.53	16.076
2037.99	17.0172
2039.46	17.3282
2040.92	17.5424
2042.39	17.8228
2043.85	18.1606
2045.32	18.5372
2046.78	18.6611
2048.25	19.4443
2049.71	19.3291
2051.18	19.0489
2052.64	19.8017
2054.1	20.383
2055.56	21.7324
2057.03	22.6156
2058.49	22.9761
2059.95	23.1976
2061.42	23.7747
2062.88	24.0459
2064.34	24.1785
2065.8	24.7809
2067.26	25.0651
2068.72	25.8912
2070.18	26.6609
2071.64	26.7267
2073.1	27.6832
2074.56	28.3011
2076.02	29.1218
2077.48	30.0448
2078.94	30.7444
2080.39	32.4188
2081.85	33.0599
2083.31	33.5125
2084.77	34.5308
2086.22	36.2967
2087.68	36.9642
2089.14	38.1541
2090.6	39.5334
2092.05	40.8645
2093.51	42.4898
2094.96	43.8136
2096.42	45.9077
2097.87	47.0919
2099.33	49.3661
2100.78	51.0773
2102.24	52.0769
2103.69	53.3643
2105.15	54.4875
2106.6	56.3107
2108.05	58.1009
2109.51	60.7321
2110.96	62.9175
2112.41	65.097
2113.86	67.5289
2115.32	70.251
2116.77	72.5877
2118.22	74.4029
2119.67	76.8808
2121.12	79.4393
2122.57	81.8399
2124.02	84.4055
2125.47	87.2088
2126.92	89.5174
2128.37	92.1756
2129.82	93.8941
2131.27	96.5249
2132.72	98.5197
2134.17	101.11
2135.62	103.432
2137.06	105.564
2138.51	108.302
2139.96	110.954
2141.41	113.38
2142.85	115.729
2144.3	118.547
2145.75	121.198
2147.19	123.127
2148.64	125.17
2150.09	127.107
2151.53	128.51
2152.97	130.925
2154.42	131.628
2155.86	133.066
2157.31	135.561
2158.75	137.007
2160.2	137.925
2161.64	138.589
2163.08	139.088
2164.53	139.048
2165.97	139.365
2167.41	139.527
2168.86	139.969
2170.3	138.866
2171.74	138.615
2173.18	137.358
2174.62	136.579
2176.06	135.195
2177.5	133.868
2178.94	133.052
2180.38	132.33
2181.82	131.234
2183.26	129.658
2184.7	128.332
2186.14	126.699
2187.58	125.004
2189.02	122.871
2190.46	121.334
2191.89	119.567
2193.33	117.347
2194.77	115.115
2196.21	112.747
2197.64	110.186
2199.08	107.968
2200.52	105.015
2201.95	102.632
2203.39	100.651
2204.83	98.0272
2206.26	96.4608
2207.7	94.2255
2209.13	92.2266
2210.57	89.506
2212	87.0833
2213.43	85.1022
2214.87	83.1864
2216.3	80.743
2217.73	78.6387
2219.17	75.7732
2220.6	73.5064
2222.03	71.5365
2223.47	69.3881
2224.9	67.8
2226.33	65.3148
2227.76	63.7923
2229.19	61.8082
2230.62	59.3683
2232.05	57.2523
2233.49	54.4614
2234.91	52.5519
2236.34	50.5458
2237.77	49.026
2239.2	47.4078
2240.63	45.5818
2242.06	43.5002
2243.49	42.7643
2244.92	41.2568
2246.35	40.4098
2247.78	38.8012
2249.2	38.43
2250.63	38.3816
2252.06	37.9233
2253.48	36.712
2254.91	36.2582
2256.34	35.7235
2257.76	35.2281
2259.19	34.8218
2260.61	33.9827
2262.04	33.7037
2263.46	33.2403
2264.89	32.3274
2266.31	32.0951
2267.74	31.3309
2269.16	30.5161
2270.59	30.0708
2272.01	29.3394
2273.43	28.9429
2274.85	27.9098
2276.28	26.8468
2277.7	26.4688
2279.12	25.6252
2280.54	25.07
2281.97	24.1797
2283.39	23.8166
2284.81	23.5321
2286.23	22.766
2287.65	21.3695
2289.07	20.3277
2290.49	19.0767
2291.91	18.2145
2293.33	17.3684
2294.75	16.5902
2296.17	16.3228
2297.59	15.9094
2299.01	15.5136
2300.42	14.911
2301.84	14.5991
2303.26	13.7292
2304.68	13.7353
2306.1	13.498
2307.51	13.0087
2308.93	12.8096
2310.35	12.6034
2311.76	12.2462
2313.18	12.2002
2314.59	12.4906
2316.01	12.3602
2317.43	12.4109
2318.84	12.602
2320.26	13.2044
2321.67	12.894
2323.08	12.4752
2324.5	12.5565
2325.91	12.5358
2327.33	12.7292
2328.74	12.998
2330.15	12.7759
2331.56	12.2054
2332.98	12.5057
2334.39	12.926
2335.8	12.5064
2337.21	12.7005
2338.62	12.3564
2340.04	12.3271
2341.45	11.8979
2342.86	11.821
2344.27	11.2666
2345.68	11.2805
2347.09	11.0891
2348.5	11.1529
2349.91	10.5015
2351.31	10.0036
2352.72	9.05476
2354.13	8.65308
2355.54	8.26405
2356.95	7.52521
2358.36	6.60978
2359.76	6.46011
2361.17	6.2352
2362.58	5.82247
2363.98	6.45954
2365.39	6.53545
2366.8	6.74219
2368.21	6.19694
2369.61	5.86759
2371.02	5.93361
2372.42	5.36655
2373.83	4.51245
2375.23	4.19733
2376.64	3.46635
2378.04	3.31193
2379.44	3.10133
2380.85	2.72795
2382.25	2.35163
2383.66	2.10631
2385.06	1.88806
2386.46	1.72203
2387.86	1.50388
2389.26	1.62521
2390.67	1.67887
2392.07	1.35935
2393.47	1.50379
2394.87	1.95742
2396.27	1.65633
2397.67	2.12525
2399.07	2.36088
2400.47	2.27551
2401.87	2.47363
2403.27	3.49946
2404.67	3.64967
2406.07	3.53291
2407.47	3.51627
2408.87	3.21892
2410.27	3.75473
2411.67	3.67076
2413.07	4.35574
2414.46	4.4315
2415.86	4.74331
2417.26	4.62177
2418.66	5.42661
2420.05	5.41252
2421.45	6.06056
2422.84	6.39463
2424.24	7.04962
2425.64	6.8727
2427.03	7.16438
2428.43	7.10869
2429.82	7.38558
2431.22	7.2316
2432.61	7.0335
2434.01	7.42903
2435.4	7.39127
2436.79	7.27766
2438.19	6.88899
2439.58	7.20237
2440.97	7.39556
2442.37	6.67902
2443.76	5.79344
2445.15	5.55398
2446.54	5.72003
2447.93	5.47782
2449.33	4.93759
2450.72	4.76623
2452.11	4.86812
2453.5	4.92587
2454.89	4.47529
2456.28	4.70999
2457.67	4.55384
2459.06	4.49724
2460.45	5.06974
2461.84	4.87905
2463.23	4.81889
2464.62	4.88513
2466	4.23896
2467.39	4.08822
2468.78	3.98808
2470.17	3.86128
2471.55	3.90249
2472.94	3.86138
2474.33	3.47267
2475.72	3.59468
2477.1	3.8716
2478.49	4.11368
2479.87	4.68817
2481.26	4.92789
2482.65	5.56388
2484.03	5.15069
2485.42	4.94603
2486.8	4.68707
2488.19	5.75597
2489.57	4.86078
2490.95	4.59845
2492.34	4.12417
2493.72	4.13261
2495.1	4.14731
2496.49	4.26266
2497.87	3.70017
2499.25	3.71711
2500.63	3.58039
2502.02	4.10363
2503.4	4.4601
2504.78	3.96224
2506.16	3.32756
2507.54	3.29068
2508.92	2.65901
2510.3	2.08276
2511.68	0.658152
2513.06	0.442584
2514.44	0.487269
2515.82	0.768623
2517.2	0.243746
2518.58	0.0311731
2519.96	0.338744
2521.34	0.439116
2522.72	0.502884
2524.1	0.683188
2525.47	1.51079
2526.85	1.24545
2528.23	1.36258
2529.6	1.85932
2530.98	0.814546
2532.36	0.859965
2533.74	0.520101
2535.11	0.42332
2536.49	0.663545
2537.86	1.04833
2539.24	1.87793
2540.61	2.09482
2541.99	2.38043
2543.36	2.28377
2544.74	2.71514
2546.11	2.83213
2547.49	2.59541
2548.86	2.87997
2550.23	3.44707
2551.61	3.04565
2552.98	2.61574
2554.35	2.98185
2555.72	3.53702
2557.09	3.90475
2558.47	3.37038
2559.84	3.9036
2561.21	4.18283
2562.58	5.12093
2563.95	5.65223
2565.32	5.24684
2566.69	5.53352
2568.06	5.62437
2569.43	5.46706
2570.8	5.84774
2572.17	5.14434
2573.54	5.0325
2574.91	4.81935
2576.28	4.97523
2577.65	4.52778
2579.02	4.84788
2580.39	4.86635
2581.75	5.24969
2583.12	4.94287
2584.49	5.46957
2585.85	5.30297
2587.22	5.15034
2588.59	5.22587
2589.95	4.81473
2591.32	5.03598
2592.68	5.17533
2594.05	4.94416
2595.42	4.21571
2596.78	3.84531
2598.15	3.842
2599.51	2.88664
2600.88	3.13222
2602.24	2.62763
2603.6	2.88634
2604.97	2.77199
2606.33	2.87889
2607.69	2.78881
2609.06	2.45116
2610.42	2.20792
2611.78	2.07039
2613.14	3.04234
2614.51	2.60199
2615.87	2.25358
2617.23	2.43144
2618.59	2.16172
2619.95	1.79589
2621.31	2.13588
2622.67	2.55917
2624.03	2.88198
2625.39	2.66173
2626.75	3.13445
2628.11	3.56524
2629.47	3.71249
2630.83	3.99067
2632.19	3.41231
2633.55	3.25231
2634.91	3.41755
2636.26	3.76853
2637.62	3.88778
2638.98	3.92338
2640.34	3.95141
2641.69	4.34542
2643.05	4.21004
2644.41	4.13027
2645.76	3.91812
2647.12	3.99052
2648.48	3.75956
2649.83	3.64757
2651.19	3.35111
2652.54	3.42703
2653.9	3.03391
2655.25	2.24269
2656.6	2.52062
2657.96	2.40255
2659.31	2.79657
2660.67	2.3898
2662.02	1.95097
2663.37	1.53626
2664.73	0.897255
2666.08	1.01129
2667.43	0.332089
2668.78	0.70686
2670.14	0.390487
2671.49	1.05885
2672.84	0.956011
2674.19	0.751971
2675.54	1.16544
2676.89	1.27376
2678.24	1.63749
2679.59	1.99311
2680.94	2.21875
2682.29	1.71703
2683.64	1.54751
2684.99	2.30894
2686.34	2.89481
2687.69	3.2179
2689.04	3.82529
2690.39	3.68763
2691.74	3.96191
2693.08	4.19389
2694.43	5.18277
2695.78	5.19134
2697.13	4.95187
2698.47	4.95371
2699.82	5.14689
2701.17	5.27275
2702.51	5.47593
2703.86	5.85575
2705.21	5.78309
2706.55	6.30882
2707.9	7.45678
2709.24	8.12331
2710.58	8.16056
2711.93	8.16548
2713.27	8.83421
2714.62	9.03106
2715.96	9.59679
2717.3	9.97061
2718.65	9.73335
2719.99	9.82097
2721.33	10.0152
2722.68	10.5126
2724.02	10.4029
2725.36	10.4717
2726.71	10.6932
2728.05	10.4352
2729.39	9.89764
2730.73	9.80775
2732.07	9.15362
2733.41	9.41831
2734.75	9.24649
2736.09	9.67719
2737.43	9.42597
2738.77	9.98231
2740.11	9.45347
2741.45	9.72935
2742.79	9.91963
2744.13	9.3954
2745.47	9.66198
2746.81	9.28177
2748.14	9.13207
2749.48	8.63559
2750.82	8.27348
2752.16	8.44975
2753.49	7.75125
2754.83	7.21058
2756.17	7.01856
2757.5	6.15872
2758.84	6.15156
2760.18	5.49008
2761.51	5.29989
2762.85	4.33836
2764.18	4.04947
2765.52	3.78126
2766.85	3.95997
2768.19	3.32691
2769.52	3.29219
2770.86	3.31257
2772.19	3.66201
2773.52	3.40735
2774.86	3.04599
2776.19	2.67201
2777.52	1.7596
2778.86	1.50779
2780.19	1.54316
2781.52	1.7193
2782.85	1.44611
2784.19	0.793422
2785.52	0.500881
2786.85	0.588898
2788.18	0.555838
2789.51	0.0992797
2790.84	-0.751878
2792.17	0.242663
2793.5	0.286807
2794.83	-0.320498
2796.16	-0.889438
2797.49	-0.331818
2798.82	-0.346423
2800.15	-0.290388
2801.48	0.161084
2802.81	0.0304984
2804.13	0.378367
2805.46	0.795807
2806.79	0.279287
2808.12	-0.30793
2809.45	-0.55162
2810.77	-0.588503
2812.1	-0.852715
2813.43	-1.33065
2814.75	-1.42702
2816.08	-0.843273
2817.41	0.221858
2818.73	1.62336
2820.06	3.22824
2821.38	5.31446
2822.71	7.95387
2824.03	10.7879
2825.36	14.0596
2826.68	17.2382
2828	20.8547
2829.33	24.0199
2830.65	27.5939
2831.98	31.069
2833.3	34.9846
2834.62	38.4028
2835.94	42.3488
2837.27	46.2168
2838.59	50.3988
2839.91	54.7374
2841.23	58.9332
2842.55	63.4544
2843.87	67.8548
2845.2	72.9713
2846.52	78.41
2847.84	83.7969
2849.16	88.6198
2850.48	94.1907
2851.8	99.8355
2853.12	105.326
2854.44	110.931
2855.76	117.131
2857.08	123.176
2858.39	129.193
2859.71	133.943
2861.03	138.524
2862.35	143.182
2863.67	148.067
2864.98	151.345
2866.3	155.295
2867.62	159.321
2868.94	162.228
2870.25	164.9
2871.57	167.288
2872.88	169.508
2874.2	171.704
2875.52	173.906
2876.83	176.057
2878.15	178.234
2879.46	180.888
2880.78	183.724
2882.09	186.213
2883.41	188.876
2884.72	191.605
2886.03	193.946
2887.35	196.471
2888.66	199.347
2889.97	201.513
2891.29	203.682
2892.6	205.661
2893.91	208.455
2895.22	210.553
2896.54	214.576
2897.85	218.24
2899.16	222.065
2900.47	226.147
2901.78	230.385
2903.09	234.877
2904.4	239.968
2905.71	245.001
2907.02	250.363
2908.33	256.076
2909.64	262.675
2910.95	269.615
2912.26	276.695
2913.57	283
2914.88	289.128
2916.19	295.831
2917.5	302.082
2918.81	308.359
2920.11	313.427
2921.42	318.174
2922.73	322.295
2924.04	325.992
2925.34	329.134
2926.65	331.54
2927.96	333.254
2929.26	334.855
2930.57	335.647
2931.87	336.7
2933.18	336.238
2934.49	335.38
2935.79	333.547
2937.1	331.706
2938.4	329.077
2939.7	325.659
2941.01	322.441
2942.31	318.805
2943.62	314.364
2944.92	308.967
2946.22	303.249
2947.53	297.96
2948.83	291.986
2950.13	284.767
2951.43	277.713
2952.74	270.983
2954.04	263.876
2955.34	256.743
2956.64	249.803
2957.94	243.113
2959.24	236.876
2960.54	229.524
2961.84	223.689
2963.15	216.166
2964.45	209.699
2965.75	203.417
2967.05	196.011
2968.34	189.527
2969.64	183.331
2970.94	178.156
2972.24	172.348
2973.54	166.57
2974.84	161.221
2976.14	155.273
2977.43	149.047
2978.73	143.221
2980.03	137.159
2981.33	131.485
2982.62	125.644
2983.92	119.483
2985.22	113.065
2986.51	108.08
2987.81	102.9
2989.11	97.623
2990.4	92.2401
2991.7	87.0346
2992.99	82.5869
2994.29	78.1247
2995.58	73.807
2996.88	68.8588
2998.17	64.6443
2999.46	60.6048
3000.76	56.411
3002.05	53.3513
3003.34	49.8957
3004.64	46.4851
3005.93	43.474
3007.22	40.0725
3008.52	37.078
3009.81	34.0428
3011.1	31.4875
3012.39	29.0136
3013.68	25.835
3014.97	23.9546
3016.27	22.3148
3017.56	21.1724
3018.85	19.6758
3020.14	18.7559
3021.43	17.4563
3022.72	16.3926
3024.01	15.2878
3025.3	14.5107
3026.59	14.3364
3027.88	13.8034
3029.16	13.475
3030.45	12.8037
3031.74	12.7094
3033.03	13.455
3034.32	13.3451
3035.6	14.1832
3036.89	13.7513
3038.18	14.2185
3039.47	14.2524
3040.75	14.7222
3042.04	14.5001
3043.33	15.2755
3044.61	15.6521
3045.9	15.837
3047.18	16.4714
3048.47	16.6268
3049.75	17.2795
3051.04	17.8339
3052.32	17.4814
3053.61	17.5275
3054.89	17.1826
3056.18	17.1389
3057.46	17.1259
3058.74	16.567
3060.03	16.5647
3061.31	15.7699
3062.59	15.7383
3063.88	14.982
3065.16	14.4086
3066.44	13.7524
3067.72	12.8175
3069	12.0541
3070.29	11.194
3071.57	10.4192
3072.85	9.52176
3074.13	8.56974
3075.41	7.69667
3076.69	6.87792
3077.97	6.22801
3079.25	5.37233
3080.53	5.02313
3081.81	4.51202
3083.09	3.36491
3084.37	2.49781
3085.65	1.96249
3086.93	1.55766
3088.21	0.976724
3089.49	0.379778
3090.76	0.0721914
3092.04	-0.494354
3093.32	-0.960051
3094.6	-0.885398
3095.87	-0.643071
3097.15	-0.987403
3098.43	-1.32338
3099.7	-1.25659
3100.98	-1.6015
3102.26	-1.21682
3103.53	-0.98444
3104.81	-0.862683
3106.08	-0.602699
3107.36	0.13358
3108.63	0.396051
3109.91	0.377751
3111.18	1.50388
3112.46	1.81217
3113.73	2.74204
3115	3.05612
3116.28	3.48333
3117.55	4.00626
3118.83	4.6269
3120.1	5.565
3121.37	6.63316
3122.64	7.47348
3123.92	8.40856
3125.19	8.95202
3126.46	9.87275
3127.73	10.8324
3129	12.0293
3130.27	12.8042
3131.55	14.0806
3132.82	14.8031
3134.09	15.947
3135.36	16.9453
3136.63	18.0053
3137.9	19.3587
3139.17	20.8383
3140.44	22.1703
3141.71	23.4523
3142.98	24.536
3144.24	25.5373
3145.51	26.6635
3146.78	27.8083
3148.05	28.6618
3149.32	28.5777
