#Acq. time (s)=	45
#Accumulations=	2
#Range (cm-¹)=	200...3150
#Windows=	2
#Auto scanning=	Off
#Autofocus=	Off
#Macrospot=	Off
#AutoExposure=	Off
#Spike filter=	Multiple accum.
#Delay time (s)=	0
#Binning=	1
#Readout mode=	Signal
#DeNoise=	Off
#ICS correction=	On
#Dark correction=	Off
#Inst. Process=	Off
#Detector Gain=	Best Dynamic Range
#Detector ADC=	20 kHz       
#Detector temperature (°C)=	-69.85
#Instrument=	LabRAM HR Evol
#Detector=	Synapse
#Objective=	x100
#Grating=	600 gr/mm
#ND Filter=	100%
#Laser (nm)=	532 
#Hole=	100.021
#Range=	Auto
#Laser Pol.=	No
#Raman. Pol.=	No
#Laser Pol. (°)=	-0.0007625
#Raman Pol. (°)=	89.9995
#Collection=	Microscope
#StageXY=	Marzhauser
#StageZ=	Marzhauser
#X (µm)=	9025.6
#Y (µm)=	-3089.3
#Z (µm)=	-55.2
#Full time(mm:ss)=	3:05
#Project=	
#Sample=	
#Site=	
#Title=	Thy_00_07_14_2x_45s_532 nm_x100_100%_600 gr_mm
#Remark=	
#Date=	28.06.2022 11:06
#Acquired=	28.06.2022 11:06:46
#Base:Fit=	10.08.2022 10:06:44
#Base:Fit=	10.08.2022 10:07:16
#Base:Fit=	10.08.2022 10:07:25
#Base:Fit=	10.08.2022 10:07:44
#Base:Fit=	10.08.2022 10:07:56
#Base:Sub=	10.08.2022 10:08:40
#Filter:Polynom=	16.08.2022 10:26:06
#AxisType[0]=Intens
#AxisUnit[0]=Cnt
#AxisType[1]=Spectr
#AxisUnit[1]=1/cm
200.407	12.5314
202.221	14.7288
204.035	16.0574
205.849	16.7816
207.665	17.0153
209.478	17.4169
211.291	17.6163
213.104	17.7426
214.916	18.3606
216.73	18.238
218.541	18.8266
220.352	17.81
222.163	18.1117
223.973	17.706
225.785	16.2176
227.595	16.0807
229.404	16.3443
231.213	15.5254
233.022	14.3651
234.83	13.4032
236.638	12.9112
238.448	12.1617
240.255	11.9855
242.062	11.0778
243.868	10.9197
245.675	9.91899
247.48	8.93842
249.286	7.45148
251.091	5.80801
252.896	5.17059
254.702	4.45274
256.506	4.99723
258.31	5.1761
260.113	4.44958
261.916	3.23094
263.719	2.32508
265.521	2.71035
267.323	2.40587
269.125	2.34801
270.926	2.61286
272.727	2.96955
274.527	2.06844
276.328	1.35031
278.127	1.24963
279.927	1.33885
281.726	1.23834
283.525	1.09272
285.323	0.982818
287.121	1.70543
288.919	1.64801
290.716	0.964697
292.513	1.30143
294.31	1.90663
296.104	3.48686
297.9	4.59927
299.696	4.6421
301.491	4.99883
303.286	5.76003
305.081	6.59821
306.875	6.4814
308.669	7.34452
310.463	7.58633
312.256	8.56104
314.047	8.53815
315.839	9.26515
317.631	10.9165
319.423	11.7365
321.215	11.1154
323.006	11.3846
324.794	12.414
326.585	12.4362
328.375	12.6566
330.165	12.5103
331.954	12.5742
333.741	13.2312
335.53	12.264
337.318	12.3267
339.106	11.8277
340.894	10.9616
342.679	10.872
344.466	10.28
346.253	9.98711
348.039	9.50697
349.823	8.80466
351.608	8.179
353.393	7.84473
355.176	8.47322
356.961	7.91402
358.745	7.68484
360.529	6.45295
362.31	5.31816
364.093	4.56266
365.876	4.51863
367.657	4.9325
369.439	4.56057
371.221	3.76285
373	2.97543
374.781	2.6086
376.56	1.52914
378.34	1.0773
380.12	0.691511
381.898	1.44241
383.677	1.54001
385.456	1.70948
387.233	1.26395
389.011	1.56979
390.787	1.36747
392.565	1.71518
394.34	1.41325
396.117	1.46597
397.894	1.65985
399.668	2.18534
401.444	2.1934
403.217	1.77738
404.993	2.1052
406.766	2.51997
408.54	2.90798
410.312	1.94804
412.086	2.58071
413.858	2.94624
415.631	2.42633
417.402	3.59218
419.174	4.08909
420.944	4.94077
422.716	4.37339
424.486	4.16946
426.257	4.49375
428.025	3.97798
429.794	4.40227
431.564	5.01047
433.332	5.15828
435.101	5.24051
436.868	5.4404
438.637	5.1582
440.403	5.02738
442.169	5.24845
443.937	5.75059
445.703	5.82064
447.468	6.17025
449.234	6.1041
450.999	6.67817
452.765	7.07441
454.528	8.22023
456.292	7.96342
458.057	7.60399
459.819	7.85634
461.582	8.6363
463.344	9.26942
465.107	9.4764
466.868	10.015
468.629	9.56763
470.392	9.83789
472.152	11.1445
473.912	11.9561
475.672	12.3993
477.433	12.4267
479.192	12.1419
480.951	12.0785
482.709	12.3612
484.469	12.6661
486.226	12.1942
487.984	12.3377
489.74	12.4451
491.499	12.6967
493.255	13.9748
495.011	15.2367
496.767	15.5236
498.522	15.4188
500.277	16.0712
502.033	17.1621
503.788	16.775
505.541	17.6645
507.295	17.7177
509.048	18.2141
510.801	18.0435
512.553	19.0205
514.308	18.98
516.06	18.4593
517.811	19.2832
519.562	18.4619
521.313	18.066
523.063	17.885
524.814	17.5457
526.563	18.7578
528.313	19.2164
530.062	19.6157
531.811	19.4689
533.559	19.9244
535.308	19.7634
537.055	19.4557
538.803	19.8039
540.55	19.1084
542.297	18.9436
544.043	17.5022
545.789	17.914
547.535	17.4359
549.281	17.224
551.026	16.6663
552.771	15.5365
554.515	14.748
556.259	14.1476
558.003	13.5948
559.747	13.3352
561.49	11.8971
563.233	10.4915
564.975	9.71821
566.717	8.36334
568.459	6.64249
570.2	6.24496
571.942	5.15425
573.68	5.20939
575.421	4.21973
577.161	4.59895
578.901	3.86139
580.64	3.2636
582.379	2.92196
584.118	1.95878
585.855	1.61273
587.593	1.2763
589.331	1.4672
591.068	0.994939
592.805	1.97123
594.54	1.64344
596.277	1.35293
598.013	1.38058
599.749	1.38678
601.484	0.757177
603.217	1.00975
604.952	1.13754
606.687	1.02896
608.421	1.74875
610.153	1.93906
611.886	3.19647
613.619	4.88809
615.35	4.92499
617.083	5.30938
618.815	5.51045
620.547	6.49893
622.276	6.71256
624.008	8.02988
625.738	8.49616
627.467	8.47896
629.197	9.96515
630.927	10.1757
632.655	10.2306
634.384	10.2452
636.113	10.7094
637.839	10.8816
639.568	10.9543
641.293	11.8552
643.021	12.3882
644.748	13.4348
646.473	14.2661
648.2	14.5871
649.924	15.3526
651.65	16.4737
653.376	17.109
655.099	17.2752
656.824	17.9118
658.546	18.5393
660.271	18.8796
661.993	18.5047
663.716	19.8368
665.438	19.8993
667.161	19.6105
668.881	19.9391
670.604	19.8742
672.324	20.1438
674.045	20.6407
675.765	20.6265
677.486	21.1136
679.204	20.137
680.925	20.4565
682.643	21.0928
684.361	21.6036
686.08	21.3042
687.797	22.0216
689.516	22.923
691.232	22.9518
692.95	24.175
694.666	25.1075
696.382	24.9507
698.099	26.5283
699.813	26.9
701.528	26.6011
703.244	27.3247
704.958	27.8213
706.673	28.1697
708.387	28.564
710.099	29.601
711.814	29.6549
713.526	30.6332
715.238	31.5901
716.949	31.4484
718.663	31.5865
720.374	33.195
722.084	33.8551
723.796	35.4481
725.506	36.9995
727.216	38.2969
728.925	39.5713
730.636	41.384
732.345	42.164
734.053	42.6989
735.761	43.7826
737.471	44.4965
739.178	44.4718
740.885	44.9866
742.592	46.9125
744.298	48.4426
746.006	49.7683
747.712	51.6581
749.417	53.0604
751.122	54.6577
752.827	55.624
754.532	58.1295
756.236	59.7519
757.942	61.5159
759.645	62.5965
761.348	63.0049
763.051	64.6835
764.753	65.2199
766.456	67.68
768.158	67.9205
769.859	68.5337
771.56	69.6585
773.261	70.683
774.964	70.5633
776.664	71.2945
778.364	71.5256
780.064	71.9539
781.763	71.991
783.462	73.2764
785.16	73.8266
786.859	73.8057
788.557	74.6531
790.255	75.2083
791.952	75.2786
793.649	76.2535
795.346	77.2156
797.042	76.6593
798.738	76.4346
800.434	76.7268
802.127	75.9233
803.823	75.6578
805.517	76.2801
807.212	75.5114
808.906	75.7926
810.6	75.7642
812.293	75.1689
813.987	74.9123
815.68	74.3366
817.372	74.292
819.064	73.621
820.754	73.5222
822.446	72.9536
824.137	73.3626
825.828	74.751
827.519	74.802
829.209	75.2051
830.897	75.4377
832.587	75.0237
834.276	74.9191
835.966	75.9352
837.654	75.0791
839.341	74.9292
841.029	73.3183
842.717	71.5911
844.404	70.4583
846.091	69.4871
847.776	69.1135
849.463	67.5642
851.149	66.2209
852.833	64.7187
854.519	64.0825
856.204	62.9948
857.889	62.392
859.572	60.9798
861.256	60.8117
862.94	60.5067
864.622	60.2229
866.305	59.3555
867.988	58.671
869.669	58.3305
871.351	58.3073
873.033	57.8555
874.713	56.9959
876.395	56.341
878.074	56.236
879.755	54.4316
881.435	53.1393
883.114	52.91
884.794	52.1196
886.471	49.958
888.15	49.6632
889.829	48.2862
891.506	46.9492
893.184	46.4336
894.861	46.0864
896.538	45.4943
898.214	45.3088
899.891	44.9281
901.566	45.5257
903.242	43.6749
904.916	43.694
906.592	43.4575
908.266	43.6614
909.941	43.996
911.614	43.1267
913.288	43.4653
914.961	42.7259
916.635	42.8353
918.306	43.2533
919.979	43.1699
921.651	41.278
923.321	40.9702
924.994	40.3503
926.664	39.4915
928.336	40.3058
930.005	40.4341
931.674	40.5702
933.345	40.8785
935.014	40.6175
936.682	41.9901
938.352	42.4861
940.019	42.8242
941.687	43.4537
943.356	43.5184
945.022	44.4297
946.689	45.5721
948.357	44.6772
950.022	46.0706
951.688	47.5311
953.355	48.8859
955.02	49.0903
956.684	48.2613
958.348	47.6097
960.014	46.5858
961.678	45.5024
963.341	45.8686
965.004	47.6655
966.669	49.3918
968.331	49.9738
969.993	51.3562
971.655	53.0642
973.316	53.9886
974.979	55.5474
976.64	56.392
978.3	57.5462
979.961	57.803
981.62	57.8613
983.28	58.852
984.941	59.077
986.6	58.652
988.259	59.0022
989.917	57.9329
991.575	58.2186
993.233	57.4312
994.89	56.521
996.547	56.4934
998.204	55.4412
999.86	55.5381
1001.52	55.6254
1003.17	54.9865
1004.83	54.2009
1006.49	54.0346
1008.14	54.2412
1009.79	53.7253
1011.45	54.0833
1013.1	53.4014
1014.76	52.2847
1016.41	51.4927
1018.06	50.1531
1019.72	49.647
1021.37	48.4145
1023.02	46.5592
1024.67	45.3536
1026.32	43.7437
1027.97	42.4511
1029.62	41.5919
1031.27	39.4064
1032.92	38.7987
1034.57	37.4385
1036.22	35.5704
1037.87	34.4672
1039.52	32.6574
1041.17	30.8105
1042.82	30.9647
1044.47	31.8116
1046.11	32.8143
1047.76	33.3013
1049.41	32.8834
1051.06	31.2862
1052.7	30.9915
1054.35	29.8322
1055.99	28.5667
1057.64	27.1814
1059.28	26.0809
1060.93	25.1984
1062.57	24.1156
1064.22	24.3082
1065.86	23.8022
1067.5	22.3632
1069.15	21.5506
1070.79	20.5496
1072.43	20.7634
1074.08	21.6137
1075.72	20.7038
1077.36	21.1593
1079	20.9908
1080.64	21.3662
1082.28	21.9997
1083.92	22.205
1085.56	21.7559
1087.2	22.5736
1088.84	22.8978
1090.48	23.341
1092.12	23.5842
1093.76	23.408
1095.39	23.6448
1097.03	24.2847
1098.67	25.0395
1100.31	25.305
1101.94	25.0792
1103.58	24.9823
1105.22	24.5946
1106.85	25.145
1108.49	25.0822
1110.12	25.335
1111.76	25.0934
1113.39	24.3297
1115.03	24.5299
1116.66	24.796
1118.29	24.3578
1119.93	23.9662
1121.56	21.6881
1123.19	20.7341
1124.82	20.9892
1126.46	18.8023
1128.09	17.8736
1129.72	17.4226
1131.35	15.4336
1132.98	14.6436
1134.61	14.3736
1136.24	13.2718
1137.87	12.3628
1139.5	11.8812
1141.13	11.1568
1142.76	10.826
1144.39	10.3482
1146.01	9.3478
1147.64	8.22618
1149.27	7.93235
1150.9	7.37162
1152.53	6.74602
1154.15	6.9359
1155.78	5.9003
1157.4	3.89249
1159.03	3.62854
1160.65	2.82102
1162.28	2.54041
1163.9	1.89911
1165.53	1.67727
1167.15	1.59023
1168.78	2.0581
1170.4	2.55562
1172.02	3.44773
1173.65	4.70104
1175.27	5.17895
1176.89	6.7401
1178.51	8.56944
1180.14	8.73244
1181.76	9.59917
1183.38	10.4279
1185	12.1181
1186.62	13.6159
1188.24	14.7891
1189.86	15.334
1191.48	17.0624
1193.1	18.7914
1194.71	20.3615
1196.33	22.1849
1197.95	22.9113
1199.57	24.156
1201.19	25.8277
1202.8	26.7252
1204.42	29.0898
1206.04	31.0899
1207.65	32.6637
1209.27	36.2074
1210.88	38.4054
1212.5	39.6228
1214.12	41.9684
1215.73	43.8754
1217.35	45.6092
1218.96	47.8495
1220.57	49.6708
1222.19	51.4755
1223.8	54.1554
1225.41	55.9774
1227.03	57.3023
1228.64	59.9341
1230.25	61.7646
1231.86	62.4415
1233.47	63.6037
1235.08	64.4565
1236.69	64.8985
1238.31	65.0442
1239.92	65.5943
1241.52	65.6573
1243.13	66.8608
1244.74	67.2309
1246.35	67.688
1247.96	68.2777
1249.57	69.0322
1251.18	69.2063
1252.78	69.6256
1254.39	69.6952
1256	70.0522
1257.6	69.6041
1259.21	69.62
1260.82	69.2319
1262.42	69.1334
1264.03	69.0414
1265.63	69.1315
1267.24	69.3063
1268.84	68.7863
1270.45	68.86
1272.05	68.7991
1273.65	67.8458
1275.26	67.0326
1276.86	66.5423
1278.46	66.6937
1280.06	68.4079
1281.67	69.9193
1283.27	69.2861
1284.87	70.0626
1286.47	70.6915
1288.07	71.3487
1289.67	71.9305
1291.27	71.9928
1292.87	72.5415
1294.47	74.5262
1296.07	76.0756
1297.67	77.5186
1299.27	79.3456
1300.87	79.5892
1302.47	80.6839
1304.06	82.2847
1305.66	83.7806
1307.26	85.2185
1308.85	86.8989
1310.45	88.3563
1312.05	88.75
1313.64	89.8923
1315.24	90.8917
1316.83	92.6464
1318.43	93.5051
1320.02	93.8512
1321.62	94.2917
1323.21	94.3724
1324.8	93.4663
1326.4	94.0349
1327.99	93.4706
1329.59	93.3709
1331.18	93.2522
1332.77	93.1291
1334.36	93.0559
1335.95	92.1009
1337.54	91.1011
1339.14	90.5919
1340.73	89.8411
1342.32	88.4673
1343.91	87.7845
1345.5	87.0771
1347.09	85.2631
1348.67	82.5704
1350.26	80.4492
1351.85	78.4815
1353.44	77.189
1355.03	75.5876
1356.62	74.2877
1358.2	72.841
1359.79	71.5033
1361.38	69.3108
1362.96	66.4015
1364.55	65.2572
1366.14	63.4989
1367.72	61.6092
1369.31	60.463
1370.89	58.8005
1372.48	57.4291
1374.06	56.641
1375.64	55.56
1377.23	53.7854
1378.81	52.1131
1380.39	50.5242
1381.98	50.4951
1383.56	50.1081
1385.14	49.7638
1386.72	48.9521
1388.3	48.9613
1389.89	48.791
1391.47	46.7473
1393.05	46.361
1394.63	45.7094
1396.21	44.5763
1397.79	43.0162
1399.37	41.8715
1400.95	41.6003
1402.52	41.7618
1404.1	42.2629
1405.68	42.9061
1407.26	43.9208
1408.84	46.2573
1410.42	48.1097
1411.99	49.43
1413.57	51.7298
1415.15	53.145
1416.72	55.9324
1418.3	58.3498
1419.87	61.5023
1421.45	64.9729
1423.02	68.4574
1424.6	72.3576
1426.17	75.2352
1427.75	79.313
1429.32	83.152
1430.89	87.7962
1432.47	91.5113
1434.04	95.2062
1435.61	98.1541
1437.18	101.571
1438.76	105.076
1440.33	107.275
1441.9	109.71
1443.47	112.169
1445.04	113.941
1446.61	115.453
1448.18	116.505
1449.75	116.767
1451.32	117.226
1452.89	116.704
1454.46	115.764
1456.03	114.645
1457.6	113.285
1459.16	111.511
1460.73	109.888
1462.3	106.991
1463.87	104.142
1465.43	101.025
1467	97.0597
1468.56	91.9189
1470.13	86.8506
1471.7	82.7622
1473.26	77.1677
1474.83	72.5013
1476.39	67.5829
1477.96	63.2434
1479.52	58.7623
1481.08	54.9782
1482.65	51.0616
1484.21	47.287
1485.77	43.7126
1487.34	40.0648
1488.9	36.1964
1490.46	32.9143
1492.02	30.6064
1493.58	27.9833
1495.15	26.072
1496.71	24.3278
1498.27	22.7126
1499.83	21.8193
1501.39	21.1021
1502.95	20.6596
1504.51	19.8077
1506.07	19.1683
1507.63	18.5567
1509.18	18.4583
1510.74	17.4804
1512.3	17.587
1513.86	16.9268
1515.41	17.7868
1516.97	18.1061
1518.53	18.4821
1520.08	18.921
1521.64	19.6573
1523.2	20.2305
1524.75	20.8844
1526.31	21.4821
1527.86	22.779
1529.42	24.0598
1530.97	25.7564
1532.52	27.8681
1534.08	29.1588
1535.63	29.5399
1537.19	30.5824
1538.74	31.8492
1540.29	32.6922
1541.84	34.0854
1543.4	34.7872
1544.95	35.8749
1546.5	37.0389
1548.05	38.8659
1549.6	40.1389
1551.15	41.548
1552.7	43.8876
1554.25	45.159
1555.8	46.8768
1557.35	48.7041
1558.9	50.3501
1560.45	51.3075
1562	52.4393
1563.54	53.3834
1565.09	55.1895
1566.64	57.0255
1568.19	58.9868
1569.73	61.2991
1571.28	62.2394
1572.83	64.1726
1574.37	65.6152
1575.92	67.607
1577.47	70.455
1579.01	72.359
1580.56	73.7841
1582.1	75.2616
1583.64	77.1443
1585.19	79.1569
1586.73	80.4925
1588.28	81.7014
1589.82	83.6267
1591.36	84.3366
1592.9	85.3884
1594.45	85.8537
1595.99	85.9781
1597.53	86.5083
1599.07	87.2603
1600.61	87.3198
1602.15	87.2729
1603.69	87.286
1605.23	87.0738
1606.77	85.9716
1608.31	85.3928
1609.85	84.1073
1611.39	82.9184
1612.93	81.4107
1614.47	80.7647
1616.01	79.9172
1617.55	79.2678
1619.08	78.8121
1620.62	78.4384
1622.16	78.1543
1623.7	77.9039
1625.23	77.8808
1626.77	77.1854
1628.3	77.3235
1629.84	77.2563
1631.37	77.2153
1632.91	77.5589
1634.44	77.9337
1635.98	78.2169
1637.51	79.1461
1639.05	80.0503
1640.58	80.5601
1642.11	82.222
1643.65	84.439
1645.18	86.4816
1646.71	88.0846
1648.24	89.8433
1649.78	91.8016
1651.31	93.2278
1652.84	95.5813
1654.37	97.4842
1655.9	98.3696
1657.43	99.7026
1658.96	100.944
1660.49	102.082
1662.02	101.765
1663.55	102.009
1665.08	101.78
1666.61	101.648
1668.14	100.269
1669.66	99.353
1671.19	98.2023
1672.72	96.5818
1674.25	95.3937
1675.77	92.575
1677.3	90.0976
1678.83	87.1595
1680.35	84.257
1681.88	80.917
1683.4	77.747
1684.93	75.2491
1686.45	71.9594
1687.98	68.838
1689.5	64.9093
1691.03	61.791
1692.55	58.9359
1694.07	55.9636
1695.6	53.3299
1697.12	50.1607
1698.64	46.8159
1700.17	44.362
1701.69	41.4867
1703.21	39.4682
1704.73	36.9267
1706.25	34.3236
1707.77	31.663
1709.29	29.1423
1710.81	27.0988
1712.33	25.3138
1713.85	23.5493
1715.37	21.9981
1716.89	20.6839
1718.41	20.2254
1719.93	19.3843
1721.45	18.4971
1722.97	17.7794
1724.49	17.2174
1726	16.3667
1727.52	16.2436
1729.04	16.2537
1730.55	15.635
1732.07	15.1747
1733.59	14.5906
1735.1	13.8608
1736.62	13.5656
1738.13	12.991
1739.65	13.3077
1741.16	12.6887
1742.68	12.7058
1744.19	11.6978
1745.7	11.009
1747.22	10.4869
1748.73	9.51758
1750.24	9.1898
1751.76	8.26599
1753.27	8.65518
1754.78	7.66137
1756.29	7.30728
1757.8	6.86516
1759.31	6.81891
1760.83	6.9103
1762.34	6.84056
1763.85	6.60432
1765.36	5.9072
1766.87	5.6139
1768.38	5.53459
1769.89	5.47937
1771.39	5.59561
1772.9	5.09299
1774.41	4.34371
1775.92	4.07163
1777.43	3.64202
1778.94	3.19289
1780.44	2.15456
1781.95	2.29581
1783.46	1.75464
1784.96	1.96026
1786.47	1.69732
1787.97	1.82083
1789.48	2.01793
1790.99	2.18599
1792.49	1.65847
1794	2.18308
1795.5	1.9902
1797	2.36849
1798.51	2.50937
1800.01	2.2605
1801.51	1.9879
1803.02	1.76187
1804.52	1.99676
1806.02	2.19921
1807.53	2.2484
1809.03	1.99152
1810.53	2.59001
1812.03	3.07797
1813.53	3.06456
1815.03	3.08695
1816.53	3.02981
1818.03	2.91854
1819.53	2.36367
1821.03	2.65615
1822.53	3.05379
1824.03	3.13183
1825.53	3.58509
1827.03	3.93748
1828.53	3.83434
1830.02	3.27211
1831.52	3.52255
1833.02	4.34029
1834.52	4.51563
1836.01	4.08442
1837.51	4.22461
1839.01	4.19849
1840.5	3.66763
1842	3.79328
1843.49	3.82322
1844.99	3.37982
1846.48	2.48712
1847.98	1.89333
1849.47	1.26613
1850.97	1.56189
1852.46	1.4546
1853.95	1.16484
1855.45	1.38052
1856.94	1.46182
1858.43	1.58314
1859.93	1.39776
1861.42	1.25157
1862.91	1.05433
1864.4	0.206145
1865.89	0.525247
1867.38	0.403125
1868.87	0.968601
1870.36	0.61202
1871.85	1.22909
1873.34	1.07012
1874.83	1.22416
1876.32	1.58842
1877.81	2.03904
1879.3	2.61163
1880.79	2.14492
1882.28	2.1885
1882.52	2.66042
1884.02	2.71178
1885.51	2.97334
1887.01	3.27531
1888.5	3.35528
1889.99	3.53219
1891.49	3.78763
1892.98	3.97218
1894.47	4.54579
1895.97	4.20012
1897.46	4.52862
1898.95	4.37863
1900.44	4.33901
1901.93	4.26555
1903.42	4.79169
1904.91	4.48041
1906.4	4.52958
1907.89	3.50994
1909.38	3.0614
1910.87	3.31192
1912.36	2.70545
1913.85	2.24191
1915.34	2.00275
1916.83	1.58119
1918.32	1.57184
1919.8	1.95469
1921.29	2.99651
1922.78	3.40792
1924.27	4.03593
1925.75	3.67334
1927.24	4.07362
1928.73	4.07619
1930.21	3.69143
1931.7	3.7812
1933.18	3.47362
1934.67	3.11079
1936.15	3.17754
1937.64	3.8878
1939.12	4.96655
1940.61	4.78082
1942.09	4.58402
1943.57	4.18367
1945.06	4.35297
1946.54	4.17058
1948.02	4.80001
1949.51	5.0089
1950.99	5.40021
1952.47	5.38388
1953.95	4.70335
1955.43	5.76934
1956.91	6.10346
1958.4	5.98171
1959.88	6.62589
1961.36	6.70551
1962.84	6.82496
1964.32	7.1188
1965.8	7.46375
1967.27	7.66858
1968.75	7.80512
1970.23	7.54922
1971.71	7.36699
1973.19	6.86604
1974.67	6.53937
1976.14	6.77631
1977.62	6.18847
1979.1	5.34997
1980.58	5.61317
1982.05	4.57044
1983.53	4.04479
1985	4.16928
1986.48	4.68662
1987.95	4.55332
1989.43	4.14432
1990.9	4.28932
1992.38	4.78193
1993.85	5.02704
1995.33	5.04553
1996.8	4.18853
1998.27	3.94281
1999.75	3.27428
2001.22	3.07469
2002.69	2.01876
2004.16	2.11138
2005.64	2.48658
2007.11	2.36336
2008.58	1.67469
2010.05	1.92001
2011.52	2.22615
2012.99	2.3576
2014.46	1.62633
2015.93	2.30103
2017.4	2.53282
2018.87	2.53994
2020.34	3.38854
2021.81	4.57261
2023.28	4.30233
2024.75	4.47291
2026.22	4.33077
2027.69	4.80033
2029.15	5.92543
2030.62	6.39004
2032.09	6.71623
2033.56	6.8396
2035.02	6.64006
2036.49	6.21981
2037.96	6.5093
2039.42	6.84683
2040.89	6.59807
2042.35	6.28544
2043.82	6.11725
2045.28	5.56442
2046.75	5.79688
2048.21	6.01743
2049.67	5.84334
2051.14	5.11595
2052.6	5.16903
2054.07	5.22134
2055.53	4.24096
2056.99	4.43787
2058.45	4.52716
2059.92	5.31147
2061.38	4.72412
2062.84	5.37523
2064.3	6.36846
2065.76	6.65028
2067.22	6.52772
2068.68	6.53167
2070.14	5.95987
2071.6	6.20668
2073.06	5.90776
2074.52	6.31153
2075.98	7.13259
2077.44	8.0169
2078.9	8.02282
2080.36	7.60407
2081.82	7.58226
2083.27	8.3379
2084.73	8.10911
2086.19	7.88559
2087.65	7.66402
2089.1	8.49803
2090.56	8.64281
2092.02	8.59541
2093.47	8.9995
2094.93	8.68139
2096.38	7.72324
2097.84	7.44439
2099.29	7.35377
2100.75	7.09148
2102.2	6.85841
2103.66	6.89297
2105.11	5.94937
2106.56	5.14798
2108.02	4.75898
2109.47	5.00804
2110.92	5.02031
2112.38	4.33473
2113.83	4.06432
2115.28	4.32871
2116.73	4.22298
2118.18	3.93121
2119.63	3.72827
2121.09	3.23344
2122.54	2.7433
2123.99	2.84667
2125.44	2.88069
2126.89	2.92141
2128.34	2.64564
2129.79	2.86959
2131.23	3.15031
2132.68	3.93293
2134.13	3.56611
2135.58	3.84102
2137.03	3.74297
2138.48	3.54075
2139.92	3.71937
2141.37	3.6383
2142.82	3.50307
2144.27	4.59595
2145.71	5.28359
2147.16	5.76018
2148.6	5.56305
2150.05	5.28307
2151.49	5.43837
2152.94	5.45204
2154.38	5.56434
2155.83	5.72076
2157.27	5.6352
2158.72	6.49742
2160.16	6.78539
2161.6	7.32727
2163.05	7.46964
2164.49	6.65864
2165.93	6.68249
2167.38	6.1194
2168.82	5.54649
2170.26	5.19511
2171.7	5.21782
2173.14	5.05929
2174.58	4.90062
2176.03	5.22299
2177.47	4.85589
2178.91	4.99119
2180.35	5.49562
2181.79	5.60662
2183.23	5.31461
2184.67	5.19263
2186.1	5.46306
2187.54	5.28251
2188.98	4.18332
2190.42	3.96797
2191.86	3.61136
2193.3	3.64763
2194.73	3.72522
2196.17	3.20327
2197.61	2.37933
2199.05	2.26445
2200.48	2.1369
2201.92	2.48675
2203.35	2.94507
2204.79	3.20395
2206.22	3.08829
2207.66	2.72587
2209.1	2.74342
2210.53	2.83403
2211.97	3.05134
2213.4	3.28477
2214.83	3.71562
2216.27	4.08899
2217.7	4.68879
2219.13	5.03617
2220.57	5.42625
2222	6.21051
2223.43	6.68206
2224.86	6.38736
2226.29	6.97462
2227.72	7.24953
2229.16	7.01251
2230.59	7.05325
2232.02	6.64417
2233.45	7.14485
2234.88	6.91858
2236.31	6.96707
2237.74	6.50787
2239.17	6.17073
2240.6	6.6757
2242.03	7.22216
2243.45	7.78369
2244.88	7.74755
2246.31	7.94279
2247.74	8.40768
2249.17	8.27617
2250.59	8.50343
2252.02	8.726
2253.45	8.39283
2254.87	8.53856
2256.3	7.97415
2257.73	7.34845
2259.15	7.18431
2260.58	6.77891
2262	7.04668
2263.43	7.22269
2264.85	6.94603
2266.28	6.32012
2267.7	5.46982
2269.13	5.42619
2270.55	5.87766
2271.97	6.33943
2273.4	6.55738
2274.82	6.05807
2276.24	6.03522
2277.67	6.18101
2279.09	6.25948
2280.51	6.13781
2281.93	6.30378
2283.35	6.72438
2284.77	6.34444
2286.2	6.18864
2287.62	6.21233
2289.04	6.57201
2290.46	5.87532
2291.88	5.11844
2293.3	4.50085
2294.72	3.93722
2296.13	3.76365
2297.55	3.80801
2298.97	4.19436
2300.39	4.73
2301.81	5.10527
2303.23	5.38252
2304.64	6.03546
2306.06	6.27181
2307.48	6.79238
2308.89	6.43696
2310.31	6.61383
2311.73	6.95213
2313.14	7.39752
2314.56	6.5062
2315.98	5.86236
2317.39	6.36575
2318.81	6.45574
2320.22	6.28255
2321.64	6.71513
2323.05	6.39181
2324.46	5.85153
2325.88	5.76347
2327.29	5.1472
2328.7	4.80397
2330.12	4.92248
2331.53	4.83391
2332.94	4.54667
2334.35	4.64204
2335.77	4.30191
2337.18	4.00588
2338.59	3.92182
2340	4.0895
2341.41	4.7229
2342.82	4.85624
2344.23	5.12181
2345.64	4.75458
2347.05	4.93848
2348.46	4.60013
2349.87	3.33539
2351.28	2.45904
2352.69	2.64308
2354.1	2.40475
2355.51	1.69811
2356.91	1.2225
2358.32	0.88771
2359.73	0.612211
2361.14	-0.0576491
2362.54	0.13819
2363.95	0.60996
2365.36	1.05306
2366.76	1.83699
2368.17	1.78504
2369.58	2.30473
2370.98	1.57087
2372.39	1.43072
2373.79	1.46306
2375.2	1.26488
2376.6	1.30161
2378	1.42414
2379.41	1.22199
2380.81	1.38273
2382.22	1.46841
2383.62	1.16351
2385.02	0.702071
2386.43	1.39239
2387.83	1.38373
2389.23	0.799777
2390.63	0.684552
2392.03	1.17825
2393.44	1.13325
2394.84	1.67854
2396.24	2.355
2397.64	1.82714
2399.04	2.28161
2400.44	2.75663
2401.84	3.50918
2403.24	4.04356
2404.64	4.66191
2406.04	5.08736
2407.44	5.93368
2408.84	6.6465
2410.23	7.31171
2411.63	8.03163
2413.03	8.03769
2414.43	8.48534
2415.83	8.05428
2417.22	8.53379
2418.62	8.67171
2420.02	8.49442
2421.41	8.65357
2422.81	8.70715
2424.21	8.91243
2425.6	9.03243
2427	8.8093
2428.39	8.87122
2429.79	8.4445
2431.18	8.14514
2432.58	8.79514
2433.97	8.35157
2435.36	7.41921
2436.76	7.01688
2438.15	6.32741
2439.54	5.99268
2440.94	5.85034
2442.33	5.3792
2443.72	4.67983
2445.12	4.20097
2446.51	3.88188
2447.9	3.80233
2449.29	3.02592
2450.68	2.45157
2452.07	1.60744
2453.46	1.00457
2454.85	0.90668
2456.24	1.01719
2457.64	0.456567
2459.02	0.600192
2460.41	1.0764
2461.8	1.08961
2463.19	1.12557
2464.58	1.37547
2465.97	1.18327
2467.36	1.68693
2468.75	2.26849
2470.13	2.17838
2471.52	1.87736
2472.91	2.22227
2474.3	2.17028
2475.68	2.84871
2477.07	2.99567
2478.45	2.71738
2479.84	2.46793
2481.23	2.51789
2482.61	2.75954
2484	2.48868
2485.38	2.28616
2486.77	2.61825
2488.15	3.12459
2489.54	2.86156
2490.92	2.72475
2492.3	2.67003
2493.69	3.07292
2495.07	2.87253
2496.45	2.11677
2497.84	1.8897
2499.22	1.49658
2500.6	2.37308
2501.98	2.08544
2503.36	1.47999
2504.75	1.25516
2506.13	1.8997
2507.51	1.80999
2508.89	1.34642
2510.27	1.37925
2511.65	0.806055
2513.03	1.12418
2514.41	0.771659
2515.79	0.995904
2517.17	1.14786
2518.55	1.136
2519.93	1.90337
2521.3	2.01846
2522.68	2.46006
2524.06	2.709
2525.44	2.88389
2526.82	2.56376
2528.19	2.94875
2529.57	3.07848
2530.95	3.71614
2532.32	3.73049
2533.7	3.84245
2535.08	3.3121
2536.45	3.90539
2537.83	3.21653
2539.2	3.49512
2540.58	3.51207
2541.95	3.80651
2543.33	3.86564
2544.7	3.94935
2546.08	3.67377
2547.45	3.91619
2548.82	3.80312
2550.2	3.91414
2551.57	3.43952
2552.94	3.31218
2554.32	3.97289
2555.69	3.8048
2557.06	4.41844
2558.43	3.55298
2559.8	3.80366
2561.18	3.73811
2562.55	4.05228
2563.92	3.79717
2565.29	3.66092
2566.66	4.19752
2568.03	4.37529
2569.4	4.64373
2570.77	4.52913
2572.14	5.35792
2573.51	5.51262
2574.88	5.78293
2576.25	5.17541
2577.61	4.63202
2578.98	4.7861
2580.35	4.36214
2581.72	4.37046
2583.09	4.23871
2584.45	4.93257
2585.82	4.96336
2587.19	4.9175
2588.55	5.05953
2589.92	4.69155
2591.29	4.24994
2592.65	4.20038
2594.02	4.58593
2595.38	4.4375
2596.75	4.9816
2598.11	4.57467
2599.48	4.61847
2600.84	3.91573
2602.21	4.45679
2603.57	4.43911
2604.93	5.0337
2606.3	4.75229
2607.66	5.06854
2609.02	5.00904
2610.39	4.68341
2611.75	4.6954
2613.11	4.40796
2614.47	5.22371
2615.83	5.22867
2617.19	5.38641
2618.56	5.90163
2619.92	5.73932
2621.28	6.50005
2622.64	6.58566
2624	6.3595
2625.36	7.25419
2626.72	7.0307
2628.08	7.493
2629.44	7.2814
2630.8	7.70881
2632.15	7.99823
2633.51	8.59467
2634.87	9.02444
2636.23	9.15667
2637.59	9.75045
2638.94	10.3465
2640.3	9.9001
2641.66	9.48371
2643.02	9.28128
2644.37	8.78022
2645.73	8.69582
2647.09	9.05485
2648.44	8.85705
2649.8	9.17355
2651.15	9.45235
2652.51	9.51383
2653.86	9.16354
2655.22	9.27586
2656.57	9.05138
2657.93	8.76105
2659.28	9.129
2660.63	9.38509
2661.99	9.3145
2663.34	9.39589
2664.69	9.42795
2666.05	9.02832
2667.4	9.06945
2668.75	9.1575
2670.1	9.16574
2671.45	9.34839
2672.81	9.73155
2674.16	9.89713
2675.51	9.6748
2676.86	9.10124
2678.21	8.84923
2679.56	9.27758
2680.91	9.86655
2682.26	10.2058
2683.61	9.67645
2684.96	9.77397
2686.31	9.88488
2687.66	9.06799
2689	9.31254
2690.35	9.15452
2691.7	8.75775
2693.05	9.17306
2694.4	9.33296
2695.74	9.26156
2697.09	9.41015
2698.44	9.94788
2699.79	9.91179
2701.13	10.0111
2702.48	9.81142
2703.83	9.64211
2705.17	10.1097
2706.52	10.015
2707.86	9.91954
2709.21	10.0774
2710.55	10.5895
2711.9	10.7458
2713.24	11.548
2714.58	12.1227
2715.93	12.2902
2717.27	13.0212
2718.62	13.2297
2719.96	13.5576
2721.3	13.6333
2722.65	14.4476
2723.99	14.8037
2725.33	15.5757
2726.67	15.943
2728.01	15.5176
2729.35	15.4706
2730.7	15.5619
2732.04	15.0596
2733.38	14.9177
2734.72	15.0686
2736.06	15.4622
2737.4	15.4284
2738.74	15.6332
2740.08	15.2814
2741.42	15.0375
2742.76	14.5877
2744.1	14.5815
2745.43	14.5199
2746.77	14.4552
2748.11	14.078
2749.45	13.4771
2750.79	13.5278
2752.12	13.2961
2753.46	13.015
2754.8	12.2837
2756.14	12.057
2757.47	11.2649
2758.81	10.6102
2760.14	10.9167
2761.48	10.0239
2762.81	9.20018
2764.15	8.49073
2765.49	7.97848
2766.82	6.90576
2768.16	6.74825
2769.49	6.49039
2770.82	6.69025
2772.16	6.76212
2773.49	6.04272
2774.82	5.63586
2776.16	5.50439
2777.49	5.45034
2778.82	4.92646
2780.16	4.8534
2781.49	4.60078
2782.82	4.3865
2784.15	3.85771
2785.48	2.97726
2786.82	3.05933
2788.15	3.38778
2789.48	3.49371
2790.81	2.5718
2792.14	1.58901
2793.47	0.824363
2794.8	0.448548
2796.13	0.360415
2797.46	0.430684
2798.79	0.924508
2800.12	0.717041
2801.44	1.45103
2802.77	1.56082
2804.1	1.6492
2805.43	1.66282
2806.76	1.54953
2808.08	1.51114
2809.41	0.981446
2810.74	1.26614
2812.07	1.44753
2813.39	1.75097
2814.72	1.87046
2816.05	2.07851
2817.37	3.0887
2818.7	3.56428
2820.02	4.97211
2821.35	6.63793
2822.67	7.65144
2824	9.28197
2825.32	11.5435
2826.65	13.5758
2827.97	15.6752
2829.3	18.4362
2830.62	20.9332
2831.94	23.3988
2833.26	26.2249
2834.59	29.89
2835.91	32.9964
2837.23	36.1221
2838.56	38.9985
2839.88	42.9716
2841.2	46.8854
2842.52	51.5926
2843.84	56.4898
2845.16	61.5611
2846.48	67.2705
2847.8	73.9843
2849.12	79.9812
2850.45	86.1034
2851.77	92.9908
2853.08	100.619
2854.4	107.424
2855.72	113.778
2857.04	120.061
2858.36	127.189
2859.68	134.67
2861	141.546
2862.32	148.348
2863.63	154.152
2864.95	160.518
2866.27	165.835
2867.59	171.892
2868.9	177.297
2870.22	181.958
2871.54	186.312
2872.85	190.606
2874.17	194.693
2875.48	198.944
2876.8	202.926
2878.11	206.667
2879.43	209.877
2880.74	213.189
2882.06	216.866
2883.37	219.882
2884.69	222.52
2886	225.76
2887.31	227.836
2888.63	230.305
2889.94	233.017
2891.25	236.269
2892.57	239.311
2893.88	242.46
2895.19	245.882
2896.5	248.175
2897.82	251.66
2899.13	255.956
2900.44	259.887
2901.75	264.726
2903.06	269.837
2904.37	275.463
2905.68	282.407
2906.99	289.208
2908.3	297.321
2909.61	304.727
2910.92	312.277
2912.23	320.438
2913.54	329.065
2914.85	336.433
2916.16	344.161
2917.46	351.397
2918.77	358.657
2920.08	365.223
2921.39	371.218
2922.7	376.473
2924	381.897
2925.31	386.001
2926.62	389.703
2927.92	392.285
2929.23	393.882
2930.54	395.623
2931.84	395.335
2933.15	395.362
2934.45	394.034
2935.76	392.042
2937.06	389.777
2938.37	386.669
2939.67	382.877
2940.98	378.155
2942.28	373.157
2943.58	367.979
2944.89	361.677
2946.19	355.104
2947.49	348.02
2948.8	340.726
2950.1	334.224
2951.4	328.059
2952.7	321.262
2954.01	314.34
2955.31	307.101
2956.61	300.934
2957.91	293.436
2959.21	286.207
2960.51	279.199
2961.81	271.913
2963.11	266.652
2964.41	259.821
2965.71	253.74
2967.01	248.026
2968.31	241.941
2969.61	236.577
2970.91	232.036
2972.21	227.361
2973.51	221.626
2974.81	216.256
2976.1	211.396
2977.4	206.111
2978.7	201.084
2980	195.37
2981.29	189.265
2982.59	183.337
2983.89	177.512
2985.18	171.187
2986.48	164.68
2987.78	158.177
2989.07	151.971
2990.37	144.986
2991.66	138.794
2992.96	132.152
2994.25	125.432
2995.55	119.103
2996.84	111.96
2998.14	106.169
2999.43	99.4566
3000.73	93.2396
3002.02	86.767
3003.31	80.4898
3004.61	74.5983
3005.9	68.9076
3007.19	63.9483
3008.48	59.0867
3009.77	54.5852
3011.07	50.4352
3012.36	46.9616
3013.65	43.8856
3014.94	40.7084
3016.23	37.2325
3017.52	33.9217
3018.81	30.9857
3020.1	29.5516
3021.4	27.5899
3022.68	25.4713
3023.97	23.8265
3025.26	22.3498
3026.55	21.3239
3027.84	20.1423
3029.13	18.5819
3030.42	18.5936
3031.71	18.2379
3033	18.6423
3034.28	19.1858
3035.57	19.9652
3036.86	20.0732
3038.15	20.0264
3039.43	21.2829
3040.72	21.9
3042.01	22.8065
3043.29	24.3802
3044.58	25.3207
3045.87	25.8455
3047.15	26.5792
3048.44	26.9644
3049.72	28.0835
3051.01	29.3779
3052.29	30.0493
3053.58	30.986
3054.86	31.5573
3056.15	31.8513
3057.43	31.7462
3058.71	31.0494
3060	30.9872
3061.28	30.5863
3062.56	30.082
3063.84	29.2219
3065.13	28.264
3066.41	27.6417
3067.69	26.761
3068.97	26.2864
3070.26	25.7175
3071.54	24.6922
3072.82	23.9839
3074.1	22.58
3075.38	21.271
3076.66	19.6599
3077.94	17.6816
3079.22	16.1627
3080.5	14.9306
3081.78	14.0958
3083.06	12.3972
3084.34	10.9805
3085.62	9.02807
3086.9	8.01921
3088.18	6.70721
3089.45	5.23708
3090.73	3.99732
3092.01	2.86826
3093.29	2.05368
3094.56	1.49476
3095.84	0.639489
3097.12	-0.238718
3098.4	-0.52669
3099.67	-0.384209
3100.95	-0.413469
3102.22	0.0671336
3103.5	0.35702
3104.78	0.982507
3106.05	1.56629
3107.33	1.55587
3108.6	1.62178
3109.88	1.74343
3111.15	2.32159
3112.43	3.40128
3113.7	4.45794
3114.97	4.8402
3116.25	5.18661
3117.52	5.75868
3118.79	6.31903
3120.07	6.67345
3121.34	7.75769
3122.61	8.49473
3123.88	9.38993
3125.16	9.81323
3126.43	10.1244
3127.7	11.3114
3128.97	12.231
3130.24	13.5463
3131.51	14.4381
3132.79	15.6176
3134.06	16.0956
3135.33	16.5935
3136.6	17.557
3137.87	18.1247
3139.14	18.8687
3140.41	19.2039
3141.67	19.773
3142.94	20.2858
3144.21	20.4276
3145.48	20.7135
3146.75	21.4142
3148.02	21.2503
3149.29	20.9044
