#Acq. time (s)=	45
#Accumulations=	2
#Range (cm-¹)=	200...3150
#Windows=	2
#Auto scanning=	Off
#Autofocus=	Off
#Macrospot=	Off
#AutoExposure=	Off
#Spike filter=	Multiple accum.
#Delay time (s)=	0
#Binning=	1
#Readout mode=	Signal
#DeNoise=	Off
#ICS correction=	On
#Dark correction=	Off
#Inst. Process=	Off
#Detector Gain=	Best Dynamic Range
#Detector ADC=	20 kHz       
#Detector temperature (°C)=	-69.85
#Instrument=	LabRAM HR Evol
#Detector=	Synapse
#Objective=	x100
#Grating=	600 gr/mm
#ND Filter=	100%
#Laser (nm)=	532 
#Hole=	100.021
#Range=	Auto
#Laser Pol.=	No
#Raman. Pol.=	No
#Laser Pol. (°)=	-0.0007625
#Raman Pol. (°)=	89.9995
#Collection=	Microscope
#StageXY=	Marzhauser
#StageZ=	Marzhauser
#X (µm)=	-5093.2
#Y (µm)=	1482
#Z (µm)=	63.8
#Full time(mm:ss)=	3:20
#Project=	
#Sample=	
#Site=	
#Title=	Thy_50_12_49_2x_45s_532 nm_x100_100%_600 gr_mm
#Remark=	
#Date=	07.07.2022 12:53
#Acquired=	07.07.2022 12:53:09
#Base:Fit=	10.08.2022 10:04:30
#Base:Sub=	10.08.2022 10:04:45
#Filter:Polynom=	16.08.2022 10:20:25
#AxisType[0]=Intens
#AxisUnit[0]=Cnt
#AxisType[1]=Spectr
#AxisUnit[1]=1/cm
200.43	32.8497
202.246	29.4471
204.061	26.4555
205.875	24.0216
207.688	21.9264
209.501	20.5442
211.316	19.2274
213.129	18.3702
214.941	17.4907
216.753	16.5841
218.566	16.3392
220.377	15.7983
222.188	15.0367
223.999	14.6011
225.809	12.3531
227.618	10.9249
229.43	10.59
231.239	9.63559
233.047	8.68031
234.855	8.54114
236.663	8.35012
238.471	8.23913
240.278	8.05967
242.087	7.87681
243.894	8.86023
245.7	9.4266
247.506	10.2786
249.311	10.551
251.116	10.3978
252.921	10.1484
254.725	10.4939
256.529	11.099
258.333	10.3053
260.136	11.171
261.939	10.749
263.744	11.0913
265.546	9.48475
267.348	8.55529
269.15	7.31819
270.951	8.01622
272.752	7.07459
274.552	6.65668
276.353	5.96416
278.152	6.3877
279.952	6.16106
281.751	6.04585
283.55	5.75452
285.348	5.91109
287.146	6.83584
288.942	6.7932
290.739	6.77889
292.536	6.9408
294.333	7.81636
296.129	9.21153
297.925	10.5682
299.721	10.7055
301.516	10.8258
303.311	12.1553
305.106	12.4966
306.9	12.8098
308.694	12.7738
310.486	13.1138
312.279	13.7094
314.072	14.0954
315.864	15.0599
317.656	16.4394
319.448	16.2446
321.24	16.5655
323.029	17.089
324.819	18.011
326.61	18.9069
328.4	19.3479
330.19	19.6214
331.977	19.9809
333.766	20.9608
335.555	20.6925
337.343	19.9103
339.131	19.0721
340.917	18.1833
342.704	17.505
344.491	17.1626
346.277	17.6024
348.062	17.6165
349.848	17.1997
351.633	16.6891
353.416	15.7134
355.201	14.4354
356.986	14.0864
358.77	13.8041
360.552	14.2555
362.335	13.1926
364.118	13.4185
365.899	13.7582
367.682	14.521
369.464	14.2968
371.243	13.1298
373.025	13.2746
374.806	13.0366
376.585	13.5976
378.365	14.1017
380.143	14.1119
381.923	14.2089
383.702	15.8531
385.479	16.5607
387.258	15.6028
389.034	15.1549
390.812	14.4466
392.59	14.6964
394.365	13.6311
396.142	13.483
397.916	13.7971
399.693	13.5848
401.467	12.2397
403.242	11.4901
405.015	10.822
406.79	9.13021
408.565	7.5009
410.337	8.09207
412.111	7.96758
413.882	7.64378
415.656	7.54299
417.426	6.44649
419.197	6.73716
420.969	7.57409
422.739	8.1719
424.51	8.06056
426.279	7.83705
428.05	7.65342
429.819	7.86641
431.589	8.07932
433.356	8.36152
435.124	9.48996
436.893	8.67198
438.66	8.50991
440.428	8.70457
442.194	8.45389
443.96	8.67181
445.727	9.51033
447.492	10.7773
449.259	10.4614
451.023	11.2672
452.787	13.1055
454.553	13.5725
456.316	13.5836
458.079	12.9539
459.844	14.4134
461.606	16.6404
463.368	16.4249
465.132	16.5234
466.893	16.5854
468.654	17.2854
470.415	18.1644
472.177	18.9951
473.937	17.3773
475.696	16.4734
477.456	16.8243
479.217	16.2898
480.975	16.8635
482.733	16.8296
484.491	18.2309
486.251	18.2969
488.008	17.7041
489.765	18.1895
491.522	19.0141
493.278	19.2758
495.036	19.6013
496.791	20.1245
498.546	21.0038
500.301	21.3517
502.056	21.0691
503.81	21.2467
505.566	21.3939
507.319	21.7491
509.073	21.79
510.825	21.0011
512.578	20.7106
514.33	19.9152
516.082	19.7213
517.833	20.558
519.587	20.3073
521.337	20.4922
523.088	21.1045
524.838	20.7597
526.588	21.008
528.337	20.3416
530.087	19.9124
531.835	20.1194
533.584	20.0144
535.332	19.309
537.08	18.3086
538.827	18.2474
540.574	16.9392
542.321	16.2558
544.068	16.6443
545.814	16.194
547.56	17.4053
549.305	16.3024
551.05	15.1849
552.795	15.3551
554.54	15.8512
556.284	16.4497
558.027	16.0966
559.771	15.8286
561.514	15.2812
563.257	15.1457
564.999	14.7494
566.742	14.9242
568.481	15.744
570.223	15.5271
571.964	15.1342
573.705	14.9933
575.445	14.9016
577.185	14.0781
578.925	13.8455
580.665	14.1746
582.402	13.1943
584.141	13.3493
585.879	12.2835
587.617	11.9184
589.355	10.8316
591.092	10.3281
592.828	9.7661
594.564	10.0786
596.301	10.2147
598.037	9.63578
599.773	9.37009
601.506	9.16333
603.242	9.65694
604.976	9.23365
606.711	7.62518
608.443	6.92012
610.177	6.01973
611.91	5.53226
613.644	3.51812
615.374	2.95694
617.107	2.76703
618.839	3.03188
620.569	2.072
622.3	1.91259
624.032	1.78412
625.761	1.98478
627.491	2.76839
629.221	4.50969
630.949	4.83628
632.679	4.75539
634.408	6.21458
636.135	5.74846
637.863	6.37028
639.592	7.58715
641.318	8.43642
643.045	8.10567
644.77	8.88148
646.497	9.2509
648.224	9.90554
649.948	9.84304
651.674	11.3091
653.398	12.3239
655.123	12.8904
656.846	12.6633
658.57	14.2198
660.293	15.6474
662.017	16.3376
663.738	16.534
665.462	18.0546
667.185	18.021
668.905	18.107
670.628	19.5159
672.348	21.1582
674.067	22.4025
675.789	22.9137
677.508	24.5184
679.228	25.0458
680.947	26.2645
682.667	27.2156
684.385	26.8069
686.104	27.4065
687.821	28.1714
689.538	28.0257
691.256	27.8436
692.972	28.659
694.69	29.3056
696.406	30.7023
698.121	30.2921
699.837	30.5647
701.552	32.536
703.268	32.9999
704.982	32.3861
706.695	33.5258
708.41	35.3078
710.123	36.4934
711.836	37.2256
713.55	38.0953
715.262	38.2766
716.973	38.2043
718.685	38.6324
720.398	39.3951
722.108	38.5957
723.818	39.0953
725.53	39.389
727.24	39.2196
728.949	39.6352
730.658	40.2519
732.369	39.8603
734.077	40.2028
735.785	40.0354
737.493	40.4724
739.2	40.723
740.909	41.215
742.616	41.9595
744.322	42.6923
746.028	42.8693
747.734	44.1291
749.441	45.2112
751.146	46.9739
752.851	47.86
754.555	47.277
756.26	46.9092
757.963	48.5686
759.667	49.4243
761.372	51.1336
763.075	53.3419
764.777	54.7294
766.479	57.0118
768.181	59.1532
769.883	59.4035
771.584	62.1765
773.285	63.4581
774.986	64.9199
776.686	67.0242
778.386	68.6432
780.085	68.7714
781.785	70.9101
783.484	70.4906
785.182	72.5024
786.881	73.7553
788.579	74.7294
790.276	75.2024
791.974	76.3407
793.671	76.384
795.367	76.5334
797.064	76.9401
798.76	77.2812
800.456	77.3182
802.151	77.26
803.846	77.1247
805.541	76.901
807.236	75.5253
808.93	75.6388
810.624	75.6919
812.317	76.0564
814.01	74.5243
815.703	73.18
817.394	72.0065
819.086	71.9932
820.778	71.2241
822.47	69.6517
824.161	68.2436
825.852	67.5796
827.543	66.6871
829.231	65.114
830.921	64.3465
832.611	62.553
834.3	60.6787
835.989	58.3491
837.676	56.6895
839.364	53.7603
841.053	55.0633
842.74	56.009
844.426	55.6252
846.113	55.0157
847.8	54.0977
849.486	52.2932
851.171	51.8069
852.857	50.594
854.542	49.2995
856.227	48.578
857.911	46.3839
859.595	45.1488
861.279	43.3492
862.961	42.6586
864.645	42.5836
866.329	42.6651
868.01	41.6663
869.692	40.9365
871.375	39.9848
873.055	39.1051
874.737	38.0318
876.418	38.4035
878.097	39.5394
879.778	40.263
881.457	40.5664
883.137	39.4405
884.817	38.5955
886.495	39.2268
888.174	38.7458
889.851	38.5413
891.53	38.2058
893.206	38.74
894.884	38.4664
896.562	38.1308
898.237	37.9638
899.914	38.7081
901.589	38.976
903.265	39.0443
904.94	38.9335
906.615	38.9724
908.289	39.3075
909.964	38.9669
911.637	38.8484
913.31	38.487
914.984	37.72
916.656	38.1195
918.33	37.9791
920.001	37.7208
921.674	37.0776
923.345	36.2201
925.015	36.0839
926.687	35.545
928.357	34.1616
930.028	32.9691
931.698	30.9708
933.366	30.0774
935.037	29.6263
936.705	28.2503
938.373	27.8904
940.043	27.6461
941.71	26.0597
943.379	25.5404
945.046	25.2041
946.712	25.6149
948.378	24.9199
950.046	24.07
951.711	22.9926
953.376	21.8691
955.043	22.3048
956.708	23.0477
958.372	22.8516
960.036	21.4846
961.701	20.4345
963.364	20.4887
965.027	20.2451
966.69	19.6496
968.354	20.3374
970.016	20.1155
971.678	18.9664
973.339	19.6265
975	19.2841
976.661	19.2675
978.324	20.141
979.984	19.0357
981.644	17.9074
983.303	17.3752
984.962	17.0448
986.621	15.7742
988.282	16.3227
989.94	15.0015
991.598	14.3177
993.256	14.5983
994.913	16.1681
996.57	15.8728
998.227	15.7729
999.884	16.7828
1001.54	16.2976
1003.2	16.2735
1004.85	16.4834
1006.51	17.0644
1008.16	15.9197
1009.82	16.4152
1011.47	14.8498
1013.12	15.3749
1014.78	15.511
1016.43	17.393
1018.08	18.4943
1019.74	18.7989
1021.39	19.4893
1023.04	19.664
1024.69	18.7991
1026.34	19.9618
1028	20.9013
1029.65	21.3009
1031.3	22.1379
1032.95	23.0706
1034.6	22.5017
1036.25	22.7335
1037.9	23.0592
1039.55	22.1224
1041.19	21.0635
1042.84	20.5367
1044.49	21.9055
1046.14	22.4421
1047.79	22.4476
1049.43	22.3301
1051.08	21.089
1052.73	19.8327
1054.37	18.3679
1056.02	17.2319
1057.66	15.126
1059.31	13.8099
1060.95	12.5345
1062.6	10.243
1064.24	9.67238
1065.88	7.38708
1067.53	2.82947
1069.17	-0.189797
1070.81	1.16571
1072.46	1.60678
1074.1	3.28916
1075.74	5.00684
1077.38	5.66518
1079.02	5.61183
1080.66	6.2635
1082.3	7.52312
1083.94	7.94419
1085.58	8.29489
1087.22	9.47552
1088.86	10.2478
1090.5	10.4113
1092.14	11.5004
1093.78	12.1528
1095.42	14.9591
1097.05	16.0716
1098.69	17.4918
1100.33	17.3759
1101.97	17.91
1103.6	19.1408
1105.24	19.4577
1106.87	19.9514
1108.51	20.199
1110.15	21.3322
1111.78	20.7379
1113.41	21.0301
1115.05	20.3039
1116.68	19.4387
1118.31	19.353
1119.95	19.476
1121.58	19.0926
1123.21	18.911
1124.85	18.8323
1126.48	18.5103
1128.11	17.8889
1129.74	16.0119
1131.37	14.0038
1133	11.9445
1134.63	10.514
1136.26	8.84251
1137.89	8.32257
1139.52	7.28692
1141.15	5.68507
1142.78	4.17383
1144.41	2.17583
1146.04	-0.0292584
1147.66	-2.21843
1149.29	-2.08285
1150.92	0.520906
1152.55	3.38497
1154.17	3.13262
1155.8	3.00196
1157.43	3.41868
1159.05	3.30345
1160.68	3.08548
1162.3	3.44891
1163.93	3.82396
1165.55	3.21882
1167.17	3.42717
1168.8	3.46602
1170.42	3.00674
1172.05	3.10602
1173.67	4.31283
1175.29	5.95769
1176.91	6.63052
1178.54	5.90507
1180.16	6.41896
1181.78	6.23105
1183.4	6.56937
1185.02	5.95867
1186.64	5.59464
1188.26	5.90356
1189.88	5.89378
1191.5	6.40741
1193.12	4.83171
1194.74	4.45035
1196.36	4.57985
1197.97	4.3021
1199.59	3.54963
1201.21	3.58416
1202.83	3.02562
1204.44	3.29832
1206.06	3.81212
1207.68	4.32457
1209.29	5.27087
1210.91	6.20821
1212.52	8.59349
1214.14	9.19099
1215.75	10.3676
1217.37	11.3283
1218.98	11.5437
1220.6	13.0036
1222.21	12.9899
1223.82	14.7205
1225.44	15.7187
1227.05	17.2757
1228.66	19.266
1230.27	21.2494
1231.88	23.2743
1233.49	25.0219
1235.1	26.573
1236.72	27.6057
1238.33	29.4239
1239.94	30.8662
1241.55	32.5879
1243.16	34.659
1244.76	36.0864
1246.37	37.3214
1247.98	39.7647
1249.59	41.1637
1251.2	42.3638
1252.8	44.1852
1254.41	45.4809
1256.02	46.8258
1257.63	46.6304
1259.23	47.074
1260.84	48.0968
1262.44	48.1247
1264.05	48.6303
1265.66	48.9584
1267.26	49.3177
1268.87	49.3577
1270.47	49.436
1272.07	49.702
1273.68	50.0833
1275.28	51.1829
1276.88	51.816
1278.48	52.7398
1280.09	53.4627
1281.69	54.2471
1283.29	54.2532
1284.89	54.6974
1286.49	55.2129
1288.09	56.1696
1289.69	56.4394
1291.3	56.3851
1292.9	55.4771
1294.49	54.339
1296.09	54.9929
1297.69	55.421
1299.29	55.0899
1300.89	56.2128
1302.49	55.9226
1304.09	56.8738
1305.68	56.6238
1307.28	57.7082
1308.88	58.1626
1310.47	58.5531
1312.07	58.3978
1313.66	57.696
1315.26	57.845
1316.86	56.5274
1318.45	57.8252
1320.05	58.0443
1321.64	59.0449
1323.23	58.5189
1324.83	58.2256
1326.42	57.751
1328.01	57.4047
1329.61	56.3049
1331.2	55.0346
1332.79	53.525
1334.38	53.0423
1335.98	52.498
1337.57	51.7131
1339.16	52.5859
1340.75	52.5281
1342.34	51.9053
1343.93	52.1124
1345.52	52.3208
1347.11	51.1186
1348.7	51.0876
1350.29	51.2379
1351.87	51.4554
1353.46	51.006
1355.05	50.7645
1356.64	49.0303
1358.23	49.2289
1359.81	46.9182
1361.4	45.8612
1362.99	44.9623
1364.57	45.0452
1366.16	43.8043
1367.74	42.8618
1369.33	41.6602
1370.91	40.3483
1372.5	39.6952
1374.08	39.5853
1375.67	40.0427
1377.25	40.4082
1378.83	40.0316
1380.42	41.0586
1382	41.406
1383.58	41.2131
1385.16	41.7638
1386.75	41.6153
1388.33	41.1633
1389.91	40.5642
1391.49	39.9765
1393.07	39.7562
1394.65	40.1207
1396.23	40.1767
1397.81	42.3462
1399.39	42.9447
1400.97	43.8256
1402.55	42.8208
1404.13	42.8822
1405.7	42.9307
1407.28	43.1793
1408.86	44.3414
1410.44	44.9916
1412.01	46.8271
1413.59	49.6113
1415.17	50.5695
1416.74	52.9542
1418.32	54.0071
1419.89	55.4846
1421.47	57.9513
1423.05	60.3985
1424.62	61.5943
1426.19	62.9517
1427.77	65.3282
1429.34	67.0448
1430.92	67.8081
1432.49	69.1201
1434.06	70.4518
1435.63	71.781
1437.2	73.1584
1438.78	73.0517
1440.35	74.1564
1441.92	74.8332
1443.49	74.5709
1445.06	74.5092
1446.63	75.1954
1448.2	75.8649
1449.77	75.794
1451.34	76.2636
1452.91	75.9796
1454.48	75.8053
1456.05	75.5776
1457.62	74.8044
1459.18	73.7964
1460.75	71.7078
1462.32	69.1687
1463.89	66.5747
1465.45	63.3149
1467.02	61.1238
1468.59	58.1026
1470.15	55.1475
1471.72	52.7311
1473.28	50.5597
1474.85	48.1324
1476.41	46.0406
1477.98	43.7161
1479.54	41.1815
1481.11	37.9321
1482.67	36.5054
1484.23	34.6587
1485.8	33.108
1487.36	32.0662
1488.92	30.7538
1490.48	29.9701
1492.05	28.5899
1493.61	26.4437
1495.17	26.7623
1496.73	26.402
1498.29	27.211
1499.85	27.167
1501.41	26.72
1502.97	26.5391
1504.53	26.6227
1506.09	26.3643
1507.65	26.1458
1509.2	25.987
1510.76	27.3618
1512.32	28.6354
1513.88	29.0141
1515.44	29.157
1516.99	30.1289
1518.55	31.4501
1520.1	32.3609
1521.66	33.0498
1523.22	35.0406
1524.77	35.2063
1526.33	36.2659
1527.88	35.894
1529.44	36.8043
1530.99	37.8738
1532.55	39.0205
1534.1	40.7445
1535.65	41.2239
1537.21	41.8708
1538.76	42.8299
1540.31	42.916
1541.86	43.5108
1543.42	44.71
1544.97	46.3227
1546.52	47.7405
1548.07	50.0956
1549.62	51.5058
1551.17	52.6562
1552.72	53.8704
1554.27	55.5866
1555.82	57.3749
1557.37	58.6734
1558.92	60.3979
1560.47	62.4357
1562.02	63.8845
1563.57	65.5171
1565.11	67.5166
1566.66	69.2631
1568.21	70.5341
1569.75	71.2736
1571.3	72.9783
1572.85	75.1432
1574.39	75.9739
1575.94	76.1059
1577.49	76.6667
1579.03	76.8404
1580.58	76.3835
1582.12	75.4766
1583.67	75.6255
1585.21	75.7739
1586.75	76.5545
1588.3	76.2122
1589.84	75.3979
1591.38	74.4431
1592.93	74.7931
1594.47	74.3393
1596.01	73.5257
1597.55	72.439
1599.09	71.5035
1600.63	70.3734
1602.18	69.4886
1603.72	68.0163
1605.26	67.8248
1606.8	67.6488
1608.34	67.5394
1609.87	66.8608
1611.41	66.8207
1612.95	65.6426
1614.49	65.5382
1616.03	65.1578
1617.57	63.6426
1619.11	63.3576
1620.64	63.9796
1622.18	63.6202
1623.72	63.0794
1625.25	63.5811
1626.79	63.7465
1628.32	64.6373
1629.86	65.1863
1631.4	67.1261
1632.93	67.8702
1634.47	68.8081
1636	68.6746
1637.53	70.028
1639.07	70.8566
1640.6	70.9325
1642.14	72.4206
1643.67	72.6256
1645.2	73.4513
1646.73	73.4143
1648.27	73.7044
1649.8	73.1017
1651.33	72.8444
1652.86	72.7127
1654.39	72.3653
1655.92	72.2529
1657.45	70.7067
1658.98	70.5591
1660.51	70.4751
1662.04	69.8521
1663.57	69.2547
1665.1	67.2797
1666.63	66.8814
1668.16	65.9053
1669.69	64.9368
1671.21	63.0211
1672.74	61.4718
1674.27	59.8529
1675.79	58.2009
1677.32	56.2331
1678.85	55.0435
1680.37	53.0299
1681.9	51.466
1683.42	48.8604
1684.95	47.1334
1686.47	44.2858
1688	41.7875
1689.52	39.2687
1691.05	37.3595
1692.57	34.8719
1694.1	32.4366
1695.62	31.4433
1697.14	30.0585
1698.66	28.7379
1700.19	28.1011
1701.71	27.4386
1703.23	26.1742
1704.75	24.5446
1706.27	23.7068
1707.79	23.2265
1709.32	21.5973
1710.83	20.495
1712.35	19.5872
1713.88	19.8316
1715.39	18.1895
1716.91	16.981
1718.43	16.8119
1719.95	15.9993
1721.47	15.216
1722.99	14.5158
1724.5	13.8881
1726.02	13.205
1727.54	12.8701
1729.06	12.2847
1730.57	11.6223
1732.09	10.6011
1733.61	9.19806
1735.12	10.0521
1736.64	9.91209
1738.15	9.59616
1739.67	8.77496
1741.18	8.05046
1742.7	8.10795
1744.21	7.55564
1745.72	8.21199
1747.24	7.25299
1748.75	7.4217
1750.26	6.9408
1751.78	6.75802
1753.29	6.68009
1754.8	6.44133
1756.31	5.78677
1757.82	5.60167
1759.34	6.09362
1760.85	5.77105
1762.36	5.8481
1763.87	6.07353
1765.38	6.07646
1766.89	6.25769
1768.4	6.47852
1769.91	6.71718
1771.41	7.42651
1772.92	6.8454
1774.43	7.64867
1775.94	7.84373
1777.45	7.81784
1778.96	8.38195
1780.46	7.95588
1781.97	8.02015
1783.48	7.97685
1784.98	8.22499
1786.49	7.86836
1788	8.75753
1789.5	8.17197
1791.01	7.86654
1792.51	7.68973
1794.01	7.73041
1795.52	7.81344
1797.02	7.01221
1798.53	7.50276
1800.03	7.14217
1801.54	6.92186
1803.04	7.03856
1804.54	7.01582
1806.04	6.71741
1807.54	6.2386
1809.05	6.56086
1810.55	6.45955
1812.05	6.28415
1813.55	6.10786
1815.05	5.93366
1816.55	5.89254
1818.05	5.48564
1819.55	5.49241
1821.05	5.36488
1822.55	5.08362
1824.05	5.82029
1825.55	5.57606
1827.05	6.26377
1828.55	6.29821
1830.04	5.68512
1831.54	5.94592
1833.04	5.85117
1834.54	5.31239
1836.03	5.11793
1837.53	5.35358
1839.03	5.28753
1840.52	4.94104
1842.02	5.00788
1843.51	5.25129
1845.01	5.23004
1846.5	5.29875
1848	4.67843
1849.49	4.75368
1850.99	4.71594
1852.48	4.23777
1853.97	4.74124
1855.47	4.89297
1856.96	5.59496
1858.45	5.70828
1859.94	6.03199
1861.44	6.1187
1862.93	7.09839
1864.42	6.66589
1865.91	6.54945
1867.4	6.45837
1868.89	6.82104
1870.38	7.09293
1871.87	6.84875
1873.36	7.10943
1874.85	7.24635
1876.34	7.78892
1877.83	8.68265
1879.32	8.66767
1880.81	8.98932
1882.3	9.51155
1882.56	9.43664
1884.06	9.45955
1885.55	9.78617
1887.04	9.66118
1888.54	9.50147
1890.03	9.89723
1891.52	10.0356
1893.02	10.1936
1894.51	9.85847
1896	9.66862
1897.49	8.60714
1898.99	7.4621
1900.48	7.39045
1901.97	6.52558
1903.46	5.57597
1904.95	5.00836
1906.44	4.32477
1907.93	4.21938
1909.42	4.39932
1910.91	4.27607
1912.4	4.30252
1913.89	3.80516
1915.38	3.71502
1916.86	3.37223
1918.35	3.47749
1919.84	2.97327
1921.33	2.71729
1922.82	2.68979
1924.3	2.50992
1925.79	2.19513
1927.28	2.66853
1928.76	2.68948
1930.25	2.27269
1931.74	1.74918
1933.22	1.53194
1934.71	0.864014
1936.19	0.269545
1937.67	-0.089163
1939.16	-0.69207
1940.64	-0.879192
1942.13	-1.0465
1943.61	-1.37829
1945.09	-1.2952
1946.58	-0.67321
1948.06	-0.469566
1949.54	-0.483364
1951.03	-0.236144
1952.51	-0.412733
1953.99	-0.0838623
1955.47	0.345945
1956.95	0.550108
1958.43	0.506288
1959.91	0.387352
1961.39	0.337878
1962.87	0.292816
1964.35	1.02058
1965.83	0.322382
1967.31	0.247081
1968.79	0.139928
1970.27	0.127096
1971.75	0.374873
1973.22	1.62912
1974.7	2.32337
1976.18	1.67327
1977.66	2.18471
1979.13	2.80424
1980.61	3.66046
1982.09	4.97191
1983.56	5.48408
1985.04	5.61411
1986.52	5.7656
1987.99	6.34782
1989.47	6.61494
1990.94	6.67994
1992.41	7.0453
1993.89	6.78566
1995.36	6.99212
1996.84	7.03149
1998.31	6.57408
1999.78	7.0954
2001.26	7.44619
2002.73	7.88609
2004.2	7.84831
2005.67	7.89357
2007.15	7.58896
2008.62	8.02051
2010.09	8.54009
2011.56	9.27417
2013.03	9.1176
2014.5	9.43602
2015.97	9.30727
2017.44	9.74568
2018.91	9.80857
2020.38	9.39015
2021.85	9.62013
2023.32	10.4272
2024.79	11.191
2026.25	10.9574
2027.72	11.2156
2029.19	11.3173
2030.66	11.09
2032.13	10.8409
2033.59	11.2929
2035.06	11.6035
2036.53	11.1544
2037.99	11.2591
2039.46	10.2883
2040.92	10.714
2042.39	10.7928
2043.85	10.675
2045.32	11.22
2046.78	11.4667
2048.25	10.5273
2049.71	10.6397
2051.18	11.1056
2052.64	11.1027
2054.1	10.8382
2055.56	10.8697
2057.03	10.3738
2058.49	10.4711
2059.95	10.5139
2061.42	10.9508
2062.88	11.112
2064.34	11.3666
2065.8	11.6013
2067.26	11.9556
2068.72	11.7257
2070.18	12.0238
2071.64	12.8068
2073.1	14.2057
2074.56	15.0723
2076.02	16.1201
2077.48	16.4297
2078.94	17.2321
2080.39	18.434
2081.85	19.2351
2083.31	20.27
2084.77	21.2472
2086.22	21.6864
2087.68	22.7799
2089.14	23.5114
2090.6	25.1643
2092.05	26.1403
2093.51	27.6315
2094.96	29.6369
2096.42	30.2511
2097.87	30.962
2099.33	31.1925
2100.78	32.648
2102.24	33.9129
2103.69	35.716
2105.15	36.8891
2106.6	37.5844
2108.05	37.9082
2109.51	38.6253
2110.96	39.8672
2112.41	40.6622
2113.86	41.6986
2115.32	43.0868
2116.77	44.5895
2118.22	46.0676
2119.67	47.3211
2121.12	47.6694
2122.57	49.0481
2124.02	49.8531
2125.47	51.3997
2126.92	53.1678
2128.37	54.9224
2129.82	56.1471
2131.27	57.8694
2132.72	59.132
2134.17	60.2416
2135.62	61.055
2137.06	61.8522
2138.51	63.2517
2139.96	64.5588
2141.41	66.1235
2142.85	68.2175
2144.3	69.5808
2145.75	70.815
2147.19	72.1805
2148.64	73.262
2150.09	74.0729
2151.53	75.0448
2152.97	75.263
2154.42	75.1287
2155.86	76.9872
2157.31	77.4917
2158.75	78.2138
2160.2	78.9042
2161.64	79.5229
2163.08	80.269
2164.53	81.1639
2165.97	81.2624
2167.41	81.078
2168.86	80.3198
2170.3	80.2202
2171.74	80.3743
2173.18	80.4276
2174.62	79.8859
2176.06	78.6148
2177.5	77.3653
2178.94	76.223
2180.38	75.7832
2181.82	75.7639
2183.26	74.6857
2184.7	74.0669
2186.14	73.7232
2187.58	73.5269
2189.02	73.2095
2190.46	72.3058
2191.89	71.5966
2193.33	70.2276
2194.77	69.7873
2196.21	69.2096
2197.64	68.6037
2199.08	67.607
2200.52	65.9185
2201.95	65.1843
2203.39	64.7187
2204.83	62.8209
2206.26	61.9794
2207.7	60.6339
2209.13	60.2095
2210.57	59.8915
2212	58.6468
2213.43	57.7187
2214.87	56.7774
2216.3	54.4403
2217.73	53.2256
2219.17	51.502
2220.6	49.3343
2222.03	47.4811
2223.47	46.1114
2224.9	44.4446
2226.33	42.8323
2227.76	41.6987
2229.19	39.8139
2230.62	38.0562
2232.05	36.5405
2233.49	35.2542
2234.91	33.1451
2236.34	31.7512
2237.77	29.4251
2239.2	27.9315
2240.63	26.8091
2242.06	25.7095
2243.49	24.8434
2244.92	23.3162
2246.35	22.6224
2247.78	21.7145
2249.2	20.9357
2250.63	20.5978
2252.06	20.5138
2253.48	20.1464
2254.91	19.3838
2256.34	18.8449
2257.76	19.4068
2259.19	19.0934
2260.61	19.2801
2262.04	19.3174
2263.46	19.704
2264.89	19.9547
2266.31	20.4751
2267.74	20.2296
2269.16	20.2133
2270.59	20.1598
2272.01	20.6545
2273.43	21.0101
2274.85	20.9043
2276.28	20.218
2277.7	20.3021
2279.12	19.2331
2280.54	19.6088
2281.97	19.7534
2283.39	19.5836
2284.81	18.6255
2286.23	18.0155
2287.65	16.9435
2289.07	17.1449
2290.49	15.5981
2291.91	14.4579
2293.33	13.8394
2294.75	13.279
2296.17	13.3973
2297.59	12.7274
2299.01	12.9566
2300.42	13.3157
2301.84	12.9493
2303.26	12.8166
2304.68	12.4401
2306.1	12.6035
2307.51	13.035
2308.93	12.8164
2310.35	13.2064
2311.76	13.4744
2313.18	13.0504
2314.59	12.8099
2316.01	12.5653
2317.43	12.234
2318.84	12.2808
2320.26	12.4492
2321.67	13.3113
2323.08	13.238
2324.5	13.2157
2325.91	13.6812
2327.33	13.4594
2328.74	13.7522
2330.15	14.0026
2331.56	14.3824
2332.98	14.6633
2334.39	14.747
2335.8	14.7337
2337.21	13.7394
2338.62	12.8121
2340.04	13.1262
2341.45	12.3261
2342.86	11.6898
2344.27	11.2924
2345.68	10.3507
2347.09	9.96898
2348.5	9.28581
2349.91	8.97834
2351.31	9.26869
2352.72	9.21951
2354.13	8.27135
2355.54	6.60538
2356.95	6.30064
2358.36	5.40868
2359.76	4.71961
2361.17	4.17971
2362.58	4.59731
2363.98	4.64656
2365.39	4.66244
2366.8	4.6294
2368.21	4.01255
2369.61	4.03243
2371.02	4.0079
2372.42	3.5326
2373.83	3.30474
2375.23	3.30103
2376.64	3.33574
2378.04	3.39212
2379.44	3.50691
2380.85	3.2885
2382.25	3.19986
2383.66	3.4597
2385.06	3.5173
2386.46	3.76666
2387.86	3.34086
2389.26	3.82261
2390.67	3.82202
2392.07	4.16429
2393.47	4.28368
2394.87	4.89556
2396.27	5.52885
2397.67	5.65645
2399.07	5.78478
2400.47	6.24031
2401.87	6.24437
2403.27	6.66422
2404.67	6.4654
2406.07	6.43161
2407.47	6.25698
2408.87	6.49809
2410.27	6.9664
2411.67	6.63032
2413.07	7.58973
2414.46	8.09802
2415.86	8.47779
2417.26	9.03643
2418.66	8.95244
2420.05	10.1247
2421.45	10.3046
2422.84	9.7003
2424.24	9.1453
2425.64	9.26318
2427.03	9.79813
2428.43	9.53298
2429.82	9.93309
2431.22	9.32613
2432.61	8.87921
2434.01	9.24841
2435.4	9.79946
2436.79	9.5225
2438.19	9.60712
2439.58	9.61094
2440.97	8.986
2442.37	8.52601
2443.76	8.32877
2445.15	8.10601
2446.54	7.74921
2447.93	8.16609
2449.33	7.86721
2450.72	7.39591
2452.11	7.21201
2453.5	7.66188
2454.89	6.86901
2456.28	6.02258
2457.67	5.07923
2459.06	5.25375
2460.45	5.61606
2461.84	5.26351
2463.23	4.84063
2464.62	4.33244
2466	3.94337
2467.39	3.50883
2468.78	2.32885
2470.17	1.49905
2471.55	1.79882
2472.94	1.7205
2474.33	1.63979
2475.72	2.26554
2477.1	2.34617
2478.49	2.26362
2479.87	3.23395
2481.26	3.49744
2482.65	4.35855
2484.03	3.99827
2485.42	4.94846
2486.8	4.48053
2488.19	4.18043
2489.57	4.39043
2490.95	4.2474
2492.34	3.7643
2493.72	4.10992
2495.1	4.50099
2496.49	4.4595
2497.87	3.9463
2499.25	3.95636
2500.63	3.58477
2502.02	4.6595
2503.4	4.2741
2504.78	3.97978
2506.16	3.48158
2507.54	3.92319
2508.92	3.81784
2510.3	3.1121
2511.68	3.42655
2513.06	3.54688
2514.44	3.05801
2515.82	2.80143
2517.2	2.60159
2518.58	2.17757
2519.96	1.83846
2521.34	2.3228
2522.72	2.53049
2524.1	1.43579
2525.47	1.36894
2526.85	1.69801
2528.23	2.38307
2529.6	2.08952
2530.98	1.90423
2532.36	2.14891
2533.74	2.34558
2535.11	2.85878
2536.49	3.21127
2537.86	3.18413
2539.24	3.21181
2540.61	4.18893
2541.99	4.78503
2543.36	4.79885
2544.74	5.04995
2546.11	5.4439
2547.49	5.79878
2548.86	5.67383
2550.23	5.31252
2551.61	5.5312
2552.98	4.84132
2554.35	3.90123
2555.72	2.5366
2557.09	1.97752
2558.47	2.15674
2559.84	2.797
2561.21	2.15918
2562.58	2.14902
2563.95	2.38941
2565.32	2.05394
2566.69	1.43212
2568.06	1.85812
2569.43	2.09474
2570.8	2.15278
2572.17	0.757793
2573.54	1.29962
2574.91	0.85614
2576.28	0.217366
2577.65	-0.252578
2579.02	-0.139929
2580.39	-0.161066
2581.75	-0.414233
2583.12	-0.624902
2584.49	-0.255061
2585.85	0.612266
2587.22	1.75582
2588.59	2.42382
2589.95	2.5233
2591.32	2.60414
2592.68	3.06568
2594.05	3.4906
2595.42	3.43378
2596.78	3.75975
2598.15	3.46682
2599.51	3.73374
2600.88	4.04337
2602.24	4.43139
2603.6	4.5503
2604.97	4.59668
2606.33	4.1174
2607.69	4.30137
2609.06	5.09771
2610.42	5.12197
2611.78	5.08405
2613.14	4.78702
2614.51	4.90468
2615.87	4.84705
2617.23	4.37441
2618.59	4.39104
2619.95	4.49681
2621.31	3.99637
2622.67	3.63964
2624.03	4.27925
2625.39	4.01254
2626.75	4.81588
2628.11	5.7572
2629.47	5.59827
2630.83	5.20928
2632.19	5.31734
2633.55	5.35029
2634.91	4.98375
2636.26	5.53474
2637.62	5.01263
2638.98	4.17773
2640.34	3.79777
2641.69	4.26636
2643.05	4.48559
2644.41	4.85334
2645.76	5.1595
2647.12	5.54626
2648.48	5.12964
2649.83	5.13746
2651.19	4.90196
2652.54	4.98439
2653.9	5.0484
2655.25	4.67916
2656.6	4.11824
2657.96	3.81825
2659.31	4.04538
2660.67	3.31617
2662.02	2.28841
2663.37	2.33512
2664.73	2.51436
2666.08	2.0024
2667.43	2.30523
2668.78	2.60529
2670.14	2.91219
2671.49	2.96704
2672.84	3.34265
2674.19	2.6514
2675.54	3.74638
2676.89	4.2786
2678.24	3.96127
2679.59	4.11198
2680.94	4.22435
2682.29	5.20308
2683.64	5.91042
2684.99	5.74304
2686.34	6.43012
2687.69	7.12865
2689.04	6.91279
2690.39	7.31886
2691.74	7.65916
2693.08	7.7746
2694.43	8.63038
2695.78	9.47828
2697.13	10.1967
2698.47	10.2576
2699.82	11.3198
2701.17	12.086
2702.51	12.0298
2703.86	13.2369
2705.21	13.4401
2706.55	14.2205
2707.9	14.1421
2709.24	14.3384
2710.58	14.8508
2711.93	15.4063
2713.27	15.2284
2714.62	15.1746
2715.96	14.5459
2717.3	14.6034
2718.65	14.7068
2719.99	14.697
2721.33	14.5138
2722.68	14.8839
2724.02	14.2122
2725.36	14.0285
2726.71	13.8917
2728.05	13.4421
2729.39	12.7455
2730.73	12.9354
2732.07	12.5354
2733.41	11.729
2734.75	11.6327
2736.09	11.474
2737.43	11.6668
2738.77	11.0417
2740.11	11.0238
2741.45	10.2813
2742.79	10.77
2744.13	9.74568
2745.47	8.59227
2746.81	8.51509
2748.14	8.33675
2749.48	7.62683
2750.82	7.32979
2752.16	6.40851
2753.49	5.94015
2754.83	5.16358
2756.17	4.84201
2757.5	4.82692
2758.84	4.85647
2760.18	5.52593
2761.51	5.81732
2762.85	6.55456
2764.18	6.28874
2765.52	6.60803
2766.85	6.26449
2768.19	5.86242
2769.52	5.80929
2770.86	5.96704
2772.19	5.18551
2773.52	5.11702
2774.86	4.05604
2776.19	4.63557
2777.52	4.34576
2778.86	4.43458
2780.19	3.57754
2781.52	3.02022
2782.85	3.08727
2784.19	3.68359
2785.52	3.73832
2786.85	3.32115
2788.18	2.99018
2789.51	3.15664
2790.84	1.95628
2792.17	1.99437
2793.5	1.44913
2794.83	1.30012
2796.16	0.917271
2797.49	1.18854
2798.82	1.05227
2800.15	0.800628
2801.48	1.42686
2802.81	1.19952
2804.13	0.910795
2805.46	0.36884
2806.79	0.123064
2808.12	-0.638156
2809.45	-0.90312
2810.77	-1.27727
2812.1	-1.26504
2813.43	-1.48862
2814.75	-1.10297
2816.08	-0.833491
2817.41	0.632375
2818.73	1.66978
2820.06	3.62895
2821.38	6.22704
2822.71	8.63569
2824.03	11.7067
2825.36	14.7608
2826.68	17.3168
2828	19.4516
2829.33	22.4154
2830.65	24.9451
2831.98	28.3255
2833.3	30.539
2834.62	33.336
2835.94	36.0465
2837.27	38.5886
2838.59	41.8483
2839.91	46.3845
2841.23	50.0199
2842.55	54.3413
2843.87	57.9561
2845.2	62.6535
2846.52	66.3478
2847.84	69.719
2849.16	74.0253
2850.48	78.4551
2851.8	82.4704
2853.12	85.9992
2854.44	89.8808
2855.76	93.9069
2857.08	97.7108
2858.39	102.289
2859.71	106.083
2861.03	110.438
2862.35	113.231
2863.67	116.339
2864.98	118.897
2866.3	121.499
2867.62	123.844
2868.94	125.061
2870.25	127.174
2871.57	128.783
2872.88	130.341
2874.2	131.068
2875.52	131.475
2876.83	132.778
2878.15	133.963
2879.46	135.019
2880.78	137.081
2882.09	138.254
2883.41	140.115
2884.72	141.353
2886.03	143.072
2887.35	144.903
2888.66	145.371
2889.97	147.043
2891.29	147.42
2892.6	148.258
2893.91	149.517
2895.22	151.296
2896.54	152.332
2897.85	154.051
2899.16	155.424
2900.47	158.117
2901.78	160.697
2903.09	164.037
2904.4	168.31
2905.71	172.905
2907.02	176.162
2908.33	179.818
2909.64	183.728
2910.95	188.155
2912.26	191.482
2913.57	195.115
2914.88	200.057
2916.19	203.984
2917.5	207.929
2918.81	210.999
2920.11	214.614
2921.42	218.095
2922.73	221.176
2924.04	223.514
2925.34	224.639
2926.65	226.241
2927.96	227.077
2929.26	227.668
2930.57	227.791
2931.87	227.958
2933.18	227.407
2934.49	226.341
2935.79	225.105
2937.1	223.249
2938.4	221.796
2939.7	218.726
2941.01	216.327
2942.31	214.071
2943.62	210.164
2944.92	206.719
2946.22	202.513
2947.53	197.942
2948.83	193.777
2950.13	189.191
2951.43	184.987
2952.74	180.323
2954.04	175.264
2955.34	171.144
2956.64	166.052
2957.94	161.755
2959.24	157.54
2960.54	153.141
2961.84	147.987
2963.15	143.968
2964.45	140.861
2965.75	137.409
2967.05	133.952
2968.34	130.759
2969.64	126.929
2970.94	123.109
2972.24	119.193
2973.54	115.114
2974.84	111.312
2976.14	107.473
2977.43	102.808
2978.73	99.0441
2980.03	95.8979
2981.33	92.0102
2982.62	88.4144
2983.92	84.4878
2985.22	81.3155
2986.51	77.8413
2987.81	74.1607
2989.11	70.6868
2990.4	66.8384
2991.7	64.0164
2992.99	60.7552
2994.29	56.7326
2995.58	53.8673
2996.88	50.8951
2998.17	47.6639
2999.46	44.3725
3000.76	41.6665
3002.05	39.3356
3003.34	36.5187
3004.64	32.6605
3005.93	30.0051
3007.22	26.9478
3008.52	24.604
3009.81	22.62
3011.1	20.1947
3012.39	17.8584
3013.68	16.2518
3014.97	14.3493
3016.27	12.9301
3017.56	11.4092
3018.85	9.92517
3020.14	8.79716
3021.43	7.77992
3022.72	6.82501
3024.01	5.91907
3025.3	5.01599
3026.59	4.88169
3027.88	5.21653
3029.16	5.65617
3030.45	4.52665
3031.74	5.02818
3033.03	4.17097
3034.32	3.85786
3035.6	4.51035
3036.89	5.29433
3038.18	5.20197
3039.47	5.92369
3040.75	7.07274
3042.04	7.18005
3043.33	7.98041
3044.61	8.62208
3045.9	9.03539
3047.18	9.37333
3048.47	10.3391
3049.75	11.5822
3051.04	11.8048
3052.32	12.0846
3053.61	12.2694
3054.89	11.9474
3056.18	12.5334
3057.46	12.101
3058.74	12.2081
3060.03	12.9672
3061.31	12.989
3062.59	12.2973
3063.88	12.2892
3065.16	12.4116
3066.44	11.5224
3067.72	10.5852
3069	9.71182
3070.29	9.36184
3071.57	8.94421
3072.85	8.94828
3074.13	7.93884
3075.41	7.11823
3076.69	5.92512
3077.97	5.36485
3079.25	4.10936
3080.53	3.38468
3081.81	2.28778
3083.09	1.43595
3084.37	1.35798
3085.65	0.923716
3086.93	0.611005
3088.21	0.66661
3089.49	0.730378
3090.76	0.776404
3092.04	-0.211319
3093.32	0.00221469
3094.6	-0.632798
3095.87	-0.178311
3097.15	-0.372835
3098.43	0.400125
3099.7	0.584534
3100.98	0.958811
3102.26	1.275
3103.53	2.00269
3104.81	2.82939
3106.08	2.83156
3107.36	3.59582
3108.63	4.78307
3109.91	6.03492
3111.18	6.96137
3112.46	7.85858
3113.73	9.08537
3115	9.15633
3116.28	9.98235
3117.55	11.1265
3118.83	11.8176
3120.1	12.9683
3121.37	13.5431
3122.64	14.8998
3123.92	15.5654
3125.19	16.3459
3126.46	16.7616
3127.73	18.0873
3129	18.4757
3130.27	18.7831
3131.55	19.8082
3132.82	20.6677
3134.09	21.5458
3135.36	22.1427
3136.63	22.718
3137.9	22.5074
3139.17	22.4565
3140.44	22.5661
3141.71	22.9226
3142.98	23.3452
3144.24	23.7201
3145.51	23.9382
3146.78	23.5094
3148.05	22.3704
3149.32	21.0406
