#Acq. time (s)=	45
#Accumulations=	2
#Range (cm-¹)=	200...3150
#Windows=	2
#Auto scanning=	Off
#Autofocus=	Off
#Macrospot=	Off
#AutoExposure=	Off
#Spike filter=	Multiple accum.
#Delay time (s)=	0
#Binning=	1
#Readout mode=	Signal
#DeNoise=	Off
#ICS correction=	On
#Dark correction=	Off
#Inst. Process=	Off
#Detector Gain=	Best Dynamic Range
#Detector ADC=	20 kHz       
#Detector temperature (°C)=	-69.85
#Instrument=	LabRAM HR Evol
#Detector=	Synapse
#Objective=	x100
#Grating=	600 gr/mm
#ND Filter=	100%
#Laser (nm)=	532 
#Hole=	100.021
#Range=	Auto
#Laser Pol.=	No
#Raman. Pol.=	No
#Laser Pol. (°)=	-0.0007625
#Raman Pol. (°)=	89.9995
#Collection=	Microscope
#StageXY=	Marzhauser
#StageZ=	Marzhauser
#X (µm)=	8969.5
#Y (µm)=	-3063.1
#Z (µm)=	-54.85
#Full time(mm:ss)=	3:19
#Project=	
#Sample=	
#Site=	
#Title=	Thy_00_07_37_2x_45s_532 nm_x100_100%_600 gr_mm
#Remark=	
#Date=	28.06.2022 12:50
#Acquired=	28.06.2022 12:50:06
#Base:Fit=	10.08.2022 10:07:56
#Base:Sub=	10.08.2022 10:08:40
#Filter:Polynom=	16.08.2022 10:26:06
#AxisType[0]=Intens
#AxisUnit[0]=Cnt
#AxisType[1]=Spectr
#AxisUnit[1]=1/cm
200.407	4.79973
202.221	6.66901
204.035	7.44573
205.849	7.54914
207.665	7.50726
209.478	7.10661
211.291	7.10815
213.104	7.1325
214.916	6.84998
216.73	6.53276
218.541	7.47967
220.352	6.75096
222.163	6.00057
223.973	4.96816
225.785	4.87275
227.595	4.78326
229.404	4.36233
231.213	4.52544
233.022	4.17157
234.83	4.29538
236.638	4.69766
238.448	4.92895
240.255	4.37864
242.062	3.55381
243.868	3.46552
245.675	3.16009
247.48	3.1201
249.286	2.63193
251.091	2.0118
252.896	2.79504
254.702	3.15269
256.506	3.2686
258.31	4.59016
260.113	6.32723
261.916	5.22842
263.719	5.67128
265.521	6.1041
267.323	5.93237
269.125	7.0628
270.926	6.70812
272.727	6.05632
274.527	6.18172
276.328	5.57871
278.127	6.10747
279.927	6.83738
281.726	7.66344
283.525	7.94049
285.323	7.65521
287.121	7.87097
288.919	7.62697
290.716	8.00674
292.513	7.21279
294.31	7.40014
296.104	7.23599
297.9	7.42509
299.696	8.87799
301.491	8.34705
303.286	8.21476
305.081	8.97508
306.875	10.0923
308.669	11.3107
310.463	10.4715
312.256	11.2873
314.047	11.2799
315.839	12.502
317.631	12.6409
319.423	13.1158
321.215	14.1968
323.006	14.6685
324.794	15.213
326.585	15.7701
328.375	16.039
330.165	16.1747
331.954	16.6801
333.741	17.66
335.53	18.0772
337.318	17.9888
339.106	17.8229
340.894	18.5587
342.679	18.9412
344.466	19.783
346.253	19.9849
348.039	19.6249
349.823	18.9319
351.608	17.5671
353.393	17.0937
355.176	15.5746
356.961	14.9676
358.745	14.2204
360.529	13.3473
362.31	12.7481
364.093	12.0534
365.876	11.0542
367.657	10.8399
369.439	10.2525
371.221	8.85779
373	8.22942
374.781	7.03059
376.56	6.28852
378.34	5.88071
380.12	5.38107
381.898	3.72173
383.677	3.21096
385.456	2.83725
387.233	2.71067
389.011	2.02435
390.787	1.89178
392.565	2.8008
394.34	3.61205
396.117	3.57358
397.894	3.2711
399.668	2.80413
401.444	3.15103
403.217	3.27971
404.993	4.9563
406.766	5.24382
408.54	6.99549
410.312	7.39687
412.086	7.75057
413.858	8.62606
415.631	10.0312
417.402	11.0665
419.174	11.8014
420.944	11.8481
422.716	12.6803
424.486	12.5015
426.257	11.9495
428.025	12.7567
429.794	12.8818
431.564	12.6759
433.332	12.3728
435.101	11.5139
436.868	11.312
438.637	11.5146
440.403	12.2159
442.169	12.5345
443.937	13.5932
445.703	15.0463
447.468	15.2171
449.234	16.5294
450.999	17.1226
452.765	17.534
454.528	17.2063
456.292	18.2048
458.057	19.4554
459.819	20.1338
461.582	21.2696
463.344	20.9747
465.107	21.7785
466.868	22.7618
468.629	22.1747
470.392	22.2129
472.152	24.2199
473.912	24.3491
475.672	25.313
477.433	26.9438
479.192	28.4912
480.951	28.4098
482.709	29.3862
484.469	29.7008
486.226	29.9909
487.984	31.1326
489.74	32.1668
491.499	32.9643
493.255	33.8604
495.011	33.5943
496.767	34.7385
498.522	34.1797
500.277	34.8098
502.033	35.8104
503.788	35.7232
505.541	35.2634
507.295	34.4193
509.048	33.8679
510.801	32.5779
512.553	30.9751
514.308	30.9368
516.06	30.4987
517.811	28.9777
519.562	28.3319
521.313	27.1316
523.063	26.7104
524.814	26.1974
526.563	25.5271
528.313	25.0037
530.062	24.17
531.811	23.7994
533.559	22.4904
535.308	22.3435
537.055	22.0557
538.803	20.9216
540.55	19.3338
542.297	18.7474
544.043	19.1961
545.789	18.7314
547.535	17.9825
549.281	16.695
551.026	15.3344
552.771	15.996
554.515	14.8143
556.259	13.6804
558.003	13.847
559.747	13.5525
561.49	11.8965
563.233	12.4498
564.975	12.1792
566.717	11.2818
568.459	11.292
570.2	11.3536
571.942	11.2156
573.68	11.0414
575.421	10.6856
577.161	9.68068
578.901	8.69
580.64	8.41647
582.379	8.13208
584.118	8.90027
585.855	8.37331
587.593	8.64875
589.331	8.50537
591.068	8.04231
592.805	7.72339
594.54	7.50387
596.277	7.50106
598.013	6.11848
599.749	6.16686
601.484	6.52493
603.217	5.30229
604.952	5.23393
606.687	5.15505
608.421	4.57791
610.153	4.39236
611.886	5.04135
613.619	4.90896
615.35	5.79595
617.083	5.56776
618.815	5.77461
620.547	4.95247
622.276	5.4244
624.008	5.06434
625.738	5.21571
627.467	4.88308
629.197	5.10226
630.927	5.95035
632.655	6.23749
634.384	5.74665
636.113	5.1596
637.839	4.94155
639.568	5.03046
641.293	4.54802
643.021	5.25578
644.748	5.81248
646.473	7.10174
648.2	8.12765
649.924	8.6302
651.65	9.51569
653.376	9.22173
655.099	9.10481
656.824	8.41595
658.546	8.47104
660.271	9.75743
661.993	10.4071
663.716	11.1044
665.438	11.5722
667.161	12.9239
668.881	13.8141
670.604	14.8907
672.324	15.8456
674.045	16.2121
675.765	16.0528
677.486	17.0749
679.204	16.8297
680.925	17.437
682.643	18.0884
684.361	18.0795
686.08	19.8614
687.797	20.9024
689.516	21.3566
691.232	22.547
692.95	23.6193
694.666	23.9518
696.382	25.838
698.099	27.4575
699.813	27.4293
701.528	27.8775
703.244	27.5567
704.958	29.0207
706.673	28.8552
708.387	30.3077
710.099	31.2331
711.814	31.717
713.526	31.6117
715.238	32.367
716.949	34.0925
718.663	34.5095
720.374	34.2235
722.084	35.3628
723.796	36.3217
725.506	37.8515
727.216	39.2063
728.925	39.3812
730.636	40.4064
732.345	42.0011
734.053	41.4596
735.761	41.6379
737.471	42.6908
739.178	42.8186
740.885	43.9886
742.592	45.5358
744.298	47.5142
746.006	49.188
747.712	49.9332
749.417	50.512
751.122	51.8087
752.827	53.8751
754.532	55.4332
756.236	55.8999
757.942	56.8402
759.645	57.1744
761.348	58.5695
763.051	60.024
764.753	60.3036
766.456	61.4582
768.158	62.5118
769.859	63.8688
771.56	65.6163
773.261	65.8142
774.964	67.4746
776.664	68.3683
778.364	67.7418
780.064	67.4654
781.763	68.5713
783.462	68.3134
785.16	67.7949
786.859	67.6469
788.557	67.3838
790.255	68.2487
791.952	68.4196
793.649	68.1252
795.346	67.8381
797.042	66.8336
798.738	66.9143
800.434	67.6852
802.127	67.7096
803.823	66.5898
805.517	65.3027
807.212	65.6367
808.906	64.6344
810.6	64.573
812.293	65.1892
813.987	64.1019
815.68	64.5601
817.372	64.3404
819.064	64.0877
820.754	64.5179
822.446	65.943
824.137	66.8636
825.828	67.9588
827.519	67.973
829.209	68.9258
830.897	69.4619
832.587	69.5719
834.276	68.6565
835.966	69.4933
837.654	70.1807
839.341	69.9501
841.029	69.2465
842.717	69.6967
844.404	69.5897
846.091	68.9292
847.776	67.0961
849.463	65.4316
851.149	64.4425
852.833	63.4174
854.519	62.0725
856.204	60.6497
857.889	59.4059
859.572	58.2867
861.256	56.0085
862.94	54.7235
864.622	53.6755
866.305	51.7855
867.988	49.6445
869.669	47.1011
871.351	44.634
873.033	42.807
874.713	42.1427
876.395	40.0191
878.074	38.1325
879.755	37.1135
881.435	34.9888
883.114	33.9997
884.794	33.1925
886.471	31.6731
888.15	29.9713
889.829	28.8784
891.506	29.5006
893.184	29.1289
894.861	30.0991
896.538	30.4134
898.214	30.1614
899.891	31.7335
901.566	33.1797
903.242	34.466
904.916	35.2172
906.592	35.8124
908.266	35.7003
909.941	35.4435
911.614	35.1482
913.288	36.6265
914.961	36.3193
916.635	36.9236
918.306	38.5813
919.979	40.1029
921.651	40.8741
923.321	40.2744
924.994	39.9927
926.664	40.6599
928.336	41.0855
930.005	40.1204
931.674	39.9991
933.345	40.5996
935.014	40.2475
936.682	40.4142
938.352	40.9564
940.019	41.8564
941.687	42.3832
943.356	41.9488
945.022	41.4468
946.689	41.5399
948.357	40.7805
950.022	41.1606
951.688	40.3804
953.355	40.2937
955.02	39.846
956.684	39.8938
958.348	39.0096
960.014	36.8623
961.678	35.5492
963.341	35.073
965.004	34.59
966.669	35.8291
968.331	36.4404
969.993	36.8195
971.655	36.9221
973.316	39.0185
974.979	40.0153
976.64	40.3649
978.3	40.1916
979.961	40.1117
981.62	40.5666
983.28	40.0839
984.941	39.7411
986.6	37.8086
988.259	37.149
989.917	36.2114
991.575	36.8629
993.233	36.4225
994.89	35.3183
996.547	34.7889
998.204	34.7113
999.86	34.8941
1001.52	34.7811
1003.17	33.8799
1004.83	33.9258
1006.49	33.8408
1008.14	34.3923
1009.79	35.0212
1011.45	34.3167
1013.1	34.3248
1014.76	34.6569
1016.41	34.2831
1018.06	33.6445
1019.72	34.2967
1021.37	34.2953
1023.02	34.4908
1024.67	33.436
1026.32	32.5291
1027.97	31.872
1029.62	32.1708
1031.27	31.2593
1032.92	30.3363
1034.57	28.5986
1036.22	27.786
1037.87	26.4455
1039.52	24.9193
1041.17	24.8215
1042.82	24.4473
1044.47	25.0024
1046.11	26.585
1047.76	26.805
1049.41	27.6911
1051.06	27.5951
1052.7	27.6558
1054.35	27.1773
1055.99	26.1998
1057.64	24.0837
1059.28	23.641
1060.93	22.3189
1062.57	22.9533
1064.22	22.4369
1065.86	21.6834
1067.5	21.5535
1069.15	20.6101
1070.79	21.4942
1072.43	20.7112
1074.08	20.1688
1075.72	18.7575
1077.36	17.9496
1079	17.9691
1080.64	18.7037
1082.28	17.5978
1083.92	17.8374
1085.56	17.9747
1087.2	18.8345
1088.84	19.2184
1090.48	19.7873
1092.12	20.5715
1093.76	22.0768
1095.39	23.5765
1097.03	23.7551
1098.67	24.0671
1100.31	24.4959
1101.94	25.1026
1103.58	25.708
1105.22	26.7708
1106.85	26.5711
1108.49	26.8276
1110.12	27.1306
1111.76	26.5769
1113.39	26.2038
1115.03	25.949
1116.66	25.484
1118.29	24.6649
1119.93	24.9454
1121.56	24.6993
1123.19	25.3215
1124.82	23.9732
1126.46	23.6174
1128.09	23.283
1129.72	22.8966
1131.35	23.0385
1132.98	22.4939
1134.61	21.8726
1136.24	21.2407
1137.87	21.4003
1139.5	21.1652
1141.13	21.2347
1142.76	21.503
1144.39	21.1754
1146.01	20.0792
1147.64	19.4396
1149.27	18.7646
1150.9	17.3669
1152.53	16.9758
1154.15	15.2347
1155.78	13.5476
1157.4	12.3313
1159.03	11.1527
1160.65	9.9706
1162.28	8.94944
1163.9	7.58457
1165.53	7.74879
1167.15	7.94973
1168.78	8.453
1170.4	9.39096
1172.02	9.75137
1173.65	9.86221
1175.27	10.5509
1176.89	9.71236
1178.51	8.77041
1180.14	8.88848
1181.76	9.87807
1183.38	10.4976
1185	10.3415
1186.62	10.7917
1188.24	10.0389
1189.86	9.39805
1191.48	9.89275
1193.1	10.5264
1194.71	12.0402
1196.33	12.4215
1197.95	13.9935
1199.57	15.4473
1201.19	17.8984
1202.8	18.3572
1204.42	19.4835
1206.04	20.6432
1207.65	22.7414
1209.27	25.2044
1210.88	28.6559
1212.5	31.3377
1214.12	33.827
1215.73	36.0962
1217.35	38.9811
1218.96	42.0054
1220.57	43.9314
1222.19	46.3896
1223.8	49.2978
1225.41	51.2341
1227.03	53.6778
1228.64	55.4721
1230.25	56.3455
1231.86	57.0231
1233.47	58.2568
1235.08	58.8872
1236.69	59.5418
1238.31	61.3745
1239.92	62.5342
1241.52	62.8784
1243.13	63.585
1244.74	63.8684
1246.35	64.3433
1247.96	64.9244
1249.57	64.215
1251.18	63.5458
1252.78	62.9153
1254.39	63.4757
1256	63.6255
1257.6	63.3587
1259.21	63.62
1260.82	63.1937
1262.42	62.0745
1264.03	61.1772
1265.63	60.0468
1267.24	59.9737
1268.84	59.1802
1270.45	58.3019
1272.05	59.0355
1273.65	59.4267
1275.26	59.0249
1276.86	59.2762
1278.46	58.9165
1280.06	58.741
1281.67	58.3521
1283.27	58.6094
1284.87	59.0413
1286.47	61.2003
1288.07	62.4969
1289.67	63.7064
1291.27	65.3543
1292.87	65.8982
1294.47	66.769
1296.07	68.7715
1297.67	71.3257
1299.27	72.8908
1300.87	74.0353
1302.47	75.6698
1304.06	78.1758
1305.66	79.7884
1307.26	80.7309
1308.85	83.2837
1310.45	86.2835
1312.05	89.1011
1313.64	91.7534
1315.24	94.3876
1316.83	97.1528
1318.43	98.7283
1320.02	99.02
1321.62	98.9849
1323.21	100.717
1324.8	101.036
1326.4	101.952
1327.99	101.731
1329.59	101.157
1331.18	102.429
1332.77	103.106
1334.36	102.954
1335.95	102.099
1337.54	100.801
1339.14	99.4631
1340.73	97.969
1342.32	97.5371
1343.91	96.3227
1345.5	93.6644
1347.09	92.761
1348.67	90.6547
1350.26	88.1345
1351.85	86.4496
1353.44	84.5471
1355.03	82.878
1356.62	80.8446
1358.2	79.1059
1359.79	77.6235
1361.38	75.2194
1362.96	73.8039
1364.55	70.8019
1366.14	69.1516
1367.72	66.7109
1369.31	65.2376
1370.89	62.9546
1372.48	61.3813
1374.06	60.8235
1375.64	60.7161
1377.23	59.0133
1378.81	57.8603
1380.39	57.1702
1381.98	57.5757
1383.56	57.5095
1385.14	57.5363
1386.72	57.7259
1388.3	58.6692
1389.89	58.2764
1391.47	58.5463
1393.05	57.9396
1394.63	57.4687
1396.21	57.5649
1397.79	56.3227
1399.37	55.7111
1400.95	56.5373
1402.52	56.1177
1404.1	55.3768
1405.68	54.9793
1407.26	54.9651
1408.84	55.4898
1410.42	57.0597
1411.99	57.6714
1413.57	58.7188
1415.15	60.2657
1416.72	61.9958
1418.3	63.6262
1419.87	65.439
1421.45	67.9154
1423.02	69.4143
1424.6	71.9534
1426.17	76.1768
1427.75	78.3146
1429.32	81.4944
1430.89	85.4937
1432.47	89.1266
1434.04	92.4173
1435.61	95.1831
1437.18	98.2521
1438.76	100.09
1440.33	101.993
1441.9	104.506
1443.47	106.086
1445.04	108.032
1446.61	110.356
1448.18	110.485
1449.75	110.624
1451.32	112.077
1452.89	111.718
1454.46	111.351
1456.03	110.525
1457.6	110.087
1459.16	108.08
1460.73	106.668
1462.3	104.568
1463.87	102.812
1465.43	100.784
1467	97.0988
1468.56	93.4927
1470.13	90.0214
1471.7	85.938
1473.26	82.8401
1474.83	79.4357
1476.39	74.4573
1477.96	69.8496
1479.52	65.3052
1481.08	60.3149
1482.65	56.3796
1484.21	52.3493
1485.77	48.8324
1487.34	45.5454
1488.9	42.8704
1490.46	40.3354
1492.02	37.9767
1493.58	35.5026
1495.15	33.1988
1496.71	30.8923
1498.27	28.8132
1499.83	27.7113
1501.39	25.6367
1502.95	24.3845
1504.51	23.6282
1506.07	22.0637
1507.63	21.5772
1509.18	21.174
1510.74	20.5501
1512.3	20.6063
1513.86	19.9324
1515.41	19.7496
1516.97	20.0271
1518.53	20.279
1520.08	20.536
1521.64	20.5754
1523.2	20.8176
1524.75	21.7374
1526.31	21.6725
1527.86	22.221
1529.42	23.0155
1530.97	23.8355
1532.52	25.384
1534.08	26.4048
1535.63	28.1521
1537.19	29.5197
1538.74	31.857
1540.29	34.0004
1541.84	35.9107
1543.4	37.4509
1544.95	38.0344
1546.5	40.8495
1548.05	43.0255
1549.6	45.6856
1551.15	48.043
1552.7	51.1841
1554.25	53.3339
1555.8	55.5412
1557.35	57.8678
1558.9	60.6666
1560.45	62.4428
1562	65.6792
1563.54	67.3167
1565.09	69.9089
1566.64	71.7086
1568.19	73.2432
1569.73	74.0008
1571.28	75.6404
1572.83	77.3762
1574.37	79.0095
1575.92	79.5184
1577.47	81.554
1579.01	81.422
1580.56	83.0985
1582.1	83.3498
1583.64	85.0142
1585.19	86.2413
1586.73	87.8522
1588.28	88.4732
1589.82	89.3376
1591.36	89.1008
1592.9	89.6081
1594.45	89.9168
1595.99	88.7888
1597.53	87.8438
1599.07	87.8872
1600.61	87.1101
1602.15	85.98
1603.69	85.0763
1605.23	83.8116
1606.77	83.625
1608.31	83.3398
1609.85	82.722
1611.39	82.366
1612.93	82.3966
1614.47	82.2074
1616.01	81.6073
1617.55	80.5073
1619.08	79.995
1620.62	79.6031
1622.16	79.6041
1623.7	80.4601
1625.23	81.0225
1626.77	82.575
1628.3	84.221
1629.84	84.8977
1631.37	85.2917
1632.91	85.5596
1634.44	87.0028
1635.98	88.1079
1637.51	89.6048
1639.05	91.1052
1640.58	91.9731
1642.11	93.9737
1643.65	94.8341
1645.18	95.7509
1646.71	97.7588
1648.24	99.0908
1649.78	99.973
1651.31	100.734
1652.84	100.509
1654.37	101.412
1655.9	101.668
1657.43	103.195
1658.96	103.238
1660.49	104.63
1662.02	103.891
1663.55	103.494
1665.08	102.193
1666.61	100.751
1668.14	98.3276
1669.66	96.754
1671.19	93.9909
1672.72	90.9156
1674.25	88.8756
1675.77	86.1728
1677.3	82.6626
1678.83	79.8229
1680.35	76.5745
1681.88	73.3895
1683.4	70.7274
1684.93	67.4021
1686.45	64.5029
1687.98	60.2162
1689.5	56.9591
1691.03	53.2698
1692.55	49.4565
1694.07	46.7291
1695.6	44.0647
1697.12	41.439
1698.64	39.3135
1700.17	37.5382
1701.69	35.6423
1703.21	33.927
1704.73	32.3514
1706.25	31.1911
1707.77	30.2083
1709.29	28.3596
1710.81	27.6336
1712.33	26.108
1713.85	25.34
1715.37	24.1391
1716.89	23.6411
1718.41	22.9016
1719.93	21.6478
1721.45	20.0267
1722.97	19.897
1724.49	19.031
1726	18.1657
1727.52	17.6613
1729.04	16.9708
1730.55	17.0146
1732.07	17.2584
1733.59	17.3648
1735.1	16.642
1736.62	16.5553
1738.13	16.3898
1739.65	15.8543
1741.16	14.9548
1742.68	13.7292
1744.19	13.1137
1745.7	12.3404
1747.22	11.3606
1748.73	11.0788
1750.24	10.4495
1751.76	9.56559
1753.27	8.62762
1754.78	7.7666
1756.29	7.08094
1757.8	7.19356
1759.31	6.68381
1760.83	5.88948
1762.34	5.13653
1763.85	4.30168
1765.36	5.10198
1766.87	4.87665
1768.38	4.7861
1769.89	4.79783
1771.39	4.2659
1772.9	4.86333
1774.41	4.70205
1775.92	4.86503
1777.43	4.72485
1778.94	5.17838
1780.44	5.37184
1781.95	5.44118
1783.46	4.92471
1784.96	4.61684
1786.47	4.39186
1787.97	4.30338
1789.48	4.49858
1790.99	4.34168
1792.49	4.1789
1794	3.47149
1795.5	2.87232
1797	2.72337
1798.51	3.50099
1800.01	3.35725
1801.51	3.20989
1803.02	3.71042
1804.52	3.866
1806.02	4.43111
1807.53	4.75181
1809.03	4.78541
1810.53	4.52162
1812.03	5.12482
1813.53	4.98919
1815.03	3.88653
1816.53	3.45322
1818.03	3.4445
1819.53	3.49486
1821.03	2.63394
1822.53	2.21491
1824.03	1.85361
1825.53	1.50689
1827.03	1.51139
1828.53	1.55023
1830.02	1.65958
1831.52	1.97534
1833.02	1.71119
1834.52	1.41512
1836.01	0.899854
1837.51	0.800644
1839.01	1.26424
1840.5	0.973448
1842	0.640926
1843.49	0.58122
1844.99	1.03587
1846.48	1.30953
1847.98	1.17841
1849.47	1.4618
1850.97	1.67243
1852.46	1.72326
1853.95	1.68162
1855.45	1.2278
1856.94	0.969732
1858.43	0.971054
1859.93	0.929201
1861.42	0.806479
1862.91	1.22721
1864.4	1.02842
1865.89	0.81206
1867.38	1.21842
1868.87	1.56069
1870.36	2.38692
1871.85	2.97596
1873.34	3.63678
1874.83	3.69147
1876.32	3.62298
1877.81	3.93734
1879.3	4.23454
1880.79	4.06105
1882.28	3.65717
1882.52	3.53419
1884.02	3.24202
1885.51	3.58488
1887.01	3.76034
1888.5	3.4705
1889.99	3.4746
1891.49	4.12145
1892.98	3.84088
1894.47	3.10325
1895.97	3.30946
1897.46	3.10906
1898.95	2.34433
1900.44	2.06686
1901.93	1.83527
1903.42	1.94757
1904.91	1.71616
1906.4	1.64571
1907.89	2.03585
1909.38	2.36128
1910.87	2.97169
1912.36	3.45319
1913.85	3.35439
1915.34	4.09434
1916.83	4.51061
1918.32	4.43888
1919.8	4.40847
1921.29	3.51498
1922.78	3.71789
1924.27	3.36202
1925.75	3.61619
1927.24	3.52534
1928.73	3.89943
1930.21	3.53916
1931.7	3.30618
1933.18	3.06225
1934.67	2.54939
1936.15	2.72705
1937.64	2.86683
1939.12	3.24255
1940.61	4.23529
1942.09	4.24036
1943.57	4.06622
1945.06	3.65223
1946.54	3.44685
1948.02	3.2402
1949.51	3.46048
1950.99	3.83885
1952.47	3.49064
1953.95	3.26519
1955.43	3.41224
1956.91	4.11288
1958.4	4.06113
1959.88	4.05593
1961.36	3.76522
1962.84	3.18397
1964.32	2.92213
1965.8	2.96054
1967.27	2.21834
1968.75	1.67321
1970.23	1.95289
1971.71	1.52401
1973.19	1.436
1974.67	2.41224
1976.14	2.88917
1977.62	3.71213
1979.1	4.29417
1980.58	5.22312
1982.05	5.55402
1983.53	5.39998
1985	5.39081
1986.48	5.30962
1987.95	5.24422
1989.43	6.0653
1990.9	5.94342
1992.38	5.79868
1993.85	5.96676
1995.33	5.62167
1996.8	5.39494
1998.27	5.22982
1999.75	5.08021
2001.22	4.78788
2002.69	5.03291
2004.16	4.25744
2005.64	3.88194
2007.11	3.47084
2008.58	3.40763
2010.05	4.22487
2011.52	4.54597
2012.99	4.73731
2014.46	4.28707
2015.93	3.91138
2017.4	4.29285
2018.87	4.33362
2020.34	4.80907
2021.81	4.72617
2023.28	4.5627
2024.75	4.33054
2026.22	3.72899
2027.69	3.15239
2029.15	2.8731
2030.62	3.06781
2032.09	2.57835
2033.56	2.93761
2035.02	2.87402
2036.49	2.46823
2037.96	2.85644
2039.42	2.24599
2040.89	2.12721
2042.35	1.98037
2043.82	2.19956
2045.28	2.46348
2046.75	2.49239
2048.21	2.80721
2049.67	2.3615
2051.14	3.00151
2052.6	2.86982
2054.07	2.99515
2055.53	2.3423
2056.99	3.05528
2058.45	3.30296
2059.92	3.63183
2061.38	4.0978
2062.84	4.73614
2064.3	4.27725
2065.76	3.98332
2067.22	3.98504
2068.68	3.58896
2070.14	3.20677
2071.6	4.00794
2073.06	4.51915
2074.52	4.76751
2075.98	4.68796
2077.44	5.07556
2078.9	4.9579
2080.36	4.77831
2081.82	5.45843
2083.27	6.08501
2084.73	5.51647
2086.19	4.87077
2087.65	4.35256
2089.1	5.10049
2090.56	4.73005
2092.02	3.99787
2093.47	3.7019
2094.93	2.94011
2096.38	3.05223
2097.84	2.88242
2099.29	2.83564
2100.75	2.58012
2102.2	3.07763
2103.66	3.3949
2105.11	3.28146
2106.56	3.11949
2108.02	2.58821
2109.47	2.40655
2110.92	2.95934
2112.38	2.21536
2113.83	2.53843
2115.28	2.49372
2116.73	2.89996
2118.18	3.06643
2119.63	2.24671
2121.09	2.0104
2122.54	1.32863
2123.99	1.96948
2125.44	2.05892
2126.89	2.54284
2128.34	2.19515
2129.79	3.15663
2131.23	3.05375
2132.68	3.11031
2134.13	2.78946
2135.58	2.47889
2137.03	1.9283
2138.48	2.62336
2139.92	2.68223
2141.37	2.44532
2142.82	2.4296
2144.27	2.65124
2145.71	2.70655
2147.16	2.97227
2148.6	3.32142
2150.05	3.46735
2151.49	2.50864
2152.94	2.60314
2154.38	3.12214
2155.83	2.88419
2157.27	2.59031
2158.72	2.22402
2160.16	2.98871
2161.6	3.16085
2163.05	2.75965
2164.49	2.88431
2165.93	3.12514
2167.38	3.49458
2168.82	4.09341
2170.26	4.19915
2171.7	4.7996
2173.14	4.59131
2174.58	5.30871
2176.03	5.62755
2177.47	5.93202
2178.91	5.68631
2180.35	5.84333
2181.79	5.94673
2183.23	5.71568
2184.67	6.07722
2186.1	6.18744
2187.54	6.12664
2188.98	5.82215
2190.42	5.23198
2191.86	4.99347
2193.3	4.76871
2194.73	4.73443
2196.17	5.21231
2197.61	5.09171
2199.05	4.98121
2200.48	4.85977
2201.92	4.74462
2203.35	3.82494
2204.79	3.40135
2206.22	3.41137
2207.66	2.72988
2209.1	2.91344
2210.53	3.3437
2211.97	2.61805
2213.4	2.59801
2214.83	2.41826
2216.27	2.7112
2217.7	2.75036
2219.13	3.27579
2220.57	3.41496
2222	2.81165
2223.43	3.45096
2224.86	3.82358
2226.29	3.80272
2227.72	3.38838
2229.16	3.39393
2230.59	3.72281
2232.02	4.59549
2233.45	4.84862
2234.88	5.24493
2236.31	5.85624
2237.74	6.25955
2239.17	6.32873
2240.6	7.171
2242.03	7.69338
2243.45	8.06421
2244.88	8.13491
2246.31	9.1353
2247.74	9.0698
2249.17	9.19809
2250.59	9.44185
2252.02	8.93062
2253.45	9.08378
2254.87	9.00433
2256.3	9.20216
2257.73	8.35865
2259.15	8.13402
2260.58	8.38134
2262	8.79658
2263.43	8.57664
2264.85	7.78553
2266.28	7.56892
2267.7	6.98003
2269.13	7.16531
2270.55	6.8682
2271.97	6.22926
2273.4	5.65371
2274.82	5.68272
2276.24	5.82491
2277.67	5.69847
2279.09	5.59758
2280.51	5.97659
2281.93	5.89835
2283.35	5.60873
2284.77	4.91829
2286.2	4.64411
2287.62	4.54978
2289.04	4.39942
2290.46	4.89142
2291.88	3.99006
2293.3	3.38753
2294.72	3.58923
2296.13	3.30588
2297.55	3.09637
2298.97	3.76523
2300.39	4.69273
2301.81	5.66058
2303.23	6.52556
2304.64	8.03663
2306.06	8.07118
2307.48	8.1178
2308.89	8.37043
2310.31	8.90319
2311.73	9.6675
2313.14	10.0914
2314.56	10.2472
2315.98	10.2918
2317.39	10.2792
2318.81	9.65159
2320.22	9.94156
2321.64	9.64607
2323.05	8.39454
2324.46	8.72865
2325.88	8.13459
2327.29	7.90482
2328.7	7.96363
2330.12	8.25723
2331.53	8.29908
2332.94	7.6521
2334.35	6.66744
2335.77	6.03718
2337.18	5.60969
2338.59	5.28498
2340	4.9339
2341.41	3.95247
2342.82	3.49979
2344.23	3.71459
2345.64	3.80448
2347.05	3.22413
2348.46	2.89611
2349.87	2.63016
2351.28	1.59249
2352.69	1.28238
2354.1	1.09201
2355.51	0.737568
2356.91	1.30957
2358.32	1.04299
2359.73	0.958205
2361.14	1.12145
2362.54	0.863516
2363.95	1.67839
2365.36	2.90748
2366.76	3.51936
2368.17	3.53312
2369.58	4.33461
2370.98	4.73099
2372.39	5.036
2373.79	5.58473
2375.2	5.49287
2376.6	4.47103
2378	4.65089
2379.41	5.1137
2380.81	4.9489
2382.22	4.70023
2383.62	4.52508
2385.02	4.21906
2386.43	4.55965
2387.83	4.07138
2389.23	4.47758
2390.63	4.22827
2392.03	3.43003
2393.44	3.17908
2394.84	3.61331
2396.24	3.35452
2397.64	3.61656
2399.04	3.42238
2400.44	3.92898
2401.84	3.78044
2403.24	3.94875
2404.64	4.06919
2406.04	4.52734
2407.44	4.90231
2408.84	5.28438
2410.23	5.47768
2411.63	6.62987
2413.03	7.50909
2414.43	8.29861
2415.83	8.47256
2417.22	8.45535
2418.62	9.11761
2420.02	9.76739
2421.41	10.1721
2422.81	11.0121
2424.21	11.4681
2425.6	11.6316
2427	12.1053
2428.39	12.0914
2429.79	12.7577
2431.18	13.2891
2432.58	13.1124
2433.97	12.956
2435.36	12.5212
2436.76	11.991
2438.15	11.7803
2439.54	12.2348
2440.94	11.8079
2442.33	10.835
2443.72	10.7228
2445.12	9.73739
2446.51	8.9925
2447.9	8.82031
2449.29	8.23643
2450.68	7.40666
2452.07	6.7464
2453.46	6.00654
2454.85	5.62991
2456.24	4.76395
2457.64	3.93707
2459.02	3.9245
2460.41	3.27383
2461.8	2.60992
2463.19	2.81248
2464.58	2.24578
2465.97	1.55128
2467.36	1.40343
2468.75	1.57629
2470.13	1.53371
2471.52	1.01837
2472.91	1.10096
2474.3	0.279754
2475.68	0.239772
2477.07	0.00199099
2478.45	0.112027
2479.84	0.382828
2481.23	1.01515
2482.61	0.754523
2484	0.91496
2485.38	1.46417
2486.77	1.63587
2488.15	2.06517
2489.54	1.87486
2490.92	2.62466
2492.3	3.06916
2493.69	3.00036
2495.07	3.3788
2496.45	3.55785
2497.84	3.50885
2499.22	3.56318
2500.6	3.34963
2501.98	3.3612
2503.36	3.81079
2504.75	4.02756
2506.13	4.5193
2507.51	4.56426
2508.89	4.70633
2510.27	4.18089
2511.65	4.57418
2513.03	5.11347
2514.41	5.34773
2515.79	5.03724
2517.17	5.57545
2518.55	4.66374
2519.93	4.60804
2521.3	4.46547
2522.68	4.45711
2524.06	4.41049
2525.44	4.12993
2526.82	4.19009
2528.19	3.43284
2529.57	3.04849
2530.95	2.37813
2532.32	2.46755
2533.7	2.15469
2535.08	2.20982
2536.45	1.74917
2537.83	1.26001
2539.2	0.585718
2540.58	0.702078
2541.95	0.72636
2543.33	0.397323
2544.7	1.30074
2546.08	1.42664
2547.45	2.15521
2548.82	2.53081
2550.2	2.91786
2551.57	2.73779
2552.94	2.93039
2554.32	3.15077
2555.69	2.83918
2557.06	3.01679
2558.43	3.69413
2559.8	4.80722
2561.18	4.20972
2562.55	4.20392
2563.92	4.57669
2565.29	4.73085
2566.66	5.36644
2568.03	5.68772
2569.4	6.16231
2570.77	6.80545
2572.14	6.76412
2573.51	6.61729
2574.88	6.69042
2576.25	6.6578
2577.61	6.76731
2578.98	7.23367
2580.35	7.478
2581.72	6.98479
2583.09	7.46632
2584.45	6.89062
2585.82	6.61469
2587.19	6.07128
2588.55	6.55026
2589.92	6.12748
2591.29	6.45299
2592.65	5.8333
2594.02	5.48779
2595.38	5.13021
2596.75	5.20641
2598.11	5.40362
2599.48	5.18644
2600.84	5.09226
2602.21	4.79
2603.57	3.94134
2604.93	3.18453
2606.3	3.02886
2607.66	3.3742
2609.02	3.48611
2610.39	3.46497
2611.75	3.79048
2613.11	4.24964
2614.47	4.5082
2615.83	4.49579
2617.19	4.47725
2618.56	4.49868
2619.92	4.49016
2621.28	4.65995
2622.64	5.40403
2624	5.83427
2625.36	6.19885
2626.72	6.6944
2628.08	6.81807
2629.44	6.78302
2630.8	7.3
2632.15	7.66237
2633.51	8.23751
2634.87	8.34357
2636.23	8.1998
2637.59	8.78967
2638.94	8.89591
2640.3	8.47605
2641.66	8.78086
2643.02	9.07486
2644.37	9.11847
2645.73	9.21755
2647.09	9.44491
2648.44	9.13057
2649.8	9.20699
2651.15	9.39957
2652.51	9.19491
2653.86	9.0696
2655.22	9.58113
2656.57	9.24387
2657.93	8.91095
2659.28	9.00713
2660.63	8.48582
2661.99	8.3855
2663.34	8.20693
2664.69	8.41538
2666.05	7.85216
2667.4	7.4913
2668.75	7.09756
2670.1	7.04521
2671.45	6.98292
2672.81	6.84284
2674.16	6.88575
2675.51	7.31759
2676.86	7.03051
2678.21	6.71177
2679.56	6.57507
2680.91	6.07538
2682.26	5.811
2683.61	5.42092
2684.96	5.79017
2686.31	5.33388
2687.66	5.57915
2689	5.57783
2690.35	6.03982
2691.7	5.8059
2693.05	6.46707
2694.4	7.18757
2695.74	7.70035
2697.09	7.81272
2698.44	8.13256
2699.79	8.72528
2701.13	9.41983
2702.48	9.54935
2703.83	10.3519
2705.17	10.7225
2706.52	10.5733
2707.86	10.6023
2709.21	11.5628
2710.55	11.654
2711.9	11.3983
2713.24	11.6176
2714.58	12.5547
2715.93	13.0098
2717.27	13.2713
2718.62	13.3909
2719.96	14.1965
2721.3	13.9613
2722.65	13.7588
2723.99	14.3511
2725.33	14.941
2726.67	15.7529
2728.01	16.2456
2729.35	15.6157
2730.7	16.0476
2732.04	16.8556
2733.38	16.7339
2734.72	16.6969
2736.06	16.6552
2737.4	16.8918
2738.74	16.584
2740.08	16.1572
2741.42	16.4248
2742.76	16.3376
2744.1	15.779
2745.43	15.678
2746.77	15.4943
2748.11	15.3076
2749.45	15.1212
2750.79	14.8899
2752.12	14.8904
2753.46	14.4589
2754.8	14.6764
2756.14	14.3912
2757.47	14.3976
2758.81	14.2268
2760.14	14.4326
2761.48	14.3559
2762.81	13.9097
2764.15	13.0083
2765.49	12.9935
2766.82	12.795
2768.16	12.5041
2769.49	11.9311
2770.82	11.4922
2772.16	10.6754
2773.49	10.3292
2774.82	9.88408
2776.16	9.77559
2777.49	8.59644
2778.82	8.43188
2780.16	8.54562
2781.49	9.05913
2782.82	7.96837
2784.15	6.7961
2785.48	5.9743
2786.82	5.31532
2788.15	4.64905
2789.48	4.47893
2790.81	4.73696
2792.14	4.03415
2793.47	3.72521
2794.8	2.77393
2796.13	2.41822
2797.46	2.83118
2798.79	2.53529
2800.12	1.83581
2801.44	1.28736
2802.77	1.60951
2804.1	1.83044
2805.43	1.6344
2806.76	0.94689
2808.08	0.958503
2809.41	1.1911
2810.74	0.892794
2812.07	0.553501
2813.39	0.555344
2814.72	0.799796
2816.05	1.13401
2817.37	1.86713
2818.7	3.2687
2820.02	3.97473
2821.35	5.29714
2822.67	6.67062
2824	7.92061
2825.32	10.2952
2826.65	12.4279
2827.97	14.5816
2829.3	16.8253
2830.62	18.7109
2831.94	20.9835
2833.26	23.916
2834.59	26.7983
2835.91	28.853
2837.23	31.6494
2838.56	35.1034
2839.88	38.5151
2841.2	42.6741
2842.52	46.8205
2843.84	51.8868
2845.16	57.0111
2846.48	62.1629
2847.8	67.5086
2849.12	72.5455
2850.45	78.8481
2851.77	85.386
2853.08	91.6515
2854.4	99.1938
2855.72	105.883
2857.04	112.623
2858.36	119.15
2859.68	126.058
2861	133.136
2862.32	140.276
2863.63	146.483
2864.95	152.308
2866.27	158.665
2867.59	164.631
2868.9	170.85
2870.22	176.334
2871.54	181.039
2872.85	185.878
2874.17	190.859
2875.48	195.752
2876.8	199.404
2878.11	204.082
2879.43	208.839
2880.74	212.888
2882.06	216.826
2883.37	221.185
2884.69	225.264
2886	228.402
2887.31	231.663
2888.63	235.294
2889.94	238.815
2891.25	241.868
2892.57	244.789
2893.88	247.944
2895.19	251.089
2896.5	253.8
2897.82	256.958
2899.13	260.955
2900.44	264.425
2901.75	268.127
2903.06	274.027
2904.37	279.386
2905.68	285.069
2906.99	291.843
2908.3	298.845
2909.61	306.022
2910.92	313.255
2912.23	321.066
2913.54	328.516
2914.85	335.632
2916.16	341.96
2917.46	348.5
2918.77	354.154
2920.08	360.308
2921.39	364.916
2922.7	369.305
2924	373.114
2925.31	376.512
2926.62	379.284
2927.92	381.235
2929.23	381.627
2930.54	382.168
2931.84	382.718
2933.15	382.116
2934.45	380.619
2935.76	378.449
2937.06	375.79
2938.37	372.367
2939.67	368.682
2940.98	364.722
2942.28	360.453
2943.58	355.541
2944.89	350.199
2946.19	344.028
2947.49	337.751
2948.8	331.612
2950.1	324.121
2951.4	316.904
2952.7	309.752
2954.01	302.47
2955.31	295.161
2956.61	287.483
2957.91	280.453
2959.21	273.065
2960.51	266.005
2961.81	259.078
2963.11	252.49
2964.41	246.66
2965.71	241.208
2967.01	235.381
2968.31	229.904
2969.61	224.449
2970.91	219.599
2972.21	214.728
2973.51	209.413
2974.81	203.894
2976.1	198.843
2977.4	193.616
2978.7	187.794
2980	182.233
2981.29	175.776
2982.59	170.002
2983.89	163.389
2985.18	157.313
2986.48	150.8
2987.78	144.683
2989.07	138.216
2990.37	131.703
2991.66	125.554
2992.96	118.768
2994.25	112.146
2995.55	106.128
2996.84	100.611
2998.14	94.5824
2999.43	88.852
3000.73	83.253
3002.02	77.6804
3003.31	71.8975
3004.61	66.887
3005.9	62.139
3007.19	57.9745
3008.48	52.8404
3009.77	49.1006
3011.07	44.5454
3012.36	40.6109
3013.65	36.6692
3014.94	33.351
3016.23	30.5935
3017.52	27.6383
3018.81	24.7164
3020.1	22.6321
3021.4	19.93
3022.68	17.9357
3023.97	16.1354
3025.26	14.9084
3026.55	13.6991
3027.84	12.5941
3029.13	11.3533
3030.42	10.6209
3031.71	9.94545
3033	9.74011
3034.28	9.81018
3035.57	10.0349
3036.86	9.98492
3038.15	10.4245
3039.43	11.7603
3040.72	12.4232
3042.01	13.5627
3043.29	14.1828
3044.58	15.1751
3045.87	15.5613
3047.15	16.4327
3048.44	18.0994
3049.72	18.7407
3051.01	19.3144
3052.29	20.5223
3053.58	21.2568
3054.86	21.9888
3056.15	23.3735
3057.43	23.1676
3058.71	23.7412
3060	23.8228
3061.28	24.5032
3062.56	24.2002
3063.84	24.2364
3065.13	23.4611
3066.41	22.9044
3067.69	22.5629
3068.97	22.3124
3070.26	22.2818
3071.54	21.5949
3072.82	20.8276
3074.1	19.8231
3075.38	18.6052
3076.66	17.3843
3077.94	16.1964
3079.22	15.3542
3080.5	13.7598
3081.78	12.365
3083.06	10.3331
3084.34	8.77286
3085.62	7.24469
3086.9	6.32467
3088.18	5.04028
3089.45	4.15291
3090.73	3.08384
3092.01	1.92228
3093.29	1.25642
3094.56	0.822802
3095.84	0.139886
3097.12	-0.0889233
3098.4	-0.236663
3099.67	-0.0576587
3100.95	0.00205349
3102.22	0.459758
3103.5	0.944726
3104.78	1.07964
3106.05	1.89296
3107.33	2.48228
3108.6	2.87855
3109.88	3.54187
3111.15	4.19559
3112.43	5.04041
3113.7	5.02128
3114.97	6.09926
3116.25	6.93642
3117.52	7.37608
3118.79	7.84627
3120.07	8.66177
3121.34	8.59354
3122.61	9.74018
3123.88	10.7756
3125.16	11.8089
3126.43	12.4865
3127.7	13.4762
3128.97	14.3706
3130.24	15.603
3131.51	17.06
3132.79	18.465
3134.06	19.7778
3135.33	20.6494
3136.6	21.7449
3137.87	22.2437
3139.14	23.4807
3140.41	24.4279
3141.67	25.6328
3142.94	26.8035
3144.21	28.0152
3145.48	29.4314
3146.75	31.5168
3148.02	32.8104
3149.29	34.2535
