#Acq. time (s)=	45
#Accumulations=	2
#Range (cm-¹)=	200...3150
#Windows=	2
#Auto scanning=	Off
#Autofocus=	Off
#Macrospot=	Off
#AutoExposure=	Off
#Spike filter=	Multiple accum.
#Delay time (s)=	0
#Binning=	1
#Readout mode=	Signal
#DeNoise=	Off
#ICS correction=	On
#Dark correction=	Off
#Inst. Process=	Off
#Detector Gain=	Best Dynamic Range
#Detector ADC=	20 kHz       
#Detector temperature (°C)=	-69.85
#Instrument=	LabRAM HR Evol
#Detector=	Synapse
#Objective=	x100
#Grating=	600 gr/mm
#ND Filter=	100%
#Laser (nm)=	532 
#Hole=	100.021
#Range=	Auto
#Laser Pol.=	No
#Raman. Pol.=	No
#Laser Pol. (°)=	-0.0007625
#Raman Pol. (°)=	89.9995
#Collection=	Microscope
#StageXY=	Marzhauser
#StageZ=	Marzhauser
#X (µm)=	4755
#Y (µm)=	-7706.9
#Z (µm)=	584.4
#Full time(mm:ss)=	3:08
#Project=	
#Sample=	
#Site=	
#Title=	Thy_30_10_32_2x_45s_532 nm_x100_100%_600 gr_mm
#Remark=	
#Date=	30.06.2022 13:45
#Acquired=	30.06.2022 13:45:54
#Base:Fit=	10.08.2022 09:58:11
#Base:Sub=	10.08.2022 09:58:44
#Filter:Polynom=	16.08.2022 10:22:53
#AxisType[0]=Intens
#AxisUnit[0]=Cnt
#AxisType[1]=Spectr
#AxisUnit[1]=1/cm
200.533	9.90937
202.348	9.49249
204.162	8.9069
205.976	9.21158
207.792	8.81709
209.605	8.2221
211.418	8.15484
213.23	8.4079
215.044	8.77691
216.856	9.10392
218.667	10.038
220.478	10.093
222.289	10.3317
224.102	9.7686
225.912	9.9765
227.721	9.56322
229.531	8.45226
231.34	8.53279
233.148	8.40474
234.956	8.23668
236.766	7.59735
238.574	7.38742
240.381	7.63343
242.188	7.3215
243.994	6.5672
245.801	6.00608
247.606	6.11275
249.412	6.66875
251.217	6.9174
253.024	6.66961
254.828	5.63573
256.632	6.3507
258.436	6.13422
260.239	5.70902
262.042	6.07175
263.845	5.25185
265.647	5.4622
267.449	5.88371
269.25	6.58048
271.052	7.31373
272.852	7.47361
274.653	7.22389
276.453	7.67138
278.253	7.82615
280.052	9.10226
281.852	9.54427
283.65	9.719
285.449	10.7718
287.247	11.8823
289.044	11.9226
290.842	11.6282
292.639	11.3731
294.436	12.3275
296.232	12.1931
298.028	12.9545
299.821	13.9214
301.617	14.8502
303.412	15.3796
305.206	15.0087
307	14.7286
308.794	15.0469
310.588	14.1705
312.381	13.8143
314.172	12.8982
315.964	13.1346
317.756	13.3599
319.548	12.9985
321.34	13.3414
323.131	12.5668
324.921	12.311
326.71	11.7775
328.5	11.3783
330.29	11.2668
332.079	10.6605
333.868	10.7893
335.654	11.0313
337.443	10.9174
339.231	10.4647
341.018	9.41412
342.804	8.62567
344.591	7.92139
346.377	7.62095
348.163	6.4067
349.947	6.72252
351.733	6.05611
353.518	5.99567
355.303	6.78272
357.085	5.86808
358.869	5.82532
360.653	6.20663
362.435	5.40482
364.218	5.93129
366.001	5.77966
367.781	5.4355
369.563	4.81841
371.345	3.57311
373.124	3.14017
374.905	3.45781
376.686	3.46122
378.464	2.50624
380.244	2.43136
382.022	3.35107
383.801	3.32749
385.58	3.04753
387.357	2.92318
389.135	2.5337
390.911	2.34837
392.689	2.26382
394.466	1.74822
396.241	1.98518
398.018	2.17266
399.792	1.37724
401.568	1.35008
403.341	1.34532
405.117	2.01262
406.889	2.32691
408.664	0.879272
410.436	1.10528
412.21	0.84444
413.981	1.55908
415.755	0.697231
417.525	0.631767
419.298	1.94429
421.068	2.31073
422.84	2.72191
424.609	2.33589
426.38	2.39586
428.149	3.03728
429.919	2.98265
431.688	2.93828
433.455	3.32483
435.225	3.76999
436.992	4.30165
438.76	4.3948
440.527	3.75627
442.293	4.47241
444.06	4.719
445.826	4.93889
447.593	5.55932
449.357	5.64529
451.122	5.71272
452.888	5.72685
454.651	5.43704
456.415	5.39854
458.18	6.19778
459.942	7.48505
461.705	7.87411
463.469	8.6332
465.23	8.84085
466.991	8.72947
468.752	9.09719
470.515	9.57114
472.275	9.56114
474.035	10.483
475.797	10.3967
477.556	10.903
479.315	11.6114
481.073	11.8239
482.834	11.9789
484.592	12.214
486.349	12.2617
488.106	12.2926
489.863	12.3516
491.622	12.7771
493.378	12.7821
495.134	12.192
496.889	12.125
498.645	12.7575
500.401	12.9051
502.156	14.2372
503.91	14.5512
505.664	15.8256
507.417	16.3523
509.171	15.9271
510.923	15.2283
512.678	14.9464
514.43	14.7318
516.182	14.6865
517.933	14.3674
519.684	14.0152
521.435	13.9936
523.186	13.9196
524.936	13.4262
526.686	12.4676
528.435	12.1528
530.184	12.0037
531.933	10.7875
533.682	10.651
535.43	10.3928
537.18	9.83842
538.927	9.65061
540.674	9.64993
542.421	8.71674
544.167	8.78325
545.913	8.41265
547.659	8.09892
549.403	7.00655
551.148	7.51842
552.893	7.07534
554.637	7.16971
556.381	6.32437
558.125	5.63185
559.868	5.69541
561.611	5.27262
563.354	5.36111
565.097	4.88419
566.839	5.40217
568.581	5.12688
570.322	5.3132
572.063	5.18254
573.802	4.59991
575.542	4.87573
577.283	4.54848
579.022	5.36383
580.762	4.72439
582.501	4.61236
584.24	5.08656
585.976	5.1934
587.714	5.07912
589.452	4.96325
591.19	3.80321
592.927	3.11682
594.663	2.28634
596.398	1.45952
598.134	1.19498
599.87	1.76688
601.605	2.07058
603.338	1.87232
605.073	2.36772
606.808	2.45517
608.542	3.16233
610.274	3.6918
612.007	4.69194
613.74	5.49571
615.473	6.12819
617.204	7.30087
618.936	8.07197
620.668	8.75899
622.397	8.65629
624.128	8.81654
625.859	8.60194
627.588	9.23259
629.318	8.79857
631.048	9.10101
632.775	8.87513
634.505	9.90139
636.233	10.0378
637.96	9.94832
639.688	9.78877
641.416	9.64064
643.142	9.30872
644.869	9.71284
646.594	10.5036
648.32	11.1874
650.045	12.2042
651.771	12.1304
653.496	13.2403
655.219	13.4049
656.944	12.9468
658.667	12.9704
660.391	14.5724
662.113	14.9236
663.837	14.3602
665.558	13.8725
667.281	13.6043
669.002	13.8038
670.724	13.3247
672.444	13.839
674.166	13.7865
675.885	13.9375
677.606	14.5763
679.325	15.4102
681.045	15.7023
682.763	16.2873
684.483	17.5151
686.2	18.8802
687.917	20.0279
689.636	21.1452
691.352	22.9735
693.07	24.3884
694.786	25.2836
696.501	26.4988
698.219	27.7186
699.933	28.5865
701.65	29.6979
703.364	30.721
705.078	31.2746
706.793	31.926
708.506	34.1718
710.219	35.1302
711.934	36.2135
713.646	37.5488
715.358	38.7143
717.071	39.4436
718.782	40.1252
720.493	40.506
722.204	40.0515
723.916	40.454
725.626	40.9292
727.336	41.4596
729.045	41.9307
730.756	43.3404
732.464	43.4503
734.173	44.5255
735.881	44.5351
737.59	44.7083
739.297	45.8723
741.004	46.4586
742.711	47.4147
744.417	49.2742
746.125	50.3219
747.831	50.5628
749.537	51.576
751.242	53.012
752.946	54.7063
754.651	55.8737
756.357	56.6501
758.061	58.0778
759.764	58.7829
761.467	59.5274
763.17	60.9896
764.872	61.282
766.575	61.4419
768.276	62.2036
769.978	63.5667
771.679	64.6628
773.382	65.0079
775.083	66.2576
776.783	67.125
778.483	67.4119
780.182	67.8243
781.882	68.331
783.581	69.0111
785.279	70.0018
786.978	70.876
788.676	71.6888
790.373	72.8695
792.071	73.9043
793.768	74.379
795.464	73.8646
797.161	74.1544
798.857	74.3055
800.552	75.0695
802.248	74.7407
803.941	75.1165
805.636	74.9961
807.33	74.9936
809.024	75.0496
810.718	74.9265
812.412	75.1639
814.105	75.2495
815.798	76.0442
817.49	76.1403
819.183	77.2353
820.873	78.314
822.564	80.0133
824.256	81.2778
825.947	81.9794
827.637	82.8994
829.328	82.9065
831.016	83.1323
832.705	83.2646
834.395	82.893
836.084	82.8716
837.772	81.878
839.459	81.7508
841.147	80.1011
842.835	79.5118
844.522	78.9486
846.209	77.7013
847.894	76.1502
849.581	74.758
851.267	73.9884
852.953	72.4235
854.637	71.8382
856.322	70.4308
858.007	68.5177
859.689	66.9147
861.374	65.0356
863.058	63.5947
864.739	63.2976
866.423	61.9308
868.106	61.8231
869.787	61.4212
871.469	61.2089
873.151	60.2991
874.831	59.5202
876.512	58.3134
878.193	57.4531
879.872	56.5232
881.553	56.3194
883.231	56.6509
884.911	56.9419
886.591	56.072
888.268	55.1958
889.947	54.3079
891.623	53.4591
893.302	53.0226
894.978	54.1171
896.656	54.205
898.331	54.5585
900.008	54.148
901.683	54.1055
903.359	53.9179
905.033	54.6777
906.709	54.1727
908.383	53.7866
910.058	52.698
911.731	51.9649
913.405	51.6926
915.078	51.0515
916.752	51.7363
918.423	51.714
920.096	51.4832
921.768	50.6215
923.438	50.7157
925.111	49.4849
926.781	49.2867
928.452	48.0628
930.122	47.0111
931.791	45.7221
933.462	45.4517
935.13	44.5643
936.799	43.8936
938.468	44.0464
940.136	42.821
941.803	41.7104
943.472	41.1964
945.139	41.5204
946.805	41.4088
948.473	41.283
950.139	40.5639
951.804	40.7997
953.471	40.8955
955.136	39.8313
956.801	38.5354
958.465	38.419
960.131	37.6481
961.794	37.5212
963.458	38.3525
965.12	39.7202
966.785	39.5985
968.447	39.8636
970.109	39.5489
971.771	39.9184
973.432	39.9419
975.095	40.1367
976.756	41.4352
978.417	42.2491
980.077	42.5327
981.737	42.6015
983.396	42.6861
985.057	43.1609
986.716	43.2826
988.375	44.2387
990.033	44.0704
991.691	44.846
993.349	44.369
995.006	45.2821
996.663	45.4078
998.32	46.3129
999.976	46.4584
1001.63	44.9678
1003.29	44.507
1004.95	43.7765
1006.6	43.5047
1008.26	43.1926
1009.91	42.7582
1011.56	41.6272
1013.22	41.127
1014.87	40.8623
1016.53	40.8566
1018.18	40.2249
1019.83	39.6397
1021.48	38.6164
1023.14	37.3996
1024.79	36.4799
1026.44	36.17
1028.09	35.8975
1029.74	35.3444
1031.39	34.8651
1033.04	33.9631
1034.69	33.0905
1036.34	31.9839
1037.99	29.6495
1039.64	28.7334
1041.29	27.9856
1042.94	27.3179
1044.58	26.7776
1046.23	26.4303
1047.88	25.7566
1049.52	25.5167
1051.17	25.3748
1052.82	24.7315
1054.46	24.2503
1056.11	23.6418
1057.75	23.2372
1059.4	22.9586
1061.04	22.5024
1062.69	22.2161
1064.33	21.3099
1065.98	21.0818
1067.62	20.5414
1069.26	20.8114
1070.9	20.9404
1072.55	20.5132
1074.19	20.9723
1075.83	20.8761
1077.47	21.3794
1079.11	21.8049
1080.76	22.6492
1082.4	21.8376
1084.04	22.5585
1085.68	23.3131
1087.32	23.2054
1088.95	23.5985
1090.59	24.4942
1092.23	24.9755
1093.87	26.1238
1095.51	27.5039
1097.15	28.4402
1098.78	28.8324
1100.42	29.5712
1102.06	30.1385
1103.69	30.8931
1105.33	31.7396
1106.97	33.1167
1108.6	34.2455
1110.24	34.7731
1111.87	35.5602
1113.51	35.7631
1115.14	35.4664
1116.77	35.2883
1118.41	34.1737
1120.04	32.5944
1121.67	32.4111
1123.31	31.2966
1124.94	31.0261
1126.57	30.2931
1128.2	29.1533
1129.83	29.1252
1131.47	27.5373
1133.1	25.6806
1134.72	25.0815
1136.36	23.6464
1137.98	22.7686
1139.62	21.7554
1141.24	20.9906
1142.87	20.0732
1144.5	18.9004
1146.13	17.5559
1147.76	16.1108
1149.38	14.8913
1151.01	15.1862
1152.64	14.6029
1154.27	13.8995
1155.89	14.0741
1157.52	12.6916
1159.14	11.497
1160.77	10.4205
1162.39	9.52886
1164.02	8.59083
1165.64	8.43226
1167.27	8.07885
1168.89	8.46019
1170.51	9.66644
1172.14	10.5158
1173.76	10.8623
1175.38	11.6159
1177	11.5281
1178.63	11.966
1180.25	12.9023
1181.87	14.4151
1183.49	14.4402
1185.11	15.7317
1186.73	16.9075
1188.35	18.3923
1189.97	19.4034
1191.59	20.4637
1193.21	21.846
1194.83	22.5375
1196.45	22.9687
1198.07	23.4664
1199.68	23.5259
1201.3	24.9234
1202.92	25.4511
1204.53	26.6004
1206.15	28.0325
1207.77	29.0867
1209.38	29.6017
1211	31.6314
1212.62	33.7484
1214.23	35.4579
1215.84	37.7943
1217.46	39.5474
1219.07	41.6708
1220.69	42.6924
1222.3	44.3179
1223.91	46.9719
1225.53	48.6127
1227.14	51.4892
1228.75	53.4775
1230.36	55.7341
1231.97	57.2468
1233.59	58.6615
1235.2	59.2799
1236.81	60.7847
1238.42	62.204
1240.03	63.4095
1241.64	65.2509
1243.25	67.3837
1244.85	68.3248
1246.46	69.9201
1248.07	71.2947
1249.68	72.5387
1251.29	72.5092
1252.9	73.217
1254.5	74.0998
1256.11	74.1182
1257.72	74.8396
1259.32	75.7593
1260.93	76.569
1262.54	76.9089
1264.14	76.6392
1265.75	77.1991
1267.35	77.7002
1268.96	78.1817
1270.56	77.9185
1272.16	77.656
1273.77	78.3353
1275.37	76.7943
1276.97	76.6278
1278.57	76.8349
1280.18	77.1626
1281.78	77.7821
1283.38	77.3253
1284.98	77.8447
1286.58	78.1713
1288.18	78.7995
1289.78	78.92
1291.38	79.5245
1292.99	80.2182
1294.58	79.8989
1296.18	80.7996
1297.78	80.3595
1299.38	81.05
1300.98	82.159
1302.58	83.313
1304.17	84.3438
1305.77	84.6764
1307.37	85.8045
1308.97	85.6502
1310.56	86.0394
1312.16	86.341
1313.76	87.0385
1315.35	87.4403
1316.95	88.3909
1318.54	88.4605
1320.14	88.8316
1321.73	89.2231
1323.32	89.3251
1324.92	89.0514
1326.51	88.6849
1328.1	88.519
1329.7	87.9267
1331.29	87.1286
1332.88	86.6973
1334.47	86.1409
1336.07	85.0229
1337.66	84.8811
1339.25	84.3052
1340.84	83.4401
1342.43	82.6293
1344.02	81.836
1345.61	81.3544
1347.2	81.1552
1348.79	79.9814
1350.37	79.0288
1351.96	77.9198
1353.55	76.3747
1355.14	74.8942
1356.73	75.6747
1358.31	74.6628
1359.9	73.5442
1361.49	72.6482
1363.07	70.9142
1364.66	69.6336
1366.25	69.0737
1367.83	67.446
1369.42	65.6099
1371	64.3969
1372.59	63.3715
1374.17	62.6446
1375.75	61.0853
1377.34	60.5071
1378.92	59.7717
1380.5	58.2758
1382.09	56.5972
1383.67	55.9835
1385.25	53.8404
1386.83	52.4257
1388.42	50.6322
1390	48.8155
1391.58	47.9817
1393.16	46.5546
1394.74	46.68
1396.32	45.3716
1397.9	44.7073
1399.48	44.3166
1401.06	42.5109
1402.64	42.0408
1404.21	41.4074
1405.79	40.2561
1407.37	40.3725
1408.95	40.3473
1410.53	41.0565
1412.1	40.5369
1413.68	41.2484
1415.26	42.0908
1416.83	43.6832
1418.41	45.388
1419.98	46.7884
1421.56	49.417
1423.13	51.5328
1424.71	53.7926
1426.28	56.0511
1427.86	57.9655
1429.43	60.2405
1431	61.3364
1432.58	63.1074
1434.15	66.9035
1435.72	69.3715
1437.29	70.8939
1438.87	72.9666
1440.44	74.3366
1442.01	76.1541
1443.58	77.529
1445.15	79.2528
1446.72	79.9211
1448.29	80.6674
1449.86	81.5092
1451.43	81.5332
1453	80.5241
1454.57	79.4581
1456.14	79.813
1457.71	78.0657
1459.27	77.1164
1460.84	76.0929
1462.41	73.8302
1463.98	71.2467
1465.54	70.1047
1467.11	68.4778
1468.67	66.7538
1470.24	64.7154
1471.81	61.5806
1473.37	59.7434
1474.94	55.8853
1476.5	53.534
1478.07	50.312
1479.63	47.143
1481.19	44.7815
1482.76	42.3307
1484.32	39.7804
1485.88	38.2577
1487.45	35.906
1489.01	33.6991
1490.57	31.6058
1492.13	30.9045
1493.69	29.8204
1495.26	28.5556
1496.82	27.6906
1498.38	27.0663
1499.94	26.73
1501.5	26.2484
1503.06	25.6355
1504.62	25.2309
1506.17	23.7362
1507.73	22.7718
1509.29	21.6904
1510.85	22.6499
1512.41	23.8821
1513.97	23.0541
1515.52	22.6568
1517.08	22.9023
1518.64	24.1525
1520.19	26.0019
1521.75	25.8541
1523.31	27.1618
1524.86	27.8303
1526.42	28.4462
1527.97	29.1586
1529.52	29.3741
1531.08	31.0037
1532.63	32.7276
1534.19	33.8009
1535.74	34.8479
1537.29	36.0042
1538.85	37.1767
1540.4	38.3806
1541.95	39.274
1543.5	40.9245
1545.06	42.7062
1546.61	44.0986
1548.16	46.0826
1549.71	48.0175
1551.26	50.1482
1552.81	51.4046
1554.36	54.0428
1555.91	55.1784
1557.46	56.965
1559.01	59.3404
1560.56	61.1258
1562.11	62.6785
1563.65	64.6775
1565.2	66.0359
1566.75	68.1171
1568.29	69.3254
1569.84	70.2865
1571.39	70.9556
1572.94	72.4451
1574.48	73.3641
1576.03	74.7097
1577.57	76.189
1579.12	76.9061
1580.66	76.9143
1582.21	76.8516
1583.75	76.7743
1585.3	76.8615
1586.84	76.8967
1588.38	77.4016
1589.93	76.6847
1591.47	75.7596
1593.01	75.4978
1594.55	75.757
1596.1	76.0012
1597.64	74.8407
1599.18	73.9088
1600.72	73.259
1602.26	71.9933
1603.8	71.1074
1605.34	70.1732
1606.88	69.5126
1608.42	68.733
1609.96	68.1586
1611.5	67.4723
1613.04	67.1887
1614.58	66.4601
1616.12	66.3385
1617.65	66.4587
1619.19	66.7449
1620.73	67.8572
1622.27	69.155
1623.8	69.8451
1625.34	71.2388
1626.87	72.1467
1628.41	72.509
1629.95	74.479
1631.48	76.0597
1633.02	76.4239
1634.55	77.7181
1636.09	79.4861
1637.62	80.3013
1639.15	81.7735
1640.69	83.5969
1642.22	84.38
1643.76	85.619
1645.29	86.4706
1646.82	88.4895
1648.35	89.9636
1649.88	92.3228
1651.42	92.9555
1652.95	94.3321
1654.48	94.6055
1656.01	94.4408
1657.54	94.0993
1659.07	93.8578
1660.6	93.1528
1662.13	92.0894
1663.66	90.7914
1665.19	88.7487
1666.72	86.8907
1668.24	84.6115
1669.77	82.6701
1671.3	81.1179
1672.83	79.4937
1674.35	76.9809
1675.88	74.5268
1677.41	71.8108
1678.93	68.3954
1680.46	65.5301
1681.99	62.3985
1683.51	59.5933
1685.04	56.3636
1686.56	53.8321
1688.09	50.0943
1689.61	47.2117
1691.13	44.7567
1692.66	42.2516
1694.18	39.5014
1695.71	36.8367
1697.23	34.4981
1698.75	32.9163
1700.27	30.4225
1701.8	27.9483
1703.32	25.2614
1704.84	22.72
1706.36	22.2088
1707.88	19.5898
1709.4	17.6562
1710.92	16.5773
1712.44	15.5336
1713.96	13.7993
1715.48	13.6135
1717	12.4809
1718.52	11.5382
1720.04	11.3281
1721.56	10.8427
1723.07	10.679
1724.59	10.3173
1726.11	10.0062
1727.63	8.62903
1729.14	8.62918
1730.66	8.10565
1732.18	7.26307
1733.69	6.32911
1735.21	5.50264
1736.72	4.21522
1738.24	3.7543
1739.75	3.13453
1741.27	2.14412
1742.78	2.1397
1744.3	1.95216
1745.81	2.50708
1747.32	2.35518
1748.84	2.20694
1750.35	1.23964
1751.86	0.546925
1753.37	0.123189
1754.89	-0.595502
1756.4	-0.282028
1757.91	-0.743487
1759.42	-0.939848
1760.93	-1.51497
1762.44	-1.84479
1763.95	-2.14134
1765.46	-1.98253
1766.97	-1.79254
1768.48	-1.72079
1769.99	-1.8717
1771.5	-1.99469
1773.01	-1.84427
1774.52	-1.80561
1776.03	-1.85342
1777.53	-1.66188
1779.04	-0.400358
1780.55	0.579651
1782.06	1.57662
1783.56	0.732749
1785.07	1.49719
1786.57	2.06336
1788.08	2.28114
1789.59	2.4361
1791.09	3.27453
1792.6	2.88876
1794.1	2.77998
1795.6	2.87977
1797.11	2.90094
1798.61	3.34646
1800.12	3.72007
1801.62	3.36905
1803.12	3.20348
1804.63	3.2624
1806.13	2.69261
1807.63	2.68329
1809.13	2.5234
1810.63	2.67132
1812.14	2.38731
1813.64	3.04651
1815.14	2.94762
1816.64	2.62637
1818.14	2.91443
1819.64	3.21209
1821.14	2.87863
1822.64	2.54708
1824.14	2.39964
1825.63	2.00423
1827.13	1.83426
1828.63	2.00641
1830.13	1.85631
1831.63	1.39217
1833.12	1.54055
1834.62	1.3717
1836.12	1.20271
1837.62	1.55939
1839.11	1.52527
1840.61	2.01692
1842.1	2.27441
1843.6	2.36254
1845.09	2.18306
1846.59	2.05237
1848.08	2.22215
1849.58	2.59227
1851.07	2.66778
1852.57	3.10311
1854.06	3.22853
1855.55	2.8142
1857.04	2.94618
1858.54	2.63728
1860.03	2.54489
1861.52	2.32722
1863.01	1.26598
1864.5	1.20953
1866	0.940788
1867.49	0.608555
1868.98	0.854827
1870.47	1.1556
1871.96	1.4636
1873.45	2.23187
1874.94	2.18512
1876.43	1.94952
1877.92	2.03215
1879.41	2.43776
1880.89	2.96485
1882.38	3.1533
1882.48	2.53494
1883.97	3.06071
1885.47	3.18875
1886.96	4.20674
1888.46	4.18924
1889.95	4.86936
1891.44	5.14528
1892.94	5.30567
1894.43	5.87396
1895.92	6.49101
1897.41	7.0612
1898.9	7.06513
1900.4	7.62196
1901.89	8.03332
1903.38	8.03501
1904.87	8.29159
1906.36	8.4269
1907.85	8.63782
1909.34	9.18548
1910.83	9.50416
1912.32	10.4147
1913.81	10.911
1915.29	10.7183
1916.78	10.3789
1918.27	10.445
1919.76	10.2537
1921.25	10.2944
1922.74	10.8737
1924.22	10.6409
1925.71	10.2862
1927.2	9.696
1928.68	9.17501
1930.17	8.9364
1931.65	8.56776
1933.14	7.86324
1934.63	7.44371
1936.11	7.49622
1937.59	7.97406
1939.08	7.73624
1940.56	7.83969
1942.05	7.70589
1943.53	7.377
1945.01	7.20513
1946.5	6.65581
1947.98	6.3497
1949.46	5.84985
1950.94	5.3868
1952.43	5.4449
1953.91	5.15529
1955.39	5.01427
1956.87	4.66066
1958.35	4.64012
1959.83	3.75568
1961.31	3.48374
1962.79	2.82047
1964.27	2.77478
1965.75	2.76186
1967.23	2.65891
1968.71	2.69896
1970.19	2.37255
1971.67	1.65858
1973.14	1.13248
1974.62	1.86572
1976.1	2.21851
1977.58	2.7915
1979.05	3.20819
1980.53	3.66315
1982.01	4.59881
1983.48	4.71962
1984.96	5.20727
1986.43	5.5006
1987.91	5.74214
1989.38	5.93536
1990.86	6.38914
1992.33	7.61234
1993.81	7.75136
1995.28	8.32995
1996.76	8.47408
1998.23	8.90327
1999.7	9.2848
2001.18	10.1541
2002.65	10.2732
2004.12	11.6071
2005.59	11.991
2007.06	11.7712
2008.54	12.3283
2010.01	13.2569
2011.48	12.9973
2012.95	13.2551
2014.42	13.3775
2015.89	13.0383
2017.36	13.0611
2018.83	13.4416
2020.3	13.6507
2021.77	13.9039
2023.24	13.2928
2024.71	13.2896
2026.17	13.0135
2027.64	12.6053
2029.11	11.7312
2030.58	11.0294
2032.04	10.6622
2033.51	10.6573
2034.98	10.6115
2036.45	10.7996
2037.91	11.3332
2039.38	11.3169
2040.84	11.0294
2042.31	11.3771
2043.77	11.3611
2045.24	11.1683
2046.7	11.8173
2048.17	12.5852
2049.63	12.4771
2051.1	12.4917
2052.56	12.45
2054.02	12.161
2055.48	12.8133
2056.95	13.6244
2058.41	14.1059
2059.87	14.328
2061.33	15.5388
2062.8	15.3499
2064.26	15.9685
2065.72	16.4073
2067.18	16.5981
2068.64	17.6079
2070.1	18.0649
2071.56	19.0305
2073.02	19.2595
2074.48	19.9054
2075.94	19.9531
2077.4	20.0397
2078.86	19.2353
2080.31	19.315
2081.77	20.0582
2083.23	20.9516
2084.69	21.2639
2086.14	21.7363
2087.6	22.1638
2089.06	22.6223
2090.52	23.7453
2091.97	24.5617
2093.43	24.9829
2094.88	25.602
2096.34	25.9317
2097.79	26.0483
2099.25	26.1135
2100.7	26.6711
2102.16	26.555
2103.61	27.5262
2105.07	27.9152
2106.52	28.5943
2107.97	28.6395
2109.43	29.6398
2110.88	30.2126
2112.33	30.3165
2113.78	31.0474
2115.24	32.1864
2116.69	32.7028
2118.14	33.6046
2119.59	34.1942
2121.04	35.2651
2122.49	36.3991
2123.94	37.9109
2125.39	39.1192
2126.84	40.8945
2128.29	42.2132
2129.74	42.9153
2131.19	44.4942
2132.64	46.2568
2134.09	48.5252
2135.54	48.7604
2136.98	50.9451
2138.43	52.4134
2139.88	53.8475
2141.33	55.2641
2142.77	56.2373
2144.22	57.2776
2145.67	58.4454
2147.11	59.9107
2148.56	61.0961
2150.01	62.7863
2151.45	64.8132
2152.9	66.8757
2154.34	69.5827
2155.79	71.1185
2157.23	72.3504
2158.67	73.8979
2160.12	75.2058
2161.56	76.46
2163	77.9787
2164.45	79.146
2165.89	80.0528
2167.33	80.4412
2168.78	80.2802
2170.22	80.5446
2171.66	80.7588
2173.1	81.2169
2174.54	81.0735
2175.98	81.2694
2177.42	80.9501
2178.86	80.3565
2180.3	80.1225
2181.74	79.5723
2183.18	78.9813
2184.62	78.1712
2186.06	77.7813
2187.5	77.2769
2188.94	75.3556
2190.38	74.0009
2191.82	72.6873
2193.25	71.919
2194.69	71.0204
2196.13	69.6203
2197.57	68.0332
2199	66.5465
2200.44	64.823
2201.88	64.0743
2203.31	63.1463
2204.75	60.6207
2206.18	58.7675
2207.62	56.3693
2209.05	55.1754
2210.49	52.6305
2211.92	50.945
2213.36	49.4856
2214.79	47.426
2216.22	45.9548
2217.66	45.2286
2219.09	44.1105
2220.52	42.8084
2221.96	41.4422
2223.39	40.7644
2224.82	39.2975
2226.25	38.5041
2227.68	36.8724
2229.11	35.8425
2230.55	34.9712
2231.98	33.998
2233.41	32.7858
2234.84	32.0423
2236.27	31.0508
2237.7	30.4521
2239.12	30.0593
2240.55	29.4602
2241.98	29.3563
2243.41	28.7109
2244.84	28.2298
2246.27	27.247
2247.7	27.5102
2249.12	27.7131
2250.55	27.4976
2251.98	27.0611
2253.41	26.5378
2254.83	25.8371
2256.26	25.6308
2257.68	25.5051
2259.11	25.208
2260.54	24.6721
2261.96	25.1848
2263.39	24.7182
2264.81	24.1886
2266.24	24.267
2267.66	23.3405
2269.08	22.8041
2270.51	22.8572
2271.93	22.7491
2273.35	22.174
2274.78	21.8667
2276.2	21.4071
2277.62	21.7482
2279.04	21.3813
2280.47	20.5816
2281.89	19.9239
2283.31	19.5758
2284.73	18.7017
2286.15	18.1084
2287.57	17.9322
2288.99	17.4195
2290.41	16.7748
2291.83	16.1219
2293.25	15.0762
2294.67	14.5449
2296.09	13.9616
2297.51	14.3389
2298.93	13.8766
2300.35	13.8596
2301.76	13.6253
2303.18	12.9832
2304.6	12.5034
2306.02	12.6859
2307.44	12.6887
2308.85	12.8452
2310.27	13.0739
2311.69	12.8059
2313.1	13.2849
2314.52	13.1075
2315.93	13.5847
2317.35	13.7504
2318.76	14.6796
2320.18	14.0426
2321.59	13.0625
2323.01	12.8065
2324.42	13.0115
2325.83	12.2382
2327.25	12.5736
2328.66	12.6789
2330.07	12.391
2331.49	12.2006
2332.9	12.0767
2334.31	11.2275
2335.72	10.6683
2337.13	10.3783
2338.55	9.74759
2339.96	10.0118
2341.37	10.0713
2342.78	9.62218
2344.19	9.33232
2345.6	8.99553
2347.01	9.01611
2348.42	8.7836
2349.83	8.0511
2351.24	7.43456
2352.65	7.24137
2354.05	7.17159
2355.46	6.82023
2356.87	6.58502
2358.28	6.33666
2359.69	5.95652
2361.09	6.05433
2362.5	5.56125
2363.91	5.55693
2365.31	6.30887
2366.72	6.8101
2368.13	6.65251
2369.53	6.28948
2370.94	6.52863
2372.34	6.51044
2373.75	6.66873
2375.15	7.76207
2376.56	8.07798
2377.96	8.62528
2379.37	8.60067
2380.77	8.87412
2382.17	9.33601
2383.58	9.47542
2384.98	9.45383
2386.38	9.96841
2387.79	9.94719
2389.19	10.4877
2390.59	10.119
2391.99	9.79471
2393.39	10.0242
2394.8	9.81483
2396.2	9.20451
2397.6	9.7422
2399	9.79721
2400.4	9.29016
2401.8	9.19855
2403.2	9.1756
2404.6	8.93579
2406	9.05344
2407.4	9.42493
2408.79	9.21594
2410.19	9.0201
2411.59	8.84577
2412.99	8.93639
2414.39	9.09344
2415.78	9.59989
2417.18	10.1156
2418.58	9.64896
2419.98	9.62672
2421.37	9.02849
2422.77	9.13041
2424.16	8.8047
2425.56	8.16566
2426.96	7.68245
2428.35	7.2483
2429.74	7.20592
2431.14	7.21783
2432.53	6.82844
2433.93	7.02515
2435.32	6.69724
2436.72	6.49562
2438.11	6.68487
2439.5	6.6604
2440.9	6.87046
2442.29	7.00741
2443.68	7.00049
2445.07	7.3124
2446.47	7.04075
2447.86	6.45311
2449.25	6.13692
2450.64	6.09369
2452.03	6.11554
2453.42	5.73832
2454.81	5.6324
2456.2	5.27603
2457.59	4.73981
2458.98	4.48212
2460.37	4.11899
2461.76	3.79058
2463.15	3.87103
2464.54	4.09771
2465.93	4.13933
2467.32	4.53572
2468.7	4.46926
2470.09	4.41717
2471.48	4.47949
2472.87	4.67786
2474.25	4.80436
2475.64	4.42143
2477.03	3.62781
2478.41	2.94005
2479.8	3.04956
2481.18	3.30412
2482.57	3.56692
2483.95	3.86102
2485.34	3.70944
2486.72	3.81032
2488.11	3.8948
2489.49	3.87672
2490.88	4.24841
2492.26	4.91297
2493.65	4.96393
2495.03	4.87218
2496.41	4.85181
2497.79	5.27373
2499.18	5.15277
2500.56	4.94986
2501.94	4.85899
2503.32	5.23829
2504.7	4.9526
2506.09	5.29096
2507.47	5.35169
2508.85	5.65103
2510.23	5.96245
2511.61	5.53197
2512.99	5.45054
2514.37	4.96539
2515.75	4.2547
2517.13	3.19263
2518.51	3.5496
2519.89	2.68589
2521.26	2.48115
2522.64	2.09956
2524.02	1.17903
2525.4	0.575207
2526.78	-0.0611556
2528.15	-0.322436
2529.53	-0.188888
2530.91	-0.359235
2532.28	-0.49242
2533.66	-0.492539
2535.04	-0.799888
2536.41	-0.915813
2537.79	-1.31808
2539.16	-1.83309
2540.54	-1.52912
2541.91	-1.60616
2543.29	-1.87647
2544.66	-2.38877
2546.04	-2.37055
2547.41	-1.6287
2548.78	-0.589022
2550.16	0.49674
2551.53	0.990595
2552.9	1.60558
2554.27	2.385
2555.65	3.63941
2557.02	4.35268
2558.39	5.0682
2559.76	6.04453
2561.13	6.25178
2562.51	6.67294
2563.88	6.92651
2565.25	6.92115
2566.62	7.37539
2567.99	7.57619
2569.36	7.91533
2570.73	8.56245
2572.1	8.69386
2573.47	8.52761
2574.84	8.84246
2576.2	8.81313
2577.57	8.55954
2578.94	8.38685
2580.31	7.86713
2581.68	7.76538
2583.05	7.29729
2584.41	7.38451
2585.78	7.44276
2587.15	7.18537
2588.51	6.34685
2589.88	5.81259
2591.24	5.37421
2592.61	4.94182
2593.98	4.53328
2595.34	4.52714
2596.71	4.80501
2598.07	4.87385
2599.44	4.48081
2600.8	4.06716
2602.16	4.39765
2603.53	4.02799
2604.89	3.4144
2606.26	3.10015
2607.62	2.99134
2608.98	3.12813
2610.34	3.06487
2611.71	2.70015
2613.07	3.2757
2614.43	3.38613
2615.79	4.2166
2617.15	4.49396
2618.52	4.58912
2619.88	4.69178
2621.24	4.81462
2622.6	4.81077
2623.96	4.73595
2625.32	5.02417
2626.68	5.40845
2628.04	5.44652
2629.4	5.65282
2630.75	5.86565
2632.11	5.40571
2633.47	4.88171
2634.83	5.27217
2636.19	5.76317
2637.55	5.78089
2638.9	6.12748
2640.26	5.73498
2641.62	6.03796
2642.98	5.91809
2644.33	5.88974
2645.69	5.30159
2647.04	5.27052
2648.4	5.02587
2649.76	4.93871
2651.11	5.39309
2652.47	5.07771
2653.82	4.87663
2655.18	3.94146
2656.53	3.80919
2657.88	3.75623
2659.24	3.62477
2660.59	3.4071
2661.95	3.41749
2663.3	4.04305
2664.65	3.76787
2666	3.79181
2667.36	3.80337
2668.71	3.69985
2670.06	3.46489
2671.41	2.82347
2672.76	2.69028
2674.12	3.26178
2675.47	3.42734
2676.82	3.53972
2678.17	3.67988
2679.52	3.05519
2680.87	3.33087
2682.22	2.71766
2683.57	2.66915
2684.92	2.44497
2686.27	1.687
2687.62	1.27948
2688.97	0.47896
2690.31	0.652734
2691.66	0.942734
2693.01	1.15725
2694.36	1.20519
2695.71	1.45645
2697.05	1.73933
2698.4	2.20055
2699.75	2.60858
2701.09	3.27054
2702.44	3.76051
2703.78	4.47516
2705.13	4.72964
2706.48	4.64721
2707.82	5.05424
2709.17	5.65819
2710.51	5.4597
2711.86	5.61506
2713.2	5.62971
2714.54	6.31356
2715.89	7.20202
2717.23	7.69627
2718.57	7.98085
2719.92	8.40886
2721.26	9.02041
2722.6	9.53269
2723.95	10.2879
2725.29	11.1954
2726.63	11.6126
2727.97	12.1804
2729.31	12.7552
2730.65	13.4046
2732	13.5405
2733.34	13.8318
2734.68	13.8292
2736.02	13.7066
2737.36	13.8094
2738.7	14.4715
2740.04	14.0228
2741.38	13.9782
2742.72	13.542
2744.05	12.8985
2745.39	12.3402
2746.73	11.6225
2748.07	11.1272
2749.41	10.6108
2750.75	10.2666
2752.08	10.3742
2753.42	9.99338
2754.76	9.99205
2756.09	9.98986
2757.43	10.3285
2758.77	10.756
2760.1	10.9375
2761.44	10.7503
2762.78	11.0377
2764.11	10.8797
2765.44	10.5386
2766.78	9.8764
2768.11	9.4731
2769.45	8.89722
2770.78	8.86418
2772.12	8.24854
2773.45	7.58952
2774.78	7.53101
2776.12	7.21488
2777.45	7.05306
2778.78	7.24133
2780.12	7.54065
2781.45	7.24193
2782.78	7.20685
2784.11	7.08532
2785.44	6.89272
2786.78	6.69302
2788.11	6.25863
2789.44	6.12523
2790.77	6.15871
2792.1	6.36577
2793.43	6.20266
2794.76	6.22764
2796.09	6.53397
2797.42	6.73813
2798.75	6.37241
2800.08	5.96872
2801.4	5.9458
2802.73	6.298
2804.06	6.61732
2805.39	6.66921
2806.72	6.61636
2808.05	7.26722
2809.37	7.39499
2810.7	7.40004
2812.03	7.86111
2813.35	8.53901
2814.68	9.21906
2816.01	10.1379
2817.33	11.0042
2818.66	11.8654
2819.98	12.4305
2821.31	13.4729
2822.63	14.5695
2823.96	16.0162
2825.28	17.5074
2826.61	18.8488
2827.93	20.3768
2829.25	22.4926
2830.58	23.6513
2831.9	24.9518
2833.23	27.036
2834.55	29.0679
2835.87	30.9865
2837.19	33.1387
2838.52	35.3573
2839.84	37.189
2841.16	39.9512
2842.48	42.6885
2843.8	45.0094
2845.12	47.8881
2846.44	51.0217
2847.77	54.4374
2849.08	57.8112
2850.4	61.2441
2851.73	64.6306
2853.05	68.753
2854.36	73.5268
2855.68	77.5201
2857	82.1044
2858.32	86.1668
2859.64	90.2796
2860.96	94.3759
2862.28	98.281
2863.59	102.495
2864.91	105.628
2866.23	109.193
2867.55	113.003
2868.86	116.714
2870.18	119.498
2871.5	121.819
2872.81	124.995
2874.13	127.437
2875.44	129.483
2876.76	131.83
2878.07	134.706
2879.39	136.792
2880.7	138.706
2882.02	141.551
2883.33	143.187
2884.65	145.062
2885.96	147.274
2887.28	150.161
2888.59	152.186
2889.9	154.811
2891.21	157.09
2892.53	160.236
2893.84	162.376
2895.15	165.125
2896.46	167.52
2897.78	170.353
2899.09	173.63
2900.4	176.603
2901.71	179.165
2903.02	182.257
2904.33	187.074
2905.64	191.335
2906.95	196.418
2908.26	201.903
2909.57	207.849
2910.88	214.688
2912.19	220.257
2913.5	226.176
2914.81	231.729
2916.12	238.321
2917.43	244.396
2918.73	250.148
2920.04	254.356
2921.35	259.153
2922.66	263.756
2923.96	267.308
2925.27	270.894
2926.58	273.897
2927.88	275.935
2929.19	277.807
2930.5	278.674
2931.8	280.106
2933.11	280.362
2934.41	279.97
2935.72	278.738
2937.02	277.285
2938.33	276.721
2939.63	274.672
2940.94	272.271
2942.24	269.88
2943.54	267.015
2944.85	263.606
2946.15	259.976
2947.45	255.678
2948.76	250.461
2950.06	246.057
2951.36	241.48
2952.66	237.017
2953.97	231.706
2955.27	227.243
2956.57	222.38
2957.87	217.365
2959.17	211.368
2960.47	206.574
2961.77	201.35
2963.07	195.953
2964.37	191.226
2965.67	186.069
2966.97	181.592
2968.27	177.719
2969.57	174.325
2970.87	169.612
2972.17	165.403
2973.47	162.21
2974.77	157.824
2976.07	153.749
2977.36	149.487
2978.66	145.861
2979.96	141.753
2981.26	137.765
2982.55	132.941
2983.85	127.96
2985.15	123.434
2986.44	119.89
2987.74	114.717
2989.03	109.924
2990.33	105.899
2991.63	100.978
2992.92	95.9749
2994.21	91.2776
2995.51	87.1621
2996.8	83.0701
2998.1	79.0099
2999.39	75.2189
3000.69	71.4215
3001.98	68.0522
3003.27	65.439
3004.57	61.6281
3005.86	57.9305
3007.15	55.3238
3008.44	52.5682
3009.74	49.4308
3011.03	46.2385
3012.32	43.6817
3013.61	41.6371
3014.9	39.5716
3016.19	37.7774
3017.48	36.3618
3018.78	34.4622
3020.07	33.2155
3021.36	31.6259
3022.65	30.4163
3023.94	30.1994
3025.23	30.0293
3026.51	29.3587
3027.8	28.4678
3029.09	27.9843
3030.38	27.8868
3031.67	28.1788
3032.96	27.9
3034.24	28.3581
3035.53	28.7254
3036.82	29.3843
3038.11	30.3697
3039.39	31.258
3040.68	32.4575
3041.97	33.1691
3043.25	33.8063
3044.54	34.2877
3045.83	35.1936
3047.11	35.2416
3048.4	35.3821
3049.68	35.8578
3050.97	35.5823
3052.25	35.101
3053.54	35.5385
3054.82	35.3021
3056.11	35.1792
3057.39	34.8757
3058.67	34.7645
3059.96	34.6914
3061.24	33.9492
3062.52	33.2044
3063.81	32.3504
3065.09	31.4684
3066.37	30.7219
3067.65	29.8763
3068.94	28.5528
3070.22	27.9038
3071.5	27.145
3072.78	25.7481
3074.06	24.3689
3075.34	23.2223
3076.62	21.9802
3077.9	20.6765
3079.18	19.6424
3080.46	18.1614
3081.74	17.1207
3083.02	15.8427
3084.3	15.0831
3085.58	14.2521
3086.86	13.2879
3088.14	12.5502
3089.42	11.7289
3090.69	10.5362
3091.97	9.82396
3093.25	9.30426
3094.53	9.31158
3095.8	8.76776
3097.08	8.2714
3098.36	8.81488
3099.63	8.91897
3100.91	8.97319
3102.19	8.75229
3103.46	8.78689
3104.74	8.74691
3106.01	8.7834
3107.29	8.35902
3108.56	8.31207
3109.84	8.0607
3111.11	7.66151
3112.39	7.45991
3113.66	7.01158
3114.94	6.36275
3116.21	6.38286
3117.48	6.54251
3118.76	6.06392
3120.03	6.11306
3121.3	5.30541
3122.57	4.8965
3123.85	4.59281
3125.12	4.56521
3126.39	4.40155
3127.66	4.30241
3128.93	3.90478
3130.21	3.8307
3131.48	3.56594
3132.75	3.50505
3134.02	3.26849
3135.29	2.56966
3136.56	2.30202
3137.83	1.72466
3139.1	1.1219
3140.37	0.742285
3141.64	0.386771
3142.91	0.0690766
3144.17	-0.19713
3145.44	-0.389404
3146.71	-0.462295
3147.98	-0.446923
3149.25	-0.202776
