#Acq. time (s)=	45
#Accumulations=	2
#Range (cm-¹)=	200...3150
#Windows=	2
#Auto scanning=	Off
#Autofocus=	Off
#Macrospot=	Off
#AutoExposure=	Off
#Spike filter=	Multiple accum.
#Delay time (s)=	0
#Binning=	1
#Readout mode=	Signal
#DeNoise=	Off
#ICS correction=	On
#Dark correction=	Off
#Inst. Process=	Off
#Detector Gain=	Best Dynamic Range
#Detector ADC=	20 kHz       
#Detector temperature (°C)=	-69.85
#Instrument=	LabRAM HR Evol
#Detector=	Synapse
#Objective=	x100
#Grating=	600 gr/mm
#ND Filter=	100%
#Laser (nm)=	532 
#Hole=	100.021
#Range=	Auto
#Laser Pol.=	No
#Raman. Pol.=	No
#Laser Pol. (°)=	-0.0007625
#Raman Pol. (°)=	89.9995
#Collection=	Microscope
#StageXY=	Marzhauser
#StageZ=	Marzhauser
#X (µm)=	-5121.8
#Y (µm)=	1515.8
#Z (µm)=	63.25
#Full time(mm:ss)=	3:18
#Project=	
#Sample=	
#Site=	
#Title=	Thy_50_12_42_2x_45s_532 nm_x100_100%_600 gr_mm
#Remark=	
#Date=	07.07.2022 12:20
#Acquired=	07.07.2022 12:20:12
#Base:Fit=	10.08.2022 10:04:30
#Base:Sub=	10.08.2022 10:04:45
#Filter:Polynom=	16.08.2022 10:20:25
#AxisType[0]=Intens
#AxisUnit[0]=Cnt
#AxisType[1]=Spectr
#AxisUnit[1]=1/cm
200.43	0.0521175
202.246	3.05518
204.061	3.33429
205.875	4.79835
207.688	5.63283
209.501	6.03827
211.316	6.25199
213.129	6.48351
214.941	6.62274
216.753	6.80731
218.566	7.12447
220.377	6.97362
222.188	6.8187
223.999	6.3674
225.809	5.98886
227.618	6.4196
229.43	5.70466
231.239	5.31627
233.047	5.39854
234.855	5.83329
236.663	6.09802
238.471	6.18187
240.278	5.64636
242.087	5.45606
243.894	4.99381
245.7	4.10064
247.506	4.05071
249.311	3.28642
251.116	2.92032
252.921	2.30751
254.725	2.1601
256.529	2.1692
258.333	2.14907
260.136	1.77338
261.939	2.42668
263.744	3.08218
265.546	3.37104
267.348	1.95988
269.15	0.592122
270.951	-0.275748
272.752	0.0288383
274.552	0.789975
276.353	1.84615
278.152	1.51953
279.952	2.059
281.751	1.59516
283.55	2.62277
285.348	3.048
287.146	3.12351
288.942	2.77473
290.739	4.13995
292.536	4.17536
294.333	4.81032
296.129	5.2431
297.925	6.56852
299.721	8.29527
301.516	8.62505
303.311	9.75614
305.106	10.2003
306.9	10.8507
308.694	11.1622
310.486	10.5715
312.279	10.8509
314.072	10.8021
315.864	10.0482
317.656	11.1946
319.448	11.3804
321.24	12.2573
323.029	12.7053
324.819	12.747
326.61	13.298
328.4	12.6618
330.19	13.3109
331.977	13.8731
333.766	13.3737
335.555	13.1466
337.343	13.6769
339.131	13.1004
340.917	12.819
342.704	11.9083
344.491	12.6972
346.277	12.6065
348.062	12.2619
349.848	12.3351
351.633	12.88
353.416	11.9506
355.201	10.286
356.986	10.2367
358.77	10.6626
360.552	11.5063
362.335	11.9143
364.118	11.1503
365.899	11.0725
367.682	9.73787
369.464	9.47082
371.243	8.77688
373.025	10.8559
374.806	9.42408
376.585	10.6735
378.365	10.4171
380.143	12.0772
381.923	12.1877
383.702	12.6208
385.479	12.7797
387.258	12.6879
389.034	11.8937
390.812	11.8575
392.59	11.8295
394.365	11.0737
396.142	11.1454
397.916	10.9353
399.693	10.3574
401.467	10.242
403.242	9.67314
405.015	10.0711
406.79	10.9336
408.565	10.5926
410.337	10.4226
412.111	10.8478
413.882	11.2852
415.656	11.4376
417.426	10.289
419.197	9.74982
420.969	8.1851
422.739	7.20799
424.51	6.64472
426.279	6.42694
428.05	6.42643
429.819	5.92723
431.589	6.01084
433.356	4.98289
435.124	4.82703
436.893	4.15013
438.66	4.2985
440.428	4.35397
442.194	3.91123
443.96	4.66772
445.727	5.87823
447.492	4.65232
449.259	5.64276
451.023	4.18852
452.787	4.18738
454.553	3.8659
456.316	3.93999
458.079	5.4006
459.844	6.47218
461.606	7.2793
463.368	7.06392
465.132	8.91463
466.893	10.2147
468.654	11.1844
470.415	11.6321
472.177	12.1326
473.937	13.3741
475.696	15.4532
477.456	17.2638
479.217	18.5059
480.975	19.345
482.733	21.1809
484.491	22.9939
486.251	24.432
488.008	24.6033
489.765	25.2323
491.522	26.1884
493.278	27.4595
495.036	28.6502
496.791	29.3657
498.546	30.4332
500.301	30.9002
502.056	30.3235
503.81	30.6307
505.566	30.2359
507.319	29.3356
509.073	29.9645
510.825	30.6959
512.578	30.1066
514.33	30.3825
516.082	31.3173
517.833	31.908
519.587	32.5574
521.337	32.512
523.088	33.1829
524.838	32.5869
526.588	33.1595
528.337	32.7825
530.087	31.7139
531.835	30.7819
533.584	29.0483
535.332	27.4312
537.08	27.2
538.827	24.5346
540.574	24.5303
542.321	23.6782
544.068	23.1153
545.814	22.266
547.56	21.6112
549.305	19.7765
551.05	19.3919
552.795	19.2245
554.54	18.9102
556.284	17.3468
558.027	16.9075
559.771	16.9763
561.514	16.5937
563.257	16.0758
564.999	15.0415
566.742	14.4543
568.481	14.5013
570.223	13.6509
571.964	12.9588
573.705	11.2812
575.445	9.7923
577.185	9.68163
578.925	9.10246
580.665	9.01951
582.402	8.48903
584.141	7.76386
585.879	8.35873
587.617	7.74764
589.355	7.26614
591.092	7.0031
592.828	6.58149
594.564	6.85294
596.301	7.66158
598.037	7.46149
599.773	8.02706
601.506	8.97436
603.242	9.99408
604.976	10.4718
606.711	11.225
608.443	11.6496
610.177	13.0956
611.91	13.3456
613.644	13.9315
615.374	13.5535
617.107	13.2295
618.839	13.5174
620.569	14.1941
622.3	15.0108
624.032	15.617
625.761	15.2332
627.491	16.7497
629.221	17.2929
630.949	17.7804
632.679	17.9545
634.408	18.9193
636.135	19.695
637.863	21.4052
639.592	22.1379
641.318	22.7865
643.045	23.3013
644.77	24.4567
646.497	25.0315
648.224	25.8238
649.948	27.0321
651.674	27.4646
653.398	28.0757
655.123	28.2887
656.846	28.6466
658.57	30.2428
660.293	30.4918
662.017	31.1248
663.738	31.9752
665.462	32.1175
667.185	32.5691
668.905	32.9538
670.628	33.3432
672.348	33.3879
674.067	33.5759
675.789	32.9708
677.508	33.5786
679.228	34.3775
680.947	34.7864
682.667	34.8233
684.385	36.0905
686.104	37.5297
687.821	37.7222
689.538	39.4536
691.256	40.5182
692.972	40.0814
694.69	39.8288
696.406	40.2994
698.121	39.0959
699.837	39.1297
701.552	39.7883
703.268	40.5818
704.982	40.2242
706.695	40.2889
708.41	39.3092
710.123	39.2699
711.836	39.8531
713.55	41.8569
715.262	41.7055
716.973	41.3139
718.685	41.0048
720.398	42.4393
722.108	43.3368
723.818	43.375
725.53	43.6198
727.24	44.3044
728.949	44.5145
730.658	45.2512
732.369	45.6933
734.077	46.789
735.785	46.4885
737.493	47.8448
739.2	48.8371
740.909	50.5786
742.616	51.8027
744.322	53.0548
746.028	53.7992
747.734	54.8802
749.441	56.7978
751.146	57.7268
752.851	58.5782
754.555	59.8577
756.26	61.1219
757.963	61.1554
759.667	62.3444
761.372	63.3812
763.075	65.5215
764.777	66.5237
766.479	68.983
768.181	70.1506
769.883	72.5519
771.584	72.6322
773.285	72.9871
774.986	73.1234
776.686	73.2262
778.386	73.1886
780.085	74.5106
781.785	75.5292
783.484	74.7952
785.182	74.6961
786.881	75.074
788.579	74.4048
790.276	73.6118
791.974	73.2497
793.671	73.0786
795.367	75.834
797.064	76.5622
798.76	77.1785
800.456	76.0593
802.151	76.1235
803.846	76.4172
805.541	77.2584
807.236	76.8559
808.93	75.8807
810.624	75.844
812.317	75.0735
814.01	75.6584
815.703	76.0078
817.394	77.0998
819.086	78.1946
820.778	79.6567
822.47	81.281
824.161	80.8493
825.852	82.2769
827.543	81.8737
829.231	81.0708
830.921	80.5482
832.611	79.7174
834.3	78.0631
835.989	76.2404
837.676	75.2266
839.364	73.9748
841.053	73.7172
842.74	72.0256
844.426	72.6596
846.113	71.2684
847.8	71.2408
849.486	70.514
851.171	70.7587
852.857	68.2816
854.542	66.8989
856.227	64.8475
857.911	64.2309
859.595	63.679
861.279	63.1557
862.961	61.1305
864.645	59.678
866.329	58.5839
868.01	56.3834
869.692	54.9985
871.375	54.0378
873.055	52.9145
874.737	52.1716
876.418	52.0594
878.097	52.393
879.778	52.5034
881.457	50.7442
883.137	50.145
884.817	48.9111
886.495	48.6025
888.174	48.9766
889.851	48.2114
891.53	47.7321
893.206	47.5428
894.884	48.5532
896.562	47.9575
898.237	48.4962
899.914	47.8663
901.589	48.3735
903.265	47.4154
904.94	46.4094
906.615	44.4171
908.289	42.5232
909.964	42.1744
911.637	39.6845
913.31	37.7962
914.984	36.5325
916.656	35.984
918.33	34.4613
920.001	33.5622
921.674	33.3058
923.345	32.1724
925.015	31.7015
926.687	30.6968
928.357	30.022
930.028	28.5437
931.698	28.8113
933.366	27.287
935.037	26.6146
936.705	25.8538
938.373	26.3538
940.043	26.5312
941.71	25.707
943.379	24.2427
945.046	22.5253
946.712	20.7088
948.378	20.7457
950.046	20.0143
951.711	19.2921
953.376	18.5437
955.043	19.6409
956.708	19.3548
958.372	19.8401
960.036	20.061
961.701	20.8448
963.364	22.3276
965.027	23.9043
966.69	25.0842
968.354	26.9617
970.016	27.8325
971.678	28.6415
973.339	28.3426
975	29.5439
976.661	30.8043
978.324	30.6321
979.984	30.1707
981.644	30.8654
983.303	31.1499
984.962	31.5892
986.621	30.7153
988.282	30.0878
989.94	30.2972
991.598	30.8846
993.256	31.4566
994.913	32.0046
996.57	31.3103
998.227	30.3851
999.884	30.1539
1001.54	28.6342
1003.2	28.4296
1004.85	28.5971
1006.51	29.0201
1008.16	29.6162
1009.82	29.5867
1011.47	28.8626
1013.12	29.2711
1014.78	29.424
1016.43	30.1034
1018.08	30.6845
1019.74	30.5836
1021.39	31.3591
1023.04	31.1765
1024.69	30.4369
1026.34	30.5192
1028	31.627
1029.65	31.5509
1031.3	32.7526
1032.95	33.0955
1034.6	34.5422
1036.25	34.913
1037.9	35.7916
1039.55	35.4228
1041.19	36.6193
1042.84	37.5194
1044.49	37.8399
1046.14	38.1144
1047.79	38.39
1049.43	37.2453
1051.08	36.6596
1052.73	34.5856
1054.37	32.9019
1056.02	31.5554
1057.66	30.7004
1059.31	29.9589
1060.95	28.3471
1062.6	27.9852
1064.24	26.7941
1065.88	25.0651
1067.53	23.9554
1069.17	23.4496
1070.81	22.0658
1072.46	21.6426
1074.1	19.7864
1075.74	18.9261
1077.38	17.9146
1079.02	15.117
1080.66	13.9438
1082.3	13.9234
1083.94	14.1555
1085.58	14.7363
1087.22	14.9064
1088.86	16.0631
1090.5	16.4042
1092.14	16.8916
1093.78	16.8849
1095.42	17.5036
1097.05	16.9987
1098.69	18.2192
1100.33	18.9178
1101.97	19.3431
1103.6	20.4995
1105.24	20.0944
1106.87	20.1069
1108.51	21.0109
1110.15	21.0597
1111.78	20.4658
1113.41	21.1679
1115.05	21.476
1116.68	21.1629
1118.31	20.424
1119.95	19.3473
1121.58	19.1202
1123.21	18.6151
1124.85	17.1516
1126.48	16.2064
1128.11	15.797
1129.74	14.3246
1131.37	12.9542
1133	11.8007
1134.63	10.501
1136.26	9.55463
1137.89	9.33965
1139.52	8.85624
1141.15	8.74573
1142.78	7.67091
1144.41	6.40103
1146.04	5.21391
1147.66	3.62476
1149.29	3.75602
1150.92	2.93386
1152.55	1.2698
1154.17	1.24654
1155.8	-0.019898
1157.43	0.43039
1159.05	0.269907
1160.68	-1.1207
1162.3	-1.04954
1163.93	-0.891061
1165.55	-0.180746
1167.17	-0.437873
1168.8	-0.697494
1170.42	-0.463778
1172.05	-1.05146
1173.67	-1.8414
1175.29	-2.20858
1176.91	-1.89302
1178.54	-1.32755
1180.16	-0.867204
1181.78	-0.433256
1183.4	-0.998976
1185.02	-0.800996
1186.64	0.030567
1188.26	-0.497495
1189.88	-0.270409
1191.5	0.557551
1193.12	1.16248
1194.74	1.8947
1196.36	3.52381
1197.97	3.83808
1199.59	5.48154
1201.21	6.46241
1202.83	8.06982
1204.44	8.50965
1206.06	9.52438
1207.68	11.3289
1209.29	12.5873
1210.91	14.1577
1212.52	15.1327
1214.14	16.12
1215.75	17.9532
1217.37	20.1767
1218.98	22.5108
1220.6	24.6469
1222.21	25.4029
1223.82	27.1681
1225.44	28.8634
1227.05	30.6524
1228.66	31.8085
1230.27	34.7266
1231.88	35.922
1233.49	38.229
1235.1	39.9253
1236.72	41.6233
1238.33	45.1056
1239.94	46.1803
1241.55	48.0575
1243.16	50.4261
1244.76	52.164
1246.37	53.4949
1247.98	54.3921
1249.59	55.4816
1251.2	56.9277
1252.8	57.9896
1254.41	60.3886
1256.02	62.2229
1257.63	62.5975
1259.23	63.1422
1260.84	63.2677
1262.44	65.2789
1264.05	66.0948
1265.66	67.2828
1267.26	68.9723
1268.87	69.539
1270.47	71.8655
1272.07	73.7695
1273.68	74.4272
1275.28	75.8397
1276.88	77.5226
1278.48	78.1692
1280.09	79.5285
1281.69	79.8398
1283.29	80.5932
1284.89	80.7036
1286.49	81.7798
1288.09	81.7526
1289.69	82.0128
1291.3	82.3266
1292.9	82.5939
1294.49	83.347
1296.09	83.5182
1297.69	83.6892
1299.29	83.5421
1300.89	83.0037
1302.49	82.8766
1304.09	84.1443
1305.68	83.7026
1307.28	83.946
1308.88	84.4254
1310.47	84.6882
1312.07	85.8521
1313.66	86.2289
1315.26	86.0307
1316.86	87.1063
1318.45	87.1016
1320.05	86.4432
1321.64	86.3073
1323.23	84.8489
1324.83	83.204
1326.42	82.1478
1328.01	80.5049
1329.61	79.3182
1331.2	77.4591
1332.79	76.3182
1334.38	75.5442
1335.98	73.1395
1337.57	71.4862
1339.16	70.3952
1340.75	69.4679
1342.34	68.0413
1343.93	66.4587
1345.52	65.385
1347.11	64.7743
1348.7	63.1853
1350.29	62.0801
1351.87	60.5712
1353.46	59.3659
1355.05	58.8499
1356.64	57.8327
1358.23	56.3178
1359.81	54.3841
1361.4	52.2859
1362.99	51.1894
1364.57	50.1497
1366.16	49.3888
1367.74	47.9446
1369.33	47.3082
1370.91	46.5181
1372.5	45.1294
1374.08	44.6619
1375.67	43.8227
1377.25	43.5498
1378.83	42.9288
1380.42	43.3708
1382	43.553
1383.58	43.3265
1385.16	43.0412
1386.75	43.3903
1388.33	42.7477
1389.91	42.5978
1391.49	43.4272
1393.07	42.2843
1394.65	42.0916
1396.23	42.6192
1397.81	42.2236
1399.39	42.1794
1400.97	42.3705
1402.55	42.3419
1404.13	43.1553
1405.7	44.612
1407.28	44.8052
1408.86	46.37
1410.44	48.021
1412.01	49.9385
1413.59	51.4246
1415.17	52.9395
1416.74	55.3462
1418.32	57.423
1419.89	59.7689
1421.47	62.0712
1423.05	65.3
1424.62	68.3003
1426.19	70.9226
1427.77	73.8453
1429.34	77.9392
1430.92	81.2337
1432.49	84.7292
1434.06	87.1351
1435.63	89.6757
1437.2	91.4496
1438.78	93.9569
1440.35	95.5474
1441.92	97.7157
1443.49	99.3588
1445.06	99.2816
1446.63	99.0681
1448.2	99.7272
1449.77	99.7969
1451.34	98.729
1452.91	98.3541
1454.48	97.0982
1456.05	96.0139
1457.62	94.0165
1459.18	91.7603
1460.75	89.3998
1462.32	86.6532
1463.89	84.2438
1465.45	81.2497
1467.02	76.4398
1468.59	72.9148
1470.15	69.8371
1471.72	65.9224
1473.28	62.8791
1474.85	60.0028
1476.41	56.3625
1477.98	52.5416
1479.54	49.6545
1481.11	45.4668
1482.67	42.7213
1484.23	39.1554
1485.8	36.12
1487.36	34.205
1488.92	31.8114
1490.48	28.8002
1492.05	27.1094
1493.61	25.5356
1495.17	24.5271
1496.73	24.151
1498.29	23.1618
1499.85	22.0213
1501.41	22.8185
1502.97	23.6718
1504.53	23.38
1506.09	24.4548
1507.65	24.6841
1509.2	24.798
1510.76	25.1108
1512.32	25.5849
1513.88	26.579
1515.44	26.6252
1516.99	28.0196
1518.55	28.6991
1520.1	30.3494
1521.66	31.2281
1523.22	32.4702
1524.77	34.1525
1526.33	35.8172
1527.88	36.2134
1529.44	36.8099
1530.99	38.2572
1532.55	39.6902
1534.1	40.3747
1535.65	41.3943
1537.21	43.213
1538.76	45.8672
1540.31	47.7572
1541.86	49.5617
1543.42	51.3163
1544.97	52.0956
1546.52	55.2588
1548.07	58.1445
1549.62	59.3394
1551.17	62.0319
1552.72	63.4665
1554.27	65.9652
1555.82	67.8523
1557.37	69.223
1558.92	70.73
1560.47	72.3844
1562.02	73.4822
1563.57	75.2495
1565.11	77.1114
1566.66	78.3818
1568.21	80.1737
1569.75	82.6289
1571.3	84.7815
1572.85	87.4348
1574.39	89.5694
1575.94	90.6301
1577.49	92.3866
1579.03	93.4493
1580.58	93.5616
1582.12	94.0896
1583.67	95.2885
1585.21	96.2968
1586.75	97.7331
1588.3	97.1806
1589.84	98.123
1591.38	97.7174
1592.93	97.97
1594.47	98.3713
1596.01	97.917
1597.55	96.9681
1599.09	96.7738
1600.63	95.3553
1602.18	92.8418
1603.72	92.4157
1605.26	90.9361
1606.8	89.6929
1608.34	89.0916
1609.87	89.1076
1611.41	89.5194
1612.95	89.3375
1614.49	89.7976
1616.03	89.5023
1617.57	89.9793
1619.11	90.2435
1620.64	90.4092
1622.18	89.7907
1623.72	91.741
1625.25	92.5224
1626.79	92.8553
1628.32	94.3127
1629.86	94.7574
1631.4	95.0823
1632.93	95.45
1634.47	95.8276
1636	97.3107
1637.53	98.1798
1639.07	100.152
1640.6	102.698
1642.14	103.741
1643.67	104.739
1645.2	106.613
1646.73	108.355
1648.27	109.169
1649.8	109.458
1651.33	109.911
1652.86	110.502
1654.39	110.812
1655.92	110.07
1657.45	111.193
1658.98	111.944
1660.51	110.997
1662.04	110.645
1663.57	108.73
1665.1	106.834
1666.63	105.403
1668.16	102.729
1669.69	101.188
1671.21	99.0794
1672.74	95.6568
1674.27	92.1484
1675.79	89.1288
1677.32	84.9416
1678.85	81.8609
1680.37	78.9914
1681.9	74.4926
1683.42	71.7088
1684.95	68.562
1686.47	64.9837
1688	60.7698
1689.52	56.0811
1691.05	52.209
1692.57	48.2275
1694.1	45.6837
1695.62	42.1126
1697.14	38.6293
1698.66	35.3036
1700.19	33.3854
1701.71	30.3449
1703.23	27.205
1704.75	24.6332
1706.27	22.4084
1707.79	20.5141
1709.32	19.3038
1710.83	17.2862
1712.35	16.4441
1713.88	15.0071
1715.39	14.2511
1716.91	13.4374
1718.43	12.1331
1719.95	11.8909
1721.47	11.5443
1722.99	11.1439
1724.5	10.1463
1726.02	10.155
1727.54	10.7439
1729.06	10.9557
1730.57	10.9531
1732.09	10.5443
1733.61	11.244
1735.12	10.7161
1736.64	9.91453
1738.15	10.5356
1739.67	9.99318
1741.18	10.2863
1742.7	10.5727
1744.21	10.7711
1745.72	11.1138
1747.24	10.9981
1748.75	9.84324
1750.26	10.0465
1751.78	9.82556
1753.29	9.36374
1754.8	8.4278
1756.31	8.29153
1757.82	7.79489
1759.34	7.17623
1760.85	5.821
1762.36	4.60948
1763.87	4.12089
1765.38	3.85618
1766.89	3.4497
1768.4	3.72229
1769.91	3.46128
1771.41	2.67804
1772.92	2.72687
1774.43	2.4371
1775.94	3.08395
1777.45	3.14012
1778.96	3.20224
1780.46	3.49122
1781.97	4.11262
1783.48	4.70634
1784.98	4.83503
1786.49	5.22012
1788	6.08283
1789.5	5.69095
1791.01	6.1234
1792.51	6.47628
1794.01	5.74592
1795.52	5.45447
1797.02	5.49066
1798.53	5.53138
1800.03	5.55819
1801.54	5.7765
1803.04	5.62447
1804.54	5.60891
1806.04	5.17081
1807.54	4.9301
1809.05	5.19579
1810.55	5.08801
1812.05	5.32558
1813.55	5.78465
1815.05	5.43144
1816.55	5.60682
1818.05	5.32811
1819.55	4.93926
1821.05	5.2202
1822.55	5.175
1824.05	4.20258
1825.55	3.93814
1827.05	3.61389
1828.55	3.69999
1830.04	3.09697
1831.54	2.48417
1833.04	1.59427
1834.54	1.49516
1836.03	1.22609
1837.53	1.39009
1839.03	1.71546
1840.52	1.64079
1842.02	1.58236
1843.51	1.27286
1845.01	0.923373
1846.5	1.06842
1848	1.03747
1849.49	0.984489
1850.99	0.805422
1852.48	0.724093
1853.97	0.649815
1855.47	0.918876
1856.96	1.872
1858.45	1.35626
1859.94	1.08346
1861.44	1.33677
1862.93	1.83573
1864.42	1.44532
1865.91	1.67917
1867.4	2.05313
1868.89	1.62477
1870.38	1.95502
1871.87	2.40106
1873.36	2.87282
1874.85	3.53903
1876.34	3.07947
1877.83	2.91993
1879.32	2.91
1880.81	3.33777
1882.3	3.59021
1882.56	3.83605
1884.06	4.42222
1885.55	4.48702
1887.04	4.6193
1888.54	4.67694
1890.03	4.91509
1891.52	4.84665
1893.02	5.42423
1894.51	5.3825
1896	5.33617
1897.49	5.52876
1898.99	5.74284
1900.48	5.29864
1901.97	4.65462
1903.46	3.84366
1904.95	3.24351
1906.44	2.90914
1907.93	2.86225
1909.42	2.64418
1910.91	3.08312
1912.4	2.81142
1913.89	2.11002
1915.38	1.74764
1916.86	1.54674
1918.35	1.03015
1919.84	0.401261
1921.33	0.085345
1922.82	0.0127182
1924.3	0.0956699
1925.79	0.234892
1927.28	-0.0960301
1928.76	0.245789
1930.25	-0.319068
1931.74	-1.04028
1933.22	-0.856216
1934.71	-0.51026
1936.19	-0.290008
1937.67	-0.565629
1939.16	-0.174243
1940.64	0.235599
1942.13	0.398233
1943.61	0.935846
1945.09	1.74469
1946.58	1.9106
1948.06	1.69972
1949.54	1.54709
1951.03	2.09493
1952.51	2.1533
1953.99	2.6538
1955.47	2.67673
1956.95	3.13595
1958.43	3.48873
1959.91	3.36698
1961.39	3.36619
1962.87	3.64499
1964.35	4.44022
1965.83	4.96684
1967.31	5.64784
1968.79	6.0391
1970.27	6.52889
1971.75	7.12988
1973.22	6.56003
1974.7	6.47747
1976.18	6.72783
1977.66	6.68263
1979.13	6.60456
1980.61	6.65112
1982.09	7.3286
1983.56	7.64256
1985.04	7.46302
1986.52	7.08835
1987.99	6.45627
1989.47	6.73717
1990.94	6.70897
1992.41	6.45176
1993.89	7.63374
1995.36	8.07889
1996.84	7.46804
1998.31	7.70632
1999.78	7.24702
2001.26	6.54033
2002.73	7.2384
2004.2	6.8194
2005.67	6.59609
2007.15	6.60275
2008.62	7.14831
2010.09	7.06841
2011.56	7.38304
2013.03	7.16372
2014.5	7.00869
2015.97	6.81627
2017.44	6.41878
2018.91	6.06456
2020.38	5.47519
2021.85	4.96353
2023.32	5.22094
2024.79	5.59897
2026.25	5.70326
2027.72	6.19855
2029.19	6.64954
2030.66	6.82297
2032.13	7.10861
2033.59	7.43579
2035.06	7.97492
2036.53	8.97998
2037.99	10.4255
2039.46	11.4742
2040.92	12.6924
2042.39	13.845
2043.85	14.5178
2045.32	15.1942
2046.78	16.0521
2048.25	16.7198
2049.71	16.9065
2051.18	17.1391
2052.64	17.2409
2054.1	17.7309
2055.56	18.7132
2057.03	18.2565
2058.49	18.7446
2059.95	19.7574
2061.42	20.8269
2062.88	21.8234
2064.34	22.5007
2065.8	23.1405
2067.26	24.2488
2068.72	23.7213
2070.18	23.8804
2071.64	24.7506
2073.1	25.0831
2074.56	26.071
2076.02	27.1069
2077.48	27.2459
2078.94	28.1383
2080.39	29.3442
2081.85	30.0314
2083.31	30.464
2084.77	31.3302
2086.22	31.5016
2087.68	32.23
2089.14	33.3076
2090.6	34.5432
2092.05	36.2319
2093.51	37.3928
2094.96	39.3388
2096.42	41.0083
2097.87	42.6459
2099.33	43.1626
2100.78	44.8021
2102.24	46.9918
2103.69	49.2709
2105.15	51.7053
2106.6	54.1554
2108.05	56.5358
2109.51	58.7115
2110.96	61.0409
2112.41	63.8447
2113.86	65.5842
2115.32	67.5653
2116.77	69.9349
2118.22	71.54
2119.67	73.5705
2121.12	75.2357
2122.57	77.4272
2124.02	79.3622
2125.47	81.4304
2126.92	83.4091
2128.37	85.8139
2129.82	87.4656
2131.27	90.4563
2132.72	92.3566
2134.17	94.8904
2135.62	96.6023
2137.06	99.3625
2138.51	101.433
2139.96	103.603
2141.41	105.231
2142.85	107.368
2144.3	109.59
2145.75	111.902
2147.19	114.602
2148.64	116.13
2150.09	118.049
2151.53	120.343
2152.97	121.902
2154.42	123.407
2155.86	125.041
2157.31	126.499
2158.75	128.055
2160.2	129.627
2161.64	131.566
2163.08	132.617
2164.53	133.859
2165.97	133.816
2167.41	134.822
2168.86	134.54
2170.3	135.001
2171.74	134.944
2173.18	135.684
2174.62	134.864
2176.06	134.011
2177.5	133.138
2178.94	132.31
2180.38	131.208
2181.82	130.016
2183.26	129.275
2184.7	128.479
2186.14	126.422
2187.58	125.141
2189.02	123.02
2190.46	120.608
2191.89	119.546
2193.33	117.913
2194.77	116.396
2196.21	114.066
2197.64	111.965
2199.08	109.802
2200.52	108.04
2201.95	105.377
2203.39	103
2204.83	101.172
2206.26	99.5284
2207.7	97.3294
2209.13	95.4092
2210.57	92.5231
2212	90.3094
2213.43	87.658
2214.87	85.6889
2216.3	83.4353
2217.73	81.7305
2219.17	79.5338
2220.6	76.8657
2222.03	73.9162
2223.47	71.6433
2224.9	69.2678
2226.33	66.9167
2227.76	64.9357
2229.19	62.4715
2230.62	60.9038
2232.05	58.4109
2233.49	56.8518
2234.91	54.7672
2236.34	52.8043
2237.77	49.1615
2239.2	46.9715
2240.63	44.6996
2242.06	43.1382
2243.49	40.8731
2244.92	39.2446
2246.35	37.5154
2247.78	37.0461
2249.2	36.2324
2250.63	35.0695
2252.06	34.0603
2253.48	33.1964
2254.91	32.4038
2256.34	30.9464
2257.76	30.2826
2259.19	30.0634
2260.61	29.6231
2262.04	29.7872
2263.46	30.0308
2264.89	29.5871
2266.31	29.3197
2267.74	28.6246
2269.16	28.1905
2270.59	27.9754
2272.01	27.5144
2273.43	27.3532
2274.85	27.1731
2276.28	27.6543
2277.7	27.2431
2279.12	26.8753
2280.54	25.9931
2281.97	25.2669
2283.39	25.1298
2284.81	24.656
2286.23	24.267
2287.65	23.3183
2289.07	22.5817
2290.49	21.5006
2291.91	19.7384
2293.33	18.3434
2294.75	17.8299
2296.17	18.0903
2297.59	17.9852
2299.01	17.1599
2300.42	16.6432
2301.84	16.9898
2303.26	16.5278
2304.68	16.1615
2306.1	15.4943
2307.51	14.5892
2308.93	13.3068
2310.35	13.6185
2311.76	13.5028
2313.18	13.3735
2314.59	12.9081
2316.01	13.0566
2317.43	13.3627
2318.84	13.4865
2320.26	12.9914
2321.67	12.9792
2323.08	13.01
2324.5	12.1542
2325.91	12.1794
2327.33	12.1633
2328.74	12.5683
2330.15	12.5059
2331.56	11.9252
2332.98	11.7125
2334.39	11.2607
2335.8	10.7172
2337.21	9.98819
2338.62	9.63542
2340.04	9.43557
2341.45	9.19975
2342.86	8.48376
2344.27	8.2239
2345.68	6.93069
2347.09	6.77073
2348.5	6.10142
2349.91	5.10506
2351.31	4.31358
2352.72	4.08746
2354.13	3.89445
2355.54	2.64498
2356.95	1.16296
2358.36	0.755486
2359.76	0.309792
2361.17	0.443379
2362.58	0.441217
2363.98	1.01771
2365.39	1.67546
2366.8	2.54431
2368.21	2.02391
2369.61	2.01826
2371.02	2.31568
2372.42	2.61076
2373.83	2.15424
2375.23	1.42421
2376.64	1.62574
2378.04	1.56223
2379.44	1.51853
2380.85	1.93304
2382.25	2.22685
2383.66	3.23591
2385.06	2.7997
2386.46	2.98891
2387.86	3.60135
2389.26	3.88417
2390.67	3.839
2392.07	4.21345
2393.47	4.52038
2394.87	4.39234
2396.27	5.03144
2397.67	4.68902
2399.07	4.36362
2400.47	4.47433
2401.87	4.4748
2403.27	4.59536
2404.67	4.81314
2406.07	5.1904
2407.47	5.43941
2408.87	5.78338
2410.27	5.75498
2411.67	5.54193
2413.07	5.53593
2414.46	5.89772
2415.86	6.38169
2417.26	7.10846
2418.66	7.2944
2420.05	7.53124
2421.45	7.75938
2422.84	8.19254
2424.24	8.3634
2425.64	8.59544
2427.03	9.4394
2428.43	10.4215
2429.82	11.3401
2431.22	12.5135
2432.61	12.0848
2434.01	11.8786
2435.4	12.0908
2436.79	12.2692
2438.19	12.5944
2439.58	12.3975
2440.97	11.6179
2442.37	11.221
2443.76	10.453
2445.15	9.98378
2446.54	9.64013
2447.93	9.71991
2449.33	9.23111
2450.72	8.9281
2452.11	8.34771
2453.5	8.4023
2454.89	7.65252
2456.28	7.90992
2457.67	8.43683
2459.06	8.10275
2460.45	7.13754
2461.84	6.98241
2463.23	7.24105
2464.62	6.50591
2466	6.32784
2467.39	6.15775
2468.78	6.16819
2470.17	6.12399
2471.55	6.26096
2472.94	6.30587
2474.33	6.35175
2475.72	6.76923
2477.1	6.53627
2478.49	6.55243
2479.87	6.78166
2481.26	7.1498
2482.65	7.88593
2484.03	7.9042
2485.42	7.91934
2486.8	7.82175
2488.19	7.94799
2489.57	7.498
2490.95	6.8551
2492.34	6.86298
2493.72	7.04572
2495.1	6.51164
2496.49	6.24935
2497.87	6.0879
2499.25	6.64602
2500.63	5.93944
2502.02	5.00641
2503.4	5.77739
2504.78	5.3351
2506.16	4.85178
2507.54	4.22384
2508.92	3.58121
2510.3	3.18585
2511.68	2.69469
2513.06	2.55895
2514.44	2.38975
2515.82	2.44342
2517.2	2.42838
2518.58	2.23416
2519.96	2.0197
2521.34	2.06178
2522.72	2.56984
2524.1	2.376
2525.47	1.65899
2526.85	1.55951
2528.23	1.09589
2529.6	1.12127
2530.98	1.42375
2532.36	2.10479
2533.74	1.44273
2535.11	1.4493
2536.49	1.65134
2537.86	2.07811
2539.24	2.38466
2540.61	2.86309
2541.99	2.90146
2543.36	3.2311
2544.74	3.85072
2546.11	3.7311
2547.49	3.98001
2548.86	4.1653
2550.23	4.47125
2551.61	4.35451
2552.98	3.55394
2554.35	3.47075
2555.72	3.60115
2557.09	3.80868
2558.47	3.50856
2559.84	4.03458
2561.21	4.93928
2562.58	4.91019
2563.95	4.17805
2565.32	5.32052
2566.69	6.24855
2568.06	6.45118
2569.43	6.27977
2570.8	6.49649
2572.17	7.17122
2573.54	6.62368
2574.91	7.38123
2576.28	7.89463
2577.65	7.61382
2579.02	7.11603
2580.39	6.85865
2581.75	6.6932
2583.12	6.56381
2584.49	6.00256
2585.85	5.47835
2587.22	5.4879
2588.59	5.18784
2589.95	5.09789
2591.32	5.13204
2592.68	4.47079
2594.05	3.84767
2595.42	3.92335
2596.78	4.66631
2598.15	4.67556
2599.51	4.1977
2600.88	4.26149
2602.24	3.64818
2603.6	3.60615
2604.97	3.79524
2606.33	3.44577
2607.69	2.97504
2609.06	2.88202
2610.42	2.99899
2611.78	3.32668
2613.14	3.45526
2614.51	2.88169
2615.87	2.70166
2617.23	3.05243
2618.59	3.06436
2619.95	2.87318
2621.31	3.34591
2622.67	4.20105
2624.03	4.68965
2625.39	4.82991
2626.75	5.18558
2628.11	5.81093
2629.47	5.49838
2630.83	5.24967
2632.19	5.61833
2633.55	7.06273
2634.91	6.85277
2636.26	6.85393
2637.62	7.02015
2638.98	7.24644
2640.34	7.79397
2641.69	7.46916
2643.05	7.42887
2644.41	7.18427
2645.76	7.05965
2647.12	7.38018
2648.48	7.83971
2649.83	8.46777
2651.19	8.32096
2652.54	8.04977
2653.9	7.97081
2655.25	8.40875
2656.6	8.43442
2657.96	8.61205
2659.31	8.80356
2660.67	8.44357
2662.02	8.70883
2663.37	9.13821
2664.73	9.81725
2666.08	8.95839
2667.43	8.35559
2668.78	8.72865
2670.14	8.47013
2671.49	8.25517
2672.84	8.24359
2674.19	7.64884
2675.54	8.20695
2676.89	8.91344
2678.24	9.19517
2679.59	9.65197
2680.94	9.15647
2682.29	8.89129
2683.64	9.1329
2684.99	9.34165
2686.34	9.94105
2687.69	9.96866
2689.04	10.0249
2690.39	10.3414
2691.74	10.3287
2693.08	10.4874
2694.43	11.1198
2695.78	11.2421
2697.13	11.0133
2698.47	11.2365
2699.82	11.161
2701.17	11.4515
2702.51	10.7109
2703.86	11.0904
2705.21	11.4524
2706.55	12.3384
2707.9	12.5146
2709.24	12.6112
2710.58	12.8766
2711.93	13.276
2713.27	13.7676
2714.62	14.3443
2715.96	14.6734
2717.3	14.0428
2718.65	13.4799
2719.99	13.3626
2721.33	13.3905
2722.68	13.7729
2724.02	13.5048
2725.36	14.1252
2726.71	14.2774
2728.05	14.1603
2729.39	13.8004
2730.73	13.6706
2732.07	13.1473
2733.41	12.3908
2734.75	12.1874
2736.09	12.3674
2737.43	11.6856
2738.77	11.3818
2740.11	11.0223
2741.45	11.1519
2742.79	11.6803
2744.13	11.6496
2745.47	11.3086
2746.81	11.1021
2748.14	9.92877
2749.48	9.6032
2750.82	9.20044
2752.16	9.13899
2753.49	8.89212
2754.83	7.98447
2756.17	7.82318
2757.5	7.92701
2758.84	7.27929
2760.18	6.74013
2761.51	6.74814
2762.85	6.22747
2764.18	5.60491
2765.52	5.26026
2766.85	5.21001
2768.19	5.4855
2769.52	5.25374
2770.86	5.9317
2772.19	5.81271
2773.52	5.37011
2774.86	4.51076
2776.19	4.00734
2777.52	4.14706
2778.86	3.83359
2780.19	3.61253
2781.52	2.62355
2782.85	2.13512
2784.19	1.55729
2785.52	1.6144
2786.85	1.43112
2788.18	1.48851
2789.51	0.876085
2790.84	0.553549
2792.17	0.701432
2793.5	0.0605448
2794.83	-0.484613
2796.16	-0.76442
2797.49	-0.567103
2798.82	-1.00964
2800.15	-1.3896
2801.48	-1.59794
2802.81	-1.88424
2804.13	-2.36358
2805.46	-2.11471
2806.79	-1.64363
2808.12	-1.27373
2809.45	-1.36451
2810.77	-1.75763
2812.1	-1.81377
2813.43	-1.91354
2814.75	-1.5642
2816.08	-0.767926
2817.41	-0.156781
2818.73	0.706625
2820.06	1.99368
2821.38	4.46939
2822.71	7.0974
2824.03	9.71751
2825.36	12.2372
2826.68	15.3161
2828	18.7344
2829.33	22.0906
2830.65	25.2352
2831.98	28.5199
2833.3	32.1258
2834.62	35.5426
2835.94	39.0437
2837.27	43.5674
2838.59	47.0318
2839.91	51.1803
2841.23	55.1736
2842.55	59.5584
2843.87	64.4381
2845.2	69.0982
2846.52	74.2342
2847.84	79.8536
2849.16	85.2933
2850.48	90.7699
2851.8	96.0566
2853.12	101.603
2854.44	106.589
2855.76	111.959
2857.08	117.632
2858.39	123.272
2859.71	128.534
2861.03	133.285
2862.35	137.832
2863.67	141.625
2864.98	145.641
2866.3	149.331
2867.62	152.727
2868.94	156.258
2870.25	159.089
2871.57	161.956
2872.88	164.637
2874.2	166.206
2875.52	168.251
2876.83	170.296
2878.15	173.071
2879.46	175.004
2880.78	178.1
2882.09	179.807
2883.41	182.112
2884.72	184.559
2886.03	187.537
2887.35	190.065
2888.66	192.01
2889.97	193.756
2891.29	195.907
2892.6	198.338
2893.91	200.434
2895.22	201.986
2896.54	203.87
2897.85	206.326
2899.16	209.33
2900.47	212.715
2901.78	216.554
2903.09	221.388
2904.4	225.725
2905.71	230.702
2907.02	236.121
2908.33	242.163
2909.64	249.173
2910.95	255.54
2912.26	261.737
2913.57	268.142
2914.88	274.945
2916.19	281.56
2917.5	287.024
2918.81	293.047
2920.11	298.249
2921.42	303.388
2922.73	307.861
2924.04	311.849
2925.34	314.697
2926.65	316.758
2927.96	318.403
2929.26	319.619
2930.57	320.789
2931.87	320.355
2933.18	319.566
2934.49	319.604
2935.79	317.978
2937.1	316.557
2938.4	314.275
2939.7	311.855
2941.01	309.038
2942.31	304.996
2943.62	301.477
2944.92	296.766
2946.22	292.789
2947.53	286.801
2948.83	280.991
2950.13	274.993
2951.43	268.425
2952.74	261.824
2954.04	254.882
2955.34	247.764
2956.64	241.05
2957.94	234.055
2959.24	227.145
2960.54	220.379
2961.84	214.166
2963.15	207.814
2964.45	201.791
2965.75	196.457
2967.05	190.788
2968.34	185.894
2969.64	179.568
2970.94	173.692
2972.24	168.296
2973.54	163.578
2974.84	158.637
2976.14	152.829
2977.43	147.606
2978.73	142.275
2980.03	137.175
2981.33	131.108
2982.62	125.43
2983.92	120.424
2985.22	114.728
2986.51	109.226
2987.81	103.604
2989.11	97.5445
2990.4	91.6183
2991.7	85.6764
2992.99	80.1624
2994.29	75.3516
2995.58	70.4404
2996.88	65.9752
2998.17	62.2339
2999.46	59.2116
3000.76	55.0397
3002.05	51.4363
3003.34	47.5364
3004.64	44.1671
3005.93	40.4997
3007.22	37.2176
3008.52	34.7482
3009.81	31.528
3011.1	29.3286
3012.39	26.7606
3013.68	24.6295
3014.97	22.715
3016.27	20.4453
3017.56	19.1647
3018.85	17.6137
3020.14	16.6963
3021.43	15.7885
3022.72	14.9283
3024.01	13.8738
3025.3	12.6099
3026.59	12.025
3027.88	11.7964
3029.16	11.565
3030.45	12.0246
3031.74	11.5637
3033.03	11.8412
3034.32	11.6395
3035.6	12.3848
3036.89	13.3826
3038.18	14.2793
3039.47	14.2616
3040.75	14.4307
3042.04	14.846
3043.33	15.3772
3044.61	16.0949
3045.9	16.5659
3047.18	17.1122
3048.47	17.8032
3049.75	17.4021
3051.04	16.9966
3052.32	16.7045
3053.61	16.412
3054.89	16.1241
3056.18	16.0111
3057.46	16.3059
3058.74	16.3138
3060.03	15.8182
3061.31	15.7326
3062.59	15.5712
3063.88	15.2074
3065.16	14.6157
3066.44	13.7897
3067.72	13.3783
3069	13.0864
3070.29	12.5102
3071.57	12.1569
3072.85	11.1776
3074.13	10.5968
3075.41	10.0356
3076.69	9.2415
3077.97	8.13845
3079.25	7.14258
3080.53	6.32353
3081.81	5.80691
3083.09	4.95877
3084.37	4.22743
3085.65	3.76536
3086.93	3.05127
3088.21	2.69341
3089.49	2.25398
3090.76	2.56489
3092.04	2.6052
3093.32	2.24887
3094.6	2.79834
3095.87	2.4586
3097.15	2.84829
3098.43	2.63836
3099.7	2.25154
3100.98	2.70617
3102.26	2.48223
3103.53	2.76687
3104.81	2.60553
3106.08	3.52755
3107.36	3.44139
3108.63	3.65814
3109.91	4.27111
3111.18	4.07846
3112.46	4.33231
3113.73	4.19889
3115	5.09184
3116.28	5.87398
3117.55	6.96556
3118.83	7.55183
3120.1	8.33519
3121.37	8.95102
3122.64	9.56359
3123.92	10.5186
3125.19	11.8896
3126.46	13.2534
3127.73	14.2568
3129	15.4048
3130.27	16.3394
3131.55	17.5624
3132.82	18.1803
3134.09	19.0508
3135.36	20.2216
3136.63	20.6186
3137.9	22.2016
3139.17	23.5709
3140.44	25.0382
3141.71	26.3982
3142.98	27.8608
3144.24	29.3486
3145.51	30.7519
3146.78	32.0851
3148.05	33.0022
3149.32	33.7254
