#Acq. time (s)=	45
#Accumulations=	2
#Range (cm-¹)=	200...3150
#Windows=	2
#Auto scanning=	Off
#Autofocus=	Off
#Macrospot=	Off
#AutoExposure=	Off
#Spike filter=	Multiple accum.
#Delay time (s)=	0
#Binning=	1
#Readout mode=	Signal
#DeNoise=	Off
#ICS correction=	On
#Dark correction=	Off
#Inst. Process=	Off
#Detector Gain=	Best Dynamic Range
#Detector ADC=	20 kHz       
#Detector temperature (°C)=	-69.85
#Instrument=	LabRAM HR Evol
#Detector=	Synapse
#Objective=	x100
#Grating=	600 gr/mm
#ND Filter=	100%
#Laser (nm)=	532 
#Hole=	100.021
#Range=	Auto
#Laser Pol.=	No
#Raman. Pol.=	No
#Laser Pol. (°)=	-0.0007625
#Raman Pol. (°)=	89.9995
#Collection=	Microscope
#StageXY=	Marzhauser
#StageZ=	Marzhauser
#X (µm)=	-5103.2
#Y (µm)=	1488.1
#Z (µm)=	63.05
#Full time(mm:ss)=	3:18
#Project=	
#Sample=	
#Site=	
#Title=	Thy_50_12_22_2x_45s_532 nm_x100_100%_600 gr_mm
#Remark=	
#Date=	07.07.2022 10:50
#Acquired=	07.07.2022 10:50:40
#Base:Fit=	10.08.2022 10:04:29
#Base:Sub=	10.08.2022 10:04:45
#Filter:Polynom=	16.08.2022 10:20:24
#AxisType[0]=Intens
#AxisUnit[0]=Cnt
#AxisType[1]=Spectr
#AxisUnit[1]=1/cm
200.43	57.8533
202.246	55.8723
204.061	50.9584
205.875	46.8577
207.688	42.8272
209.501	39.2829
211.316	36.3935
213.129	33.5262
214.941	31.1664
216.753	28.8417
218.566	26.6889
220.377	23.4855
222.188	21.1173
223.999	19.8888
225.809	17.3712
227.618	15.5286
229.43	15.8811
231.239	14.3644
233.047	14.6879
234.855	12.9997
236.663	11.8368
238.471	11.4552
240.278	10.5257
242.087	10.1039
243.894	9.08051
245.7	8.22937
247.506	9.00544
249.311	9.60441
251.116	9.61654
252.921	9.61508
254.725	10.2492
256.529	9.9218
258.333	8.87424
260.136	8.48171
261.939	8.94188
263.744	9.37752
265.546	10.6266
267.348	11.211
269.15	11.8666
270.951	13.0355
272.752	13.7132
274.552	14.7213
276.353	14.4835
278.152	14.4807
279.952	13.6024
281.751	11.992
283.55	11.9914
285.348	12.4298
287.146	12.707
288.942	12.9424
290.739	12.3803
292.536	12.6728
294.333	13.6711
296.129	14.5075
297.925	15.3545
299.721	15.5632
301.516	16.8914
303.311	16.2968
305.106	16.1145
306.9	15.7389
308.694	15.5778
310.486	15.4306
312.279	16.4147
314.072	15.9766
315.864	15.3427
317.656	16.0034
319.448	16.4865
321.24	15.5582
323.029	15.7464
324.819	14.9207
326.61	14.969
328.4	15.3237
330.19	15.1366
331.977	15.4551
333.766	15.3111
335.555	15.9187
337.343	16.6219
339.131	15.7326
340.917	15.4631
342.704	15.2555
344.491	15.7274
346.277	16.3336
348.062	15.6205
349.848	15.9399
351.633	16.3302
353.416	14.9634
355.201	14.8441
356.986	13.1784
358.77	12.7254
360.552	12.4734
362.335	12.4594
364.118	11.8768
365.899	10.4505
367.682	9.8444
369.464	10.3232
371.243	10.532
373.025	11.1177
374.806	10.9206
376.585	11.3858
378.365	9.78833
380.143	9.1871
381.923	9.43357
383.702	10.0722
385.479	9.9876
387.258	9.55672
389.034	10.291
390.812	10.0361
392.59	8.69853
394.365	8.38166
396.142	7.64997
397.916	7.24931
399.693	6.76778
401.467	5.75468
403.242	4.32311
405.015	4.33076
406.79	4.4898
408.565	4.80056
410.337	4.16152
412.111	4.98631
413.882	5.56938
415.656	4.97088
417.426	5.70221
419.197	5.21227
420.969	5.43911
422.739	5.29325
424.51	5.74498
426.279	5.79304
428.05	5.46006
429.819	5.69585
431.589	5.46769
433.356	5.52256
435.124	5.19864
436.893	4.43257
438.66	4.95763
440.428	5.08644
442.194	4.64317
443.96	5.16243
445.727	4.74152
447.492	6.57244
449.259	7.02618
451.023	7.51138
452.787	6.91412
454.553	7.25622
456.316	7.3295
458.079	8.31372
459.844	7.64233
461.606	8.97465
463.368	9.04165
465.132	9.67699
466.893	9.25716
468.654	9.65591
470.415	11.2173
472.177	11.6909
473.937	12.4393
475.696	13.8508
477.456	13.7758
479.217	13.3047
480.975	14.7216
482.733	15.2756
484.491	16.1024
486.251	15.7736
488.008	15.8928
489.765	16.2141
491.522	16.9016
493.278	17.7483
495.036	18.5703
496.791	18.605
498.546	17.9479
500.301	18.8924
502.056	19.1967
503.81	18.7439
505.566	19.7099
507.319	19.5595
509.073	20.2955
510.825	20.299
512.578	18.5587
514.33	18.5546
516.082	18.0185
517.833	18.3861
519.587	17.7701
521.337	16.8128
523.088	16.8071
524.838	16.3621
526.588	16.5205
528.337	15.3042
530.087	13.951
531.835	13.0462
533.584	12.0844
535.332	11.8833
537.08	10.9611
538.827	11.0506
540.574	9.77283
542.321	9.08949
544.068	7.75024
545.814	7.82931
547.56	6.11918
549.305	6.22852
551.05	4.64734
552.795	4.85932
554.54	3.85772
556.284	3.52944
558.027	3.9489
559.771	3.13385
561.514	3.82412
563.257	2.94564
564.999	2.10354
566.742	2.99172
568.481	2.42211
570.223	1.26298
571.964	0.870057
573.705	0.523089
575.445	1.12599
577.185	1.66633
578.925	2.26901
580.665	2.16394
582.402	2.70477
584.141	2.0404
585.879	3.09959
587.617	3.75396
589.355	4.10199
591.092	3.73411
592.828	4.22357
594.564	4.60303
596.301	4.43609
598.037	4.17333
599.773	3.60837
601.506	6.29089
603.242	5.61335
604.976	6.41452
606.711	6.31694
608.443	6.42725
610.177	6.69546
611.91	7.38268
613.644	6.96485
615.374	6.23529
617.107	6.80533
618.839	7.03448
620.569	7.49822
622.3	7.8684
624.032	7.48784
625.761	7.54664
627.491	6.49189
629.221	7.13854
630.949	6.16984
632.679	5.55648
634.408	5.84353
636.135	6.9343
637.863	6.65116
639.592	7.01753
641.318	6.91487
643.045	7.04826
644.77	6.18397
646.497	5.97043
648.224	6.56776
649.948	6.34326
651.674	7.81759
653.398	9.22109
655.123	9.57654
656.846	10.2423
658.57	10.8739
660.293	12.0124
662.017	12.2383
663.738	12.9664
665.462	13.0014
667.185	13.7044
668.905	14.5873
670.628	14.6068
672.348	15.1196
674.067	15.399
675.789	16.5298
677.508	17.2358
679.228	18.4278
680.947	19.8392
682.667	20.6596
684.385	22.3575
686.104	24.1181
687.821	25.8654
689.538	26.6269
691.256	28.6702
692.972	29.0616
694.69	30.1693
696.406	31.3242
698.121	32.6651
699.837	34.7845
701.552	37.1809
703.268	38.944
704.982	39.5181
706.695	40.6645
708.41	40.6264
710.123	41.4735
711.836	41.7808
713.55	42.3664
715.262	44.7492
716.973	44.6349
718.685	46.448
720.398	48.2647
722.108	48.7137
723.818	48.2535
725.53	48.6428
727.24	50.3855
728.949	49.9403
730.658	50.7043
732.369	52.0298
734.077	53.5752
735.785	54.0246
737.493	54.453
739.2	52.9216
740.909	52.7634
742.616	52.7448
744.322	53.6796
746.028	54.5265
747.734	55.0759
749.441	55.7366
751.146	56.7652
752.851	58.0711
754.555	58.2188
756.26	59.113
757.963	59.2292
759.667	61.2389
761.372	61.3063
763.075	60.8067
764.777	62.0828
766.479	62.8959
768.181	63.3387
769.883	64.3168
771.584	65.1825
773.285	66.3032
774.986	67.5078
776.686	68.6935
778.386	69.8307
780.085	71.6247
781.785	72.5686
783.484	74.3088
785.182	76.6506
786.881	77.8597
788.579	78.4849
790.276	78.46
791.974	79.1691
793.671	79.7762
795.367	81.3148
797.064	82.5189
798.76	83.7357
800.456	83.6817
802.151	82.5438
803.846	83.6499
805.541	83.5052
807.236	84.1359
808.93	83.6227
810.624	83.966
812.317	83.537
814.01	82.329
815.703	82.7489
817.394	81.6059
819.086	81.6033
820.778	81.2006
822.47	81.5088
824.161	81.5082
825.852	81.712
827.543	80.9294
829.231	80.7044
830.921	80.3361
832.611	79.9082
834.3	79.3586
835.989	77.8165
837.676	76.9415
839.364	75.528
841.053	73.6751
842.74	71.1245
844.426	69.8211
846.113	66.3653
847.8	64.4266
849.486	63.4998
851.171	62.8511
852.857	61.5698
854.542	61.2132
856.227	60.074
857.911	59.7987
859.595	58.5638
861.279	57.4398
862.961	56.975
864.645	56.4196
866.329	56.1183
868.01	56.5591
869.692	56.2876
871.375	55.3725
873.055	54.7397
874.737	53.7114
876.418	52.7962
878.097	52.2096
879.778	52.1759
881.457	50.9427
883.137	50.0019
884.817	49.1882
886.495	49.044
888.174	49.4034
889.851	48.4768
891.53	47.76
893.206	46.708
894.884	46.1857
896.562	46.0969
898.237	46.1496
899.914	45.5695
901.589	44.5603
903.265	45.3197
904.94	44.9012
906.615	43.9034
908.289	42.318
909.964	42.0867
911.637	41.5818
913.31	41.3849
914.984	40.7523
916.656	40.5259
918.33	40.8862
920.001	39.5869
921.674	38.9024
923.345	37.853
925.015	37.647
926.687	36.8351
928.357	35.5702
930.028	35.2185
931.698	35.8245
933.366	36.4224
935.037	36.8416
936.705	37.1176
938.373	37.8567
940.043	37.9602
941.71	37.1712
943.379	36.7164
945.046	36.2937
946.712	37.5698
948.378	38.5085
950.046	39.2067
951.711	40.2271
953.376	40.5067
955.043	39.6063
956.708	40.3801
958.372	39.8578
960.036	38.8273
961.701	39.1966
963.364	38.426
965.027	38.6282
966.69	38.6405
968.354	38.0384
970.016	36.9372
971.678	36.462
973.339	35.0957
975	34.1132
976.661	33.2056
978.324	32.0769
979.984	32.4372
981.644	31.2756
983.303	31.4972
984.962	30.6062
986.621	30.7339
988.282	28.7932
989.94	28.4981
991.598	28.7817
993.256	29.0807
994.913	27.6687
996.57	28.0606
998.227	27.9353
999.884	28.207
1001.54	28.1566
1003.2	28.0454
1004.85	28.1533
1006.51	29.1578
1008.16	30.199
1009.82	30.0322
1011.47	30.965
1013.12	32.7245
1014.78	32.9677
1016.43	33.8783
1018.08	34.7819
1019.74	35.7815
1021.39	35.4268
1023.04	35.6217
1024.69	36.6073
1026.34	38.6916
1028	40.3483
1029.65	42.4782
1031.3	42.5171
1032.95	42.7532
1034.6	42.2412
1036.25	40.3576
1037.9	38.6039
1039.55	39.268
1041.19	37.6237
1042.84	36.2862
1044.49	36.0614
1046.14	34.657
1047.79	34.6599
1049.43	33.0513
1051.08	31.2778
1052.73	29.3052
1054.37	28.3083
1056.02	27.2693
1057.66	25.7507
1059.31	25.1092
1060.95	24.3465
1062.6	23.36
1064.24	22.0084
1065.88	20.1571
1067.53	18.8391
1069.17	18.323
1070.81	16.1569
1072.46	16.0659
1074.1	16.245
1075.74	15.3894
1077.38	14.082
1079.02	14.4166
1080.66	13.4622
1082.3	12.5543
1083.94	12.641
1085.58	11.2731
1087.22	10.2442
1088.86	9.91429
1090.5	9.5762
1092.14	8.39202
1093.78	9.20178
1095.42	10.0917
1097.05	10.8639
1098.69	11.4434
1100.33	12.5157
1101.97	12.055
1103.6	12.5834
1105.24	13.9461
1106.87	14.3017
1108.51	14.3749
1110.15	14.3857
1111.78	14.1075
1113.41	13.3056
1115.05	13.297
1116.68	12.8663
1118.31	13.4492
1119.95	14.6158
1121.58	14.5435
1123.21	14.3107
1124.85	14.1551
1126.48	14.6753
1128.11	14.2505
1129.74	14.547
1131.37	13.0848
1133	12.6364
1134.63	12.6862
1136.26	12.9357
1137.89	13.3785
1139.52	12.674
1141.15	13.389
1142.78	12.4019
1144.41	12.2513
1146.04	11.8169
1147.66	11.9851
1149.29	12.842
1150.92	12.2786
1152.55	11.86
1154.17	12.6163
1155.8	12.4521
1157.43	10.9568
1159.05	9.95852
1160.68	9.02171
1162.3	7.50323
1163.93	6.91329
1165.55	7.18877
1167.17	5.73632
1168.8	6.36497
1170.42	6.02285
1172.05	6.26106
1173.67	6.27294
1175.29	7.65664
1176.91	7.24803
1178.54	6.51736
1180.16	5.63477
1181.78	4.95494
1183.4	4.66028
1185.02	5.62041
1186.64	5.96747
1188.26	6.00647
1189.88	6.56195
1191.5	5.98705
1193.12	6.0247
1194.74	5.70617
1196.36	6.41074
1197.97	6.93043
1199.59	7.73562
1201.21	7.20985
1202.83	6.60726
1204.44	8.11604
1206.06	8.36788
1207.68	9.74121
1209.29	10.2484
1210.91	10.2175
1212.52	10.9204
1214.14	12.7354
1215.75	14.8714
1217.37	15.9354
1218.98	17.6094
1220.6	18.4411
1222.21	20.0426
1223.82	21.6916
1225.44	23.1738
1227.05	24.0741
1228.66	26.2686
1230.27	27.3568
1231.88	28.3813
1233.49	29.6259
1235.1	31.6907
1236.72	33.0942
1238.33	34.136
1239.94	35.5628
1241.55	36.5611
1243.16	37.9362
1244.76	38.7588
1246.37	40.8402
1247.98	41.138
1249.59	42.518
1251.2	43.9357
1252.8	45.6136
1254.41	47.1661
1256.02	48.7372
1257.63	49.0378
1259.23	50.4488
1260.84	51.7858
1262.44	52.5506
1264.05	53.7549
1265.66	54.3506
1267.26	55.4913
1268.87	55.7862
1270.47	56.1159
1272.07	57.1371
1273.68	58.7834
1275.28	59.4572
1276.88	61.1192
1278.48	62.3626
1280.09	62.9536
1281.69	64.1426
1283.29	65.6976
1284.89	67.1069
1286.49	67.7642
1288.09	69.2114
1289.69	70.0353
1291.3	70.0873
1292.9	71.0349
1294.49	71.6777
1296.09	73.1045
1297.69	72.6874
1299.29	72.8833
1300.89	72.5023
1302.49	72.8273
1304.09	73.1268
1305.68	71.4831
1307.28	71.6727
1308.88	71.6086
1310.47	71.5963
1312.07	71.6612
1313.66	72.388
1315.26	72.6321
1316.86	72.2678
1318.45	71.3522
1320.05	70.8374
1321.64	69.5637
1323.23	68.7794
1324.83	68.4977
1326.42	68.55
1328.01	67.041
1329.61	66.3251
1331.2	65.6415
1332.79	64.8746
1334.38	64.8987
1335.98	62.5558
1337.57	62.0052
1339.16	61.0613
1340.75	59.519
1342.34	57.2964
1343.93	55.9895
1345.52	55.888
1347.11	54.8652
1348.7	52.6244
1350.29	51.7411
1351.87	50.9184
1353.46	49.2442
1355.05	47.952
1356.64	47.7855
1358.23	46.1806
1359.81	44.9557
1361.4	45.4592
1362.99	44.3942
1364.57	43.2949
1366.16	42.6411
1367.74	41.7129
1369.33	40.1912
1370.91	38.8922
1372.5	37.4119
1374.08	37.5173
1375.67	37.8642
1377.25	36.5701
1378.83	35.7892
1380.42	36.5133
1382	36.3776
1383.58	36.5373
1385.16	36.2693
1386.75	37.2834
1388.33	37.6249
1389.91	38.1136
1391.49	38.002
1393.07	38.6211
1394.65	37.2569
1396.23	37.2615
1397.81	36.6452
1399.39	37.2584
1400.97	37.3984
1402.55	37.9481
1404.13	38.6987
1405.7	39.8185
1407.28	40.96
1408.86	42.0742
1410.44	43.7007
1412.01	45.3811
1413.59	46.1832
1415.17	46.8703
1416.74	49.7396
1418.32	51.2553
1419.89	53.5078
1421.47	55.0085
1423.05	57.9753
1424.62	60.193
1426.19	61.7252
1427.77	63.013
1429.34	65.4617
1430.92	68.1745
1432.49	70.0816
1434.06	72.448
1435.63	73.9615
1437.2	75.5384
1438.78	76.9735
1440.35	78.6322
1441.92	79.3323
1443.49	79.2644
1445.06	80.6993
1446.63	81.6944
1448.2	81.9754
1449.77	82.6262
1451.34	82.7358
1452.91	83.5029
1454.48	82.8689
1456.05	81.8574
1457.62	80.7769
1459.18	80.6948
1460.75	78.364
1462.32	76.38
1463.89	74.1631
1465.45	71.3136
1467.02	69.2692
1468.59	66.066
1470.15	63.0632
1471.72	59.8293
1473.28	55.2059
1474.85	52.9067
1476.41	49.1848
1477.98	46.3707
1479.54	42.8124
1481.11	39.8231
1482.67	36.9502
1484.23	33.6797
1485.8	30.8242
1487.36	27.9814
1488.92	25.3226
1490.48	22.7799
1492.05	20.1451
1493.61	19.8578
1495.17	18.0279
1496.73	16.4646
1498.29	15.6277
1499.85	14.5991
1501.41	14.3921
1502.97	13.2187
1504.53	12.3911
1506.09	12.0414
1507.65	12.7188
1509.2	13.4605
1510.76	12.9432
1512.32	13.6258
1513.88	13.6445
1515.44	14.0811
1516.99	15.7136
1518.55	17.3466
1520.1	18.4474
1521.66	19.7056
1523.22	22.715
1524.77	23.9433
1526.33	24.8522
1527.88	26.059
1529.44	26.7511
1530.99	28.8776
1532.55	30.0704
1534.1	31.6938
1535.65	33.8108
1537.21	36.3176
1538.76	38.1287
1540.31	40.8831
1541.86	42.4983
1543.42	44.6061
1544.97	47.3227
1546.52	48.1506
1548.07	49.9872
1549.62	50.808
1551.17	53.1527
1552.72	54.8149
1554.27	56.834
1555.82	58.4932
1557.37	59.6953
1558.92	60.9368
1560.47	63.13
1562.02	64.4465
1563.57	65.5172
1565.11	66.4949
1566.66	67.4834
1568.21	68.7424
1569.75	70.6214
1571.3	72.4064
1572.85	73.3493
1574.39	74.4318
1575.94	75.6144
1577.49	75.63
1579.03	76.4553
1580.58	76.7398
1582.12	76.4254
1583.67	77.5596
1585.21	77.7865
1586.75	77.3407
1588.3	77.6909
1589.84	77.7493
1591.38	77.1291
1592.93	76.469
1594.47	76.288
1596.01	74.2475
1597.55	74.4575
1599.09	74.1179
1600.63	73.2392
1602.18	71.2134
1603.72	70.2379
1605.26	68.7252
1606.8	67.6471
1608.34	67.595
1609.87	66.6169
1611.41	66.3999
1612.95	66.7027
1614.49	65.8888
1616.03	66.0408
1617.57	65.871
1619.11	64.6419
1620.64	65.6109
1622.18	65.384
1623.72	64.8881
1625.25	65.4086
1626.79	65.5143
1628.32	66.4495
1629.86	65.712
1631.4	66.4417
1632.93	66.0299
1634.47	67.9807
1636	68.6725
1637.53	69.9799
1639.07	69.3009
1640.6	70.0315
1642.14	71.5107
1643.67	72.1217
1645.2	73.6251
1646.73	74.0193
1648.27	75.5435
1649.8	76.9425
1651.33	76.334
1652.86	76.9368
1654.39	77.8765
1655.92	79.1184
1657.45	79.0009
1658.98	78.9975
1660.51	79.6115
1662.04	78.6243
1663.57	78.3516
1665.1	77.5615
1666.63	75.6908
1668.16	74.5194
1669.69	73.4933
1671.21	72.8893
1672.74	72.0696
1674.27	72.1287
1675.79	69.535
1677.32	66.8591
1678.85	64.073
1680.37	62.1718
1681.9	58.59
1683.42	56.4098
1684.95	54.2617
1686.47	51.3695
1688	48.5357
1689.52	45.8021
1691.05	42.8014
1692.57	40.4667
1694.1	37.3518
1695.62	34.1035
1697.14	32.3587
1698.66	29.8823
1700.19	26.9897
1701.71	24.6851
1703.23	21.4586
1704.75	19.2582
1706.27	17.6653
1707.79	15.8992
1709.32	14.3776
1710.83	13.3378
1712.35	10.5501
1713.88	9.52687
1715.39	8.19074
1716.91	7.16981
1718.43	6.66532
1719.95	5.68835
1721.47	6.01668
1722.99	5.41388
1724.5	5.59337
1726.02	4.63885
1727.54	3.49029
1729.06	3.77189
1730.57	4.25624
1732.09	4.23967
1733.61	3.48128
1735.12	3.27241
1736.64	3.31723
1738.15	2.78235
1739.67	2.87272
1741.18	2.33652
1742.7	2.66429
1744.21	3.34762
1745.72	3.41667
1747.24	3.45724
1748.75	3.47421
1750.26	3.49271
1751.78	2.1622
1753.29	1.97334
1754.8	1.51218
1756.31	1.41286
1757.82	0.298899
1759.34	0.675833
1760.85	0.378518
1762.36	0.0614646
1763.87	0.274417
1765.38	0.210534
1766.89	-0.188472
1768.4	-0.240043
1769.91	-0.381533
1771.41	-0.495692
1772.92	0.0783814
1774.43	-0.746967
1775.94	-1.17845
1777.45	-0.606759
1778.96	-0.58909
1780.46	0.286465
1781.97	0.425498
1783.48	0.109844
1784.98	0.225861
1786.49	0.223613
1788	0.0939509
1789.5	0.635037
1791.01	1.09714
1792.51	1.13029
1794.01	0.799852
1795.52	0.992525
1797.02	1.5295
1798.53	0.977255
1800.03	0.828379
1801.54	1.23021
1803.04	1.04289
1804.54	1.20553
1806.04	1.59486
1807.54	1.61756
1809.05	1.50299
1810.55	1.40257
1812.05	1.05583
1813.55	0.592793
1815.05	0.730808
1816.55	0.949949
1818.05	1.0149
1819.55	1.07729
1821.05	0.78678
1822.55	0.786089
1824.05	0.799979
1825.55	0.619753
1827.05	1.03578
1828.55	1.63225
1830.04	1.2254
1831.54	1.39885
1833.04	1.54373
1834.54	1.9406
1836.03	2.39824
1837.53	2.44349
1839.03	2.7391
1840.52	2.99293
1842.02	2.5323
1843.51	3.24997
1845.01	3.71062
1846.5	3.80476
1848	4.06753
1849.49	3.76702
1850.99	4.04531
1852.48	3.99893
1853.97	3.77227
1855.47	3.6485
1856.96	4.0161
1858.45	3.60441
1859.94	3.76669
1861.44	3.3366
1862.93	3.23552
1864.42	3.30598
1865.91	3.72317
1867.4	2.56535
1868.89	2.43135
1870.38	3.06307
1871.87	2.78209
1873.36	2.48586
1874.85	3.29614
1876.34	3.69892
1877.83	4.41356
1879.32	4.29954
1880.81	4.37223
1882.3	4.3853
1882.56	4.35236
1884.06	4.10644
1885.55	4.15082
1887.04	4.2101
1888.54	4.87472
1890.03	4.54651
1891.52	4.66064
1893.02	4.66133
1894.51	4.2735
1896	4.23054
1897.49	5.14824
1898.99	5.56806
1900.48	6.53065
1901.97	6.03858
1903.46	5.9223
1904.95	6.11513
1906.44	6.4336
1907.93	6.71988
1909.42	6.62777
1910.91	7.09095
1912.4	7.73774
1913.89	7.71063
1915.38	7.63545
1916.86	8.40423
1918.35	8.22723
1919.84	7.91914
1921.33	7.28327
1922.82	6.94154
1924.3	6.51625
1925.79	6.32498
1927.28	6.16185
1928.76	5.97936
1930.25	5.93116
1931.74	5.32512
1933.22	4.88107
1934.71	3.93298
1936.19	4.53176
1937.67	3.60124
1939.16	3.68694
1940.64	2.93634
1942.13	3.29895
1943.61	3.03847
1945.09	3.34621
1946.58	3.18068
1948.06	3.68085
1949.54	3.30705
1951.03	3.32034
1952.51	1.86309
1953.99	1.70163
1955.47	1.51609
1956.95	1.60012
1958.43	1.34503
1959.91	0.994965
1961.39	0.906387
1962.87	1.46825
1964.35	0.472156
1965.83	0.623892
1967.31	0.570454
1968.79	0.0380932
1970.27	0.329476
1971.75	1.04753
1973.22	0.325009
1974.7	0.377897
1976.18	0.148707
1977.66	0.656291
1979.13	0.526909
1980.61	1.00542
1982.09	1.42565
1983.56	1.3869
1985.04	2.66707
1986.52	3.09002
1987.99	2.73334
1989.47	2.88719
1990.94	3.28402
1992.41	3.4185
1993.89	3.98427
1995.36	4.1047
1996.84	4.16777
1998.31	4.41776
1999.78	4.15259
2001.26	3.81701
2002.73	3.59929
2004.2	3.11851
2005.67	3.02775
2007.15	3.24277
2008.62	3.33121
2010.09	3.52386
2011.56	2.92083
2013.03	3.70786
2014.5	3.74975
2015.97	3.9857
2017.44	4.35179
2018.91	4.66863
2020.38	5.36009
2021.85	5.69797
2023.32	6.12454
2024.79	6.81659
2026.25	6.77432
2027.72	7.1076
2029.19	6.62898
2030.66	7.84233
2032.13	7.48295
2033.59	7.61073
2035.06	7.8391
2036.53	8.2262
2037.99	8.35872
2039.46	8.85267
2040.92	9.33979
2042.39	8.89653
2043.85	9.69816
2045.32	10.7564
2046.78	10.9208
2048.25	11.2577
2049.71	11.2885
2051.18	11.6393
2052.64	11.4514
2054.1	12.3913
2055.56	12.7719
2057.03	12.5511
2058.49	13.0362
2059.95	13.4543
2061.42	13.2139
2062.88	13.9711
2064.34	14.9902
2065.8	15.0803
2067.26	15.6157
2068.72	15.7078
2070.18	15.881
2071.64	16.6869
2073.1	16.7847
2074.56	17.7963
2076.02	18.568
2077.48	19.5353
2078.94	20.6994
2080.39	22.2189
2081.85	22.4027
2083.31	24.0322
2084.77	25.2632
2086.22	26.2486
2087.68	27.7406
2089.14	28.7211
2090.6	29.9348
2092.05	30.9304
2093.51	31.7911
2094.96	32.5382
2096.42	33.9968
2097.87	34.9285
2099.33	35.8831
2100.78	37.0532
2102.24	38.8105
2103.69	40.733
2105.15	41.7632
2106.6	43.847
2108.05	45.3109
2109.51	47.2086
2110.96	49.0233
2112.41	50.7434
2113.86	53.0041
2115.32	54.3319
2116.77	56.2261
2118.22	57.4808
2119.67	58.5002
2121.12	59.9269
2122.57	62.3009
2124.02	64.1559
2125.47	65.4018
2126.92	67.7403
2128.37	69.7153
2129.82	71.5627
2131.27	73.3083
2132.72	75.3374
2134.17	77.1517
2135.62	79.9096
2137.06	82.0788
2138.51	83.9708
2139.96	86.6815
2141.41	88.271
2142.85	90.0766
2144.3	91.673
2145.75	93.1063
2147.19	95.0221
2148.64	96.3882
2150.09	98.2587
2151.53	99.2419
2152.97	100.627
2154.42	100.623
2155.86	102.325
2157.31	102.882
2158.75	103.508
2160.2	104.675
2161.64	104.849
2163.08	105.556
2164.53	105.435
2165.97	105.925
2167.41	106.75
2168.86	107.749
2170.3	107.987
2171.74	107.9
2173.18	107.333
2174.62	107.328
2176.06	106.657
2177.5	106.106
2178.94	104.737
2180.38	103.819
2181.82	103.081
2183.26	102.124
2184.7	101.281
2186.14	99.9342
2187.58	97.7957
2189.02	95.8314
2190.46	94.2401
2191.89	93.0043
2193.33	91.1901
2194.77	89.6081
2196.21	87.2761
2197.64	86.1087
2199.08	84.917
2200.52	82.4689
2201.95	80.9557
2203.39	78.8024
2204.83	77.0247
2206.26	75.286
2207.7	73.0117
2209.13	70.9809
2210.57	68.6222
2212	66.7025
2213.43	64.4224
2214.87	62.7115
2216.3	60.7182
2217.73	59.3299
2219.17	57.8239
2220.6	55.6406
2222.03	53.9438
2223.47	52.2173
2224.9	50.8996
2226.33	49.3593
2227.76	48.7037
2229.19	46.6711
2230.62	44.7974
2232.05	43.5682
2233.49	42.3693
2234.91	41.4821
2236.34	39.931
2237.77	39.691
2239.2	38.9743
2240.63	39.2444
2242.06	37.7838
2243.49	36.6353
2244.92	35.3838
2246.35	35.3816
2247.78	34.6748
2249.2	33.9742
2250.63	33.7091
2252.06	33.8558
2253.48	33.4475
2254.91	33.243
2256.34	32.3171
2257.76	31.4351
2259.19	30.528
2260.61	30.0051
2262.04	30.0917
2263.46	29.8231
2264.89	29.5605
2266.31	29.5204
2267.74	29.2775
2269.16	29.1041
2270.59	28.2275
2272.01	26.9859
2273.43	27.2225
2274.85	26.1115
2276.28	25.4923
2277.7	25.3617
2279.12	24.8888
2280.54	24.8402
2281.97	24.3268
2283.39	23.914
2284.81	23.6611
2286.23	22.6451
2287.65	22.339
2289.07	21.4075
2290.49	20.08
2291.91	18.9337
2293.33	17.8607
2294.75	17.2717
2296.17	16.2315
2297.59	15.9483
2299.01	15.7609
2300.42	14.952
2301.84	15.2611
2303.26	15.3693
2304.68	15.1636
2306.1	15.5419
2307.51	15.669
2308.93	16.3274
2310.35	16.4024
2311.76	16.3478
2313.18	15.0138
2314.59	14.9179
2316.01	14.5247
2317.43	14.9321
2318.84	14.3691
2320.26	13.9646
2321.67	13.3857
2323.08	12.9117
2324.5	12.68
2325.91	12.162
2327.33	11.7004
2328.74	11.9734
2330.15	11.8314
2331.56	10.7856
2332.98	10.5052
2334.39	10.2221
2335.8	9.61567
2337.21	8.51236
2338.62	7.74753
2340.04	7.0097
2341.45	6.41996
2342.86	6.09146
2344.27	6.16538
2345.68	5.92924
2347.09	5.52002
2348.5	5.63524
2349.91	5.39878
2351.31	4.99509
2352.72	4.61717
2354.13	3.88591
2355.54	3.29318
2356.95	3.07326
2358.36	3.38531
2359.76	2.73261
2361.17	3.13929
2362.58	3.5853
2363.98	4.26727
2365.39	5.15411
2366.8	5.17954
2368.21	5.74803
2369.61	5.83443
2371.02	5.72048
2372.42	5.45436
2373.83	5.56011
2375.23	5.51973
2376.64	5.77568
2378.04	5.5992
2379.44	5.50795
2380.85	5.27318
2382.25	4.64594
2383.66	4.42534
2385.06	4.5299
2386.46	4.34452
2387.86	4.32809
2389.26	4.03224
2390.67	3.81387
2392.07	3.57608
2393.47	3.7457
2394.87	4.57416
2396.27	4.38463
2397.67	4.88875
2399.07	4.69648
2400.47	3.84923
2401.87	3.53438
2403.27	3.34645
2404.67	3.09111
2406.07	2.58425
2407.47	2.28159
2408.87	2.51204
2410.27	3.25548
2411.67	3.14557
2413.07	3.38101
2414.46	3.75891
2415.86	4.30651
2417.26	4.48352
2418.66	5.82753
2420.05	5.51693
2421.45	5.87966
2422.84	6.49607
2424.24	7.30435
2425.64	8.11464
2427.03	9.22438
2428.43	9.85077
2429.82	10.6805
2431.22	11.4481
2432.61	11.1607
2434.01	10.9206
2435.4	10.8593
2436.79	10.3434
2438.19	10.3182
2439.58	10.0545
2440.97	9.79147
2442.37	9.43988
2443.76	10.3308
2445.15	9.57784
2446.54	9.40786
2447.93	9.42598
2449.33	9.79904
2450.72	9.1936
2452.11	8.66609
2453.5	8.0571
2454.89	7.90939
2456.28	8.15648
2457.67	7.439
2459.06	7.03118
2460.45	6.7221
2461.84	6.62307
2463.23	7.05065
2464.62	6.96522
2466	5.70106
2467.39	5.18418
2468.78	4.22238
2470.17	3.48404
2471.55	3.40588
2472.94	2.78139
2474.33	3.08671
2475.72	2.67628
2477.1	2.68289
2478.49	3.01104
2479.87	2.59808
2481.26	1.91394
2482.65	2.16224
2484.03	2.46557
2485.42	2.36643
2486.8	2.93058
2488.19	3.63212
2489.57	3.58453
2490.95	4.28028
2492.34	4.58365
2493.72	4.5757
2495.1	4.79409
2496.49	5.30449
2497.87	5.60637
2499.25	5.07118
2500.63	5.0584
2502.02	4.78433
2503.4	4.32315
2504.78	4.77668
2506.16	4.7162
2507.54	5.38688
2508.92	5.55386
2510.3	5.27045
2511.68	5.4976
2513.06	5.55589
2514.44	5.00492
2515.82	5.82466
2517.2	6.20681
2518.58	6.17202
2519.96	5.72407
2521.34	6.43085
2522.72	6.24705
2524.1	7.14458
2525.47	6.56816
2526.85	6.19679
2528.23	6.2318
2529.6	6.55278
2530.98	6.59657
2532.36	6.92399
2533.74	6.62241
2535.11	6.0827
2536.49	6.10585
2537.86	6.02951
2539.24	6.35803
2540.61	6.04626
2541.99	5.74843
2543.36	5.45605
2544.74	5.06074
2546.11	5.61886
2547.49	5.73785
2548.86	5.18757
2550.23	5.94477
2551.61	6.49
2552.98	6.3414
2554.35	6.17824
2555.72	6.1655
2557.09	5.61944
2558.47	5.8128
2559.84	5.9214
2561.21	6.45666
2562.58	6.05631
2563.95	5.94033
2565.32	5.98971
2566.69	5.41749
2568.06	4.94911
2569.43	5.3249
2570.8	4.75526
2572.17	4.52227
2573.54	5.00415
2574.91	4.87224
2576.28	4.3337
2577.65	3.4175
2579.02	3.56536
2580.39	4.19385
2581.75	4.23017
2583.12	4.73034
2584.49	5.32443
2585.85	5.23718
2587.22	5.19232
2588.59	5.49546
2589.95	5.72174
2591.32	5.397
2592.68	5.15032
2594.05	4.63937
2595.42	4.7009
2596.78	4.44089
2598.15	4.21113
2599.51	3.53696
2600.88	3.16486
2602.24	3.03717
2603.6	2.51674
2604.97	2.72179
2606.33	2.68168
2607.69	2.81308
2609.06	2.78789
2610.42	3.3929
2611.78	3.75707
2613.14	4.45876
2614.51	4.4683
2615.87	3.9875
2617.23	4.03986
2618.59	4.42292
2619.95	3.96331
2621.31	4.15704
2622.67	4.72311
2624.03	4.72693
2625.39	4.50117
2626.75	5.20142
2628.11	4.9634
2629.47	4.47055
2630.83	4.01377
2632.19	4.20992
2633.55	4.39254
2634.91	3.85621
2636.26	3.7237
2637.62	4.77659
2638.98	4.80109
2640.34	5.17295
2641.69	4.94606
2643.05	5.14668
2644.41	5.49938
2645.76	5.6556
2647.12	5.86016
2648.48	5.81524
2649.83	5.7073
2651.19	5.99491
2652.54	6.1444
2653.9	6.02937
2655.25	5.70974
2656.6	6.40927
2657.96	6.43073
2659.31	6.00365
2660.67	5.75523
2662.02	5.7615
2663.37	5.77391
2664.73	5.82813
2666.08	5.99225
2667.43	6.5759
2668.78	7.48863
2670.14	7.98538
2671.49	8.31219
2672.84	8.19861
2674.19	8.39508
2675.54	8.60729
2676.89	9.59905
2678.24	9.44334
2679.59	9.12334
2680.94	9.04134
2682.29	8.92318
2683.64	9.03333
2684.99	9.40725
2686.34	9.32956
2687.69	9.75014
2689.04	9.75164
2690.39	9.68969
2691.74	8.97236
2693.08	9.06694
2694.43	9.47906
2695.78	9.41646
2697.13	9.26081
2698.47	9.69163
2699.82	9.91842
2701.17	10.0645
2702.51	10.4249
2703.86	10.8455
2705.21	11.9088
2706.55	11.0688
2707.9	11.017
2709.24	10.4957
2710.58	10.9281
2711.93	10.7922
2713.27	10.5775
2714.62	10.7371
2715.96	11.1495
2717.3	11.4233
2718.65	11.3635
2719.99	11.9073
2721.33	11.7443
2722.68	11.7198
2724.02	12.0825
2725.36	11.5738
2726.71	11.3249
2728.05	11.5221
2729.39	11.536
2730.73	11.5199
2732.07	11.4682
2733.41	11.9276
2734.75	11.8487
2736.09	11.4343
2737.43	10.6945
2738.77	10.4809
2740.11	10.2293
2741.45	10.0389
2742.79	9.87302
2744.13	9.24243
2745.47	8.26704
2746.81	8.30948
2748.14	8.58467
2749.48	8.188
2750.82	7.64518
2752.16	8.30991
2753.49	8.39444
2754.83	8.11361
2756.17	7.43991
2757.5	7.18243
2758.84	6.44846
2760.18	6.44779
2761.51	5.85608
2762.85	4.89264
2764.18	4.82466
2765.52	5.00901
2766.85	4.59538
2768.19	4.16454
2769.52	4.14585
2770.86	3.96085
2772.19	4.2093
2773.52	3.33331
2774.86	3.03959
2776.19	2.74029
2777.52	3.34311
2778.86	3.14091
2780.19	2.97914
2781.52	2.87751
2782.85	2.66301
2784.19	2.956
2785.52	2.37193
2786.85	3.08928
2788.18	2.4734
2789.51	2.50349
2790.84	2.00461
2792.17	1.89932
2793.5	1.72742
2794.83	1.62129
2796.16	1.78338
2797.49	1.4381
2798.82	1.86778
2800.15	2.05759
2801.48	1.7448
2802.81	1.49914
2804.13	1.71068
2805.46	1.74667
2806.79	1.63883
2808.12	1.83243
2809.45	2.07271
2810.77	1.63541
2812.1	2.54065
2813.43	2.57193
2814.75	2.36102
2816.08	2.57986
2817.41	3.57301
2818.73	4.83886
2820.06	6.1439
2821.38	7.2455
2822.71	9.678
2824.03	12.0823
2825.36	15.0469
2826.68	17.2402
2828	19.8319
2829.33	22.959
2830.65	26.761
2831.98	30.5784
2833.3	34.327
2834.62	37.4917
2835.94	41.7806
2837.27	45.0973
2838.59	47.6849
2839.91	50.3979
2841.23	53.5191
2842.55	57.638
2843.87	62.1796
2845.2	66.5488
2846.52	70.3103
2847.84	74.3304
2849.16	79.1923
2850.48	83.2953
2851.8	87.7877
2853.12	92.7737
2854.44	97.2687
2855.76	102.324
2857.08	107.247
2858.39	112.424
2859.71	116.709
2861.03	121.714
2862.35	126.066
2863.67	129.752
2864.98	133.613
2866.3	136.711
2867.62	139.621
2868.94	142.576
2870.25	145.086
2871.57	147.171
2872.88	148.817
2874.2	150.672
2875.52	151.732
2876.83	153.443
2878.15	155.17
2879.46	156.595
2880.78	158.872
2882.09	161.679
2883.41	163.053
2884.72	165.652
2886.03	168.025
2887.35	170.189
2888.66	172.371
2889.97	174.001
2891.29	175.623
2892.6	177.317
2893.91	179.562
2895.22	180.949
2896.54	182.733
2897.85	185.4
2899.16	186.327
2900.47	187.871
2901.78	190.737
2903.09	192.368
2904.4	194.665
2905.71	197.727
2907.02	201.734
2908.33	205.964
2909.64	209.839
2910.95	213.741
2912.26	217.139
2913.57	221.972
2914.88	227.044
2916.19	230.846
2917.5	235.997
2918.81	240.237
2920.11	244.075
2921.42	247.586
2922.73	250.041
2924.04	252.825
2925.34	254.5
2926.65	256.635
2927.96	257.044
2929.26	257.412
2930.57	257.765
2931.87	257.705
2933.18	257.088
2934.49	255.818
2935.79	254.481
2937.1	252.965
2938.4	250.497
2939.7	248.168
2941.01	245.701
2942.31	242.774
2943.62	239.454
2944.92	236.254
2946.22	232.163
2947.53	228.055
2948.83	223.361
2950.13	219.895
2951.43	215.49
2952.74	210.994
2954.04	206.236
2955.34	201.592
2956.64	196.346
2957.94	192.011
2959.24	186.816
2960.54	181.975
2961.84	177.418
2963.15	173.174
2964.45	168.362
2965.75	164.091
2967.05	159.968
2968.34	155.351
2969.64	151.206
2970.94	147.149
2972.24	144.484
2973.54	140.212
2974.84	135.918
2976.14	132.165
2977.43	128.137
2978.73	124.547
2980.03	120.13
2981.33	115.614
2982.62	111.501
2983.92	106.675
2985.22	101.871
2986.51	97.0897
2987.81	92.0487
2989.11	87.6663
2990.4	82.6471
2991.7	78.6041
2992.99	73.7489
2994.29	70.0325
2995.58	66.4561
2996.88	62.4632
2998.17	58.1981
2999.46	54.72
3000.76	50.7223
3002.05	47.1758
3003.34	43.0151
3004.64	39.2689
3005.93	36.0049
3007.22	32.8957
3008.52	30.2656
3009.81	27.4494
3011.1	24.3822
3012.39	21.8248
3013.68	19.8017
3014.97	17.9946
3016.27	16.4819
3017.56	15.0048
3018.85	14.0986
3020.14	12.6381
3021.43	11.566
3022.72	11.0841
3024.01	9.9832
3025.3	9.81902
3026.59	9.12806
3027.88	9.10959
3029.16	8.94479
3030.45	8.55635
3031.74	8.54868
3033.03	9.16627
3034.32	9.70884
3035.6	10.2883
3036.89	11.286
3038.18	10.8268
3039.47	11.6645
3040.75	12.278
3042.04	13.2046
3043.33	14.0113
3044.61	13.8849
3045.9	14.2594
3047.18	14.4066
3048.47	15.1031
3049.75	15.0462
3051.04	14.9537
3052.32	15.434
3053.61	16.18
3054.89	16.784
3056.18	16.9437
3057.46	16.8327
3058.74	16.8635
3060.03	16.6605
3061.31	16.2937
3062.59	16.1521
3063.88	16.0442
3065.16	15.344
3066.44	15.5171
3067.72	13.9592
3069	13.5402
3070.29	13.6467
3071.57	13.3997
3072.85	12.2936
3074.13	11.5863
3075.41	11.189
3076.69	10.2537
3077.97	10.346
3079.25	9.93702
3080.53	9.45231
3081.81	8.71994
3083.09	7.73529
3084.37	6.24626
3085.65	5.32621
3086.93	4.38895
3088.21	3.40665
3089.49	2.52735
3090.76	1.43535
3092.04	1.23295
3093.32	0.812997
3094.6	0.665858
3095.87	0.634284
3097.15	1.25896
3098.43	1.19804
3099.7	1.67385
3100.98	2.51359
3102.26	2.73338
3103.53	3.35322
3104.81	3.51908
3106.08	4.29249
3107.36	4.01749
3108.63	4.29807
3109.91	5.50036
3111.18	5.71323
3112.46	6.69488
3113.73	6.88148
3115	8.24178
3116.28	9.48436
3117.55	10.7236
3118.83	11.2547
3120.1	11.7639
3121.37	12.5682
3122.64	13.4725
3123.92	14.8449
3125.19	15.5935
3126.46	16.3932
3127.73	17.1422
3129	17.8792
3130.27	18.6548
3131.55	18.7662
3132.82	20.2335
3134.09	21.005
3135.36	21.1478
3136.63	21.364
3137.9	22.2721
3139.17	22.3042
3140.44	21.5587
3141.71	21.5215
3142.98	20.8078
3144.24	20.0994
3145.51	19.5833
3146.78	19.4149
3148.05	19.0076
3149.32	18.4962
