#Acq. time (s)=	45
#Accumulations=	2
#Range (cm-¹)=	200...3150
#Windows=	2
#Auto scanning=	Off
#Autofocus=	Off
#Macrospot=	Off
#AutoExposure=	Off
#Spike filter=	Multiple accum.
#Delay time (s)=	0
#Binning=	1
#Readout mode=	Signal
#DeNoise=	Off
#ICS correction=	On
#Dark correction=	Off
#Inst. Process=	Off
#Detector Gain=	Best Dynamic Range
#Detector ADC=	20 kHz       
#Detector temperature (°C)=	-69.85
#Instrument=	LabRAM HR Evol
#Detector=	Synapse
#Objective=	x100
#Grating=	600 gr/mm
#ND Filter=	100%
#Laser (nm)=	532 
#Hole=	100.021
#Range=	Auto
#Laser Pol.=	No
#Raman. Pol.=	No
#Laser Pol. (°)=	-0.0007625
#Raman Pol. (°)=	89.9995
#Collection=	Microscope
#StageXY=	Marzhauser
#StageZ=	Marzhauser
#X (µm)=	1971.3
#Y (µm)=	-46.1
#Z (µm)=	425.55
#Full time(mm:ss)=	3:18
#Project=	
#Sample=	
#Site=	
#Title=	Thy_40_11_21_2x_45s_532 nm_x100_100%_600 gr_mm
#Remark=	
#Date=	05.07.2022 11:21
#Acquired=	05.07.2022 11:21:20
#Base:Fit=	10.08.2022 10:01:35
#Base:Sub=	10.08.2022 10:01:52
#Filter:Polynom=	16.08.2022 10:21:53
#AxisType[0]=Intens
#AxisUnit[0]=Cnt
#AxisType[1]=Spectr
#AxisUnit[1]=1/cm
200.43	46.4779
202.244	38.864
204.059	31.8831
205.873	27.1876
207.688	22.7935
209.501	19.165
211.314	16.3208
213.127	14.5194
214.941	12.6903
216.753	11.3046
218.564	9.71026
220.375	8.41929
222.186	7.66975
223.999	6.86821
225.809	6.33143
227.618	5.3707
229.428	6.08655
231.236	5.52129
233.045	5.38984
234.855	5.35894
236.663	5.2934
238.471	5.34741
240.278	5.85712
242.085	5.53827
243.891	5.16354
245.698	5.4853
247.503	6.43157
249.309	7.02162
251.116	8.43858
252.921	8.80266
254.725	8.93413
256.529	9.05807
258.333	9.21183
260.136	9.74189
261.939	10.1065
263.742	9.82053
265.544	9.44828
267.346	9.8416
269.148	8.91065
270.949	8.48478
272.75	7.98421
274.55	7.70835
276.351	8.31495
278.15	7.24044
279.95	7.13557
281.749	6.96779
283.548	6.98307
285.346	5.57928
287.144	4.85127
288.942	4.29926
290.739	4.59169
292.536	5.82697
294.333	5.82357
296.129	5.27169
297.925	5.36162
299.721	4.74149
301.514	4.66083
303.309	4.33707
305.104	3.58132
306.898	3.22006
308.692	3.02579
310.486	3.23399
312.279	3.97705
314.072	4.1368
315.862	4.18526
317.654	3.99041
319.446	4.4843
321.238	4.53794
323.029	4.94087
324.819	5.43077
326.608	5.80117
328.398	5.7598
330.188	5.79911
331.977	5.4591
333.766	5.46872
335.553	5.51191
337.341	5.85105
339.129	6.13273
340.917	7.13149
342.704	7.71001
344.489	7.0265
346.275	6.93884
348.062	7.84389
349.845	7.29539
351.631	6.96014
353.416	6.84147
355.201	7.20433
356.984	7.68806
358.768	6.76656
360.552	7.04507
362.333	6.91687
364.116	6.49545
365.899	6.45592
367.68	6.56203
369.462	6.02597
371.243	6.04526
373.023	5.84789
374.804	5.74389
376.585	6.65874
378.363	6.67436
380.143	7.00436
381.923	6.71986
383.7	6.05881
385.479	5.01969
387.256	4.20246
389.034	3.62152
390.812	3.82398
392.588	4.1752
394.365	4.69499
396.14	4.24567
397.916	3.49884
399.691	4.06091
401.467	3.9002
403.24	3.40047
405.015	3.41114
406.788	3.24297
408.563	4.0158
410.335	4.43152
412.109	4.3085
413.88	4.84534
415.654	4.18842
417.424	4.07121
419.197	4.632
420.967	4.73342
422.739	4.59117
424.508	5.095
426.279	5.33472
428.048	5.10002
429.819	5.34457
431.587	4.66844
433.356	4.80758
435.124	4.72613
436.891	5.11742
438.66	4.15288
440.426	4.57168
442.194	4.79031
443.96	5.61027
445.725	5.7546
447.492	6.08491
449.257	6.18045
451.021	6.02112
452.787	6.03213
454.551	5.95907
456.314	5.94758
458.079	5.36345
459.842	6.03202
461.604	6.27571
463.368	6.6543
465.13	7.19887
466.891	6.93892
468.654	6.7902
470.415	7.44803
472.175	6.89658
473.935	6.802
475.696	7.42146
477.456	8.04763
479.215	8.69755
480.973	8.43165
482.733	8.22694
484.491	7.18388
486.249	7.62049
488.006	8.59163
489.765	8.62655
491.522	9.73438
493.278	10.4023
495.034	10.6283
496.789	11.1958
498.544	11.7925
500.301	13.268
502.056	13.8788
503.81	14.2239
505.564	15.1402
507.317	15.7716
509.071	15.6512
510.825	15.6922
512.578	15.6684
514.33	15.3496
516.082	15.497
517.833	15.6707
519.585	15.3603
521.335	15.3236
523.086	14.9342
524.836	15.8438
526.586	15.6711
528.335	16.4996
530.085	16.6617
531.835	16.3525
533.584	16.6538
535.332	15.9273
537.08	14.6395
538.827	14.4019
540.574	14.74
542.321	14.1577
544.068	14.5117
545.814	14.1831
547.56	14.5306
549.305	13.7571
551.05	12.9645
552.795	12.6431
554.54	11.7615
556.282	11.5256
558.025	11.0304
559.769	9.91556
561.512	9.15402
563.255	8.51268
564.997	8.37389
566.739	7.3843
568.481	6.65483
570.223	6.86471
571.964	6.96603
573.705	6.51454
575.443	6.08722
577.183	7.11961
578.923	7.2217
580.663	7.29284
582.402	7.42602
584.141	7.78313
585.879	7.74826
587.615	7.6112
589.353	6.47541
591.09	6.10581
592.828	6.32823
594.564	6.57422
596.299	6.54159
598.035	6.82882
599.771	6.80177
601.506	6.73414
603.242	6.92884
604.974	7.84656
606.709	8.45291
608.443	9.38684
610.177	11.3011
611.908	11.9658
613.642	12.5667
615.374	13.6301
617.105	13.9705
618.837	14.3578
620.569	16.3617
622.3	16.553
624.03	17.4676
625.761	18.109
627.491	19.6966
629.219	20.6939
630.949	21.1643
632.677	20.8969
634.406	21.796
636.135	21.5221
637.861	22.5633
639.59	22.2461
641.318	22.5494
643.043	23.0632
644.77	22.7746
646.495	23.2251
648.222	23.5058
649.948	24.4284
651.672	25.0843
653.398	24.7881
655.121	25.2973
656.846	25.8339
658.569	25.641
660.293	25.1873
662.015	26.0676
663.738	26.6411
665.46	26.7088
667.183	26.7269
668.903	27.3396
670.626	26.9827
672.346	27.596
674.067	29.3674
675.787	29.6406
677.508	30.8366
679.226	32.1612
680.947	32.1568
682.665	32.8483
684.385	33.3659
686.102	33.6678
687.821	34.5224
689.538	35.1629
691.254	36.0009
692.972	37.0038
694.688	37.7418
696.406	38.9115
698.121	39.4749
699.835	40.4687
701.552	41.0049
703.266	41.3724
704.98	43.2194
706.695	44.9338
708.409	46.0192
710.121	46.5591
711.836	47.392
713.548	47.822
715.26	48.3961
716.973	48.3916
718.685	48.6594
720.396	49.22
722.108	49.1375
723.818	50.0756
725.528	49.417
727.238	49.9613
728.949	50.9195
730.658	51.8746
732.367	53.1132
734.075	53.6526
735.785	54.9831
737.493	55.2665
739.2	55.62
740.907	56.5662
742.614	57.4815
744.322	57.7497
746.028	58.1065
747.734	58.8583
749.439	60.1278
751.144	61.1474
752.849	62.1314
754.555	63.6611
756.26	63.5494
757.963	65.4588
759.667	66.1596
761.37	65.8723
763.073	67.4189
764.775	69.0427
766.477	69.4637
768.179	70.8664
769.883	71.812
771.584	72.7319
773.285	73.9237
774.986	75.0901
776.686	75.788
778.386	77.6791
780.085	78.6751
781.785	79.6607
783.484	80.0046
785.182	80.7013
786.881	80.9266
788.579	81.8379
790.276	82.6665
791.974	83.5979
793.671	83.7182
795.367	82.9442
797.064	84.2072
798.76	85.357
800.456	85.9445
802.151	85.6965
803.846	85.7925
805.541	86.3907
807.234	86.3604
808.928	87.4248
810.622	87.8817
812.315	88.3858
814.008	88.8841
815.701	89.6144
817.394	89.8375
819.086	89.7505
820.778	90.3798
822.468	90.4975
824.159	90.7344
825.85	91.2003
827.541	90.6265
829.231	90.4274
830.921	90.4942
832.609	90.3813
834.298	90.6939
835.987	89.9071
837.676	89.8064
839.364	89.0626
841.051	88.0582
842.738	87.6759
844.426	86.4039
846.113	85.58
847.798	84.6299
849.484	83.9428
851.171	81.7991
852.857	80.9134
854.54	79.0777
856.226	77.5814
857.911	76.6936
859.593	74.8545
861.278	72.9649
862.961	72.8003
864.645	70.2353
866.327	68.7667
868.01	66.9495
869.692	66.0723
871.373	64.7887
873.055	64.4446
874.735	63.318
876.416	62.8656
878.097	61.5144
879.776	61.1947
881.457	61.7407
883.135	60.4862
884.815	59.2519
886.495	59.0131
888.172	59.1371
889.851	59.7178
891.528	59.0933
893.206	59.3045
894.882	58.9038
896.56	58.2749
898.237	58.8389
899.912	59.6476
901.589	59.7898
903.263	59.328
904.94	59.6041
906.614	59.4289
908.289	59.0491
909.962	58.388
911.635	58.006
913.31	58.1137
914.982	58.1465
916.656	57.379
918.328	57.1244
920.001	56.181
921.672	55.8729
923.345	55.6613
925.015	55.3534
926.685	54.9953
928.357	54.2553
930.026	53.4394
931.698	51.8398
933.366	51.0575
935.035	49.8808
936.705	49.4775
938.373	48.7873
940.041	48.9109
941.71	47.7116
943.377	46.5458
945.044	45.5562
946.712	44.9696
948.378	44.1616
950.044	44.6228
951.709	44.7381
953.376	45.6562
955.041	45.4924
956.706	44.4867
958.372	43.4611
960.036	42.6162
961.699	42.5337
963.362	42.4404
965.027	42.6459
966.69	42.2347
968.352	42.2085
970.014	41.9747
971.676	42.0297
973.339	41.7051
975	41.0847
976.661	41.0729
978.322	41.5364
979.982	42.0114
981.642	42.6263
983.303	42.0091
984.962	41.3986
986.621	40.4284
988.28	40.2961
989.938	39.8902
991.596	40.1781
993.254	39.8485
994.911	40.3412
996.57	39.8057
998.227	39.8419
999.884	39.0239
1001.54	39.0151
1003.2	38.9662
1004.85	38.772
1006.51	38.1498
1008.16	37.4842
1009.82	36.7712
1011.47	35.421
1013.12	34.7384
1014.78	34.3637
1016.43	33.9574
1018.08	34.3509
1019.74	34.2521
1021.39	33.9067
1023.04	33.2287
1024.69	32.2499
1026.34	32.8686
1028	32.5534
1029.65	33.3052
1031.3	33.0515
1032.95	32.9685
1034.6	32.755
1036.25	31.7569
1037.9	30.4613
1039.54	29.552
1041.19	29.2511
1042.84	29.1933
1044.49	30.2578
1046.14	30.6359
1047.78	30.902
1049.43	30.2234
1051.08	29.9879
1052.72	29.2804
1054.37	28.9031
1056.02	29.1897
1057.66	29.9729
1059.31	29.3438
1060.95	29.5484
1062.6	29.2179
1064.24	28.3291
1065.88	27.147
1067.53	27.1513
1069.17	27.2971
1070.81	26.8286
1072.45	26.3604
1074.1	25.8458
1075.74	24.494
1077.38	24.042
1079.02	23.424
1080.66	23.7377
1082.3	22.9184
1083.94	22.3221
1085.58	21.3536
1087.22	20.4278
1088.86	19.8523
1090.5	19.7957
1092.14	19.1671
1093.78	18.8776
1095.42	18.428
1097.05	18.5163
1098.69	17.616
1100.33	17.6222
1101.96	17.3971
1103.6	16.5007
1105.24	16.4191
1106.87	15.9931
1108.51	16.1262
1110.14	15.6557
1111.78	15.1416
1113.41	14.1689
1115.05	14.1311
1116.68	13.8993
1118.31	13.8003
1119.95	13.8257
1121.58	13.8599
1123.21	13.746
1124.85	13.4948
1126.48	13.6562
1128.11	13.4633
1129.74	12.6432
1131.37	11.5055
1133	11.8152
1134.63	12.2372
1136.26	12.9376
1137.89	13.0462
1139.52	12.1839
1141.15	11.7538
1142.78	12.1465
1144.41	11.624
1146.04	11.5456
1147.66	11.1437
1149.29	11.0915
1150.92	10.4614
1152.55	9.20921
1154.17	8.75611
1155.8	8.4789
1157.43	7.74808
1159.05	7.88665
1160.68	7.6976
1162.3	7.29572
1163.93	6.09403
1165.55	5.7633
1167.17	5.22754
1168.8	4.96667
1170.42	4.78661
1172.05	4.25115
1173.67	3.56381
1175.29	3.33263
1176.91	2.41896
1178.54	2.93701
1180.16	2.74494
1181.78	3.21839
1183.4	3.8807
1185.02	3.70602
1186.64	4.21624
1188.26	4.13945
1189.88	4.55505
1191.5	4.69003
1193.12	4.07698
1194.74	4.61848
1196.36	5.20025
1197.97	5.21548
1199.59	5.74686
1201.21	6.02325
1202.83	7.42135
1204.44	8.4376
1206.06	8.96997
1207.68	10.7271
1209.29	11.5106
1210.91	11.7536
1212.52	13.8194
1214.14	15.1602
1215.75	15.966
1217.37	16.454
1218.98	17.5592
1220.59	18.3607
1222.21	19.939
1223.82	21.5657
1225.43	23.215
1227.05	23.9183
1228.66	25.1276
1230.27	25.9594
1231.88	27.1578
1233.49	27.9347
1235.1	28.4928
1236.72	29.1249
1238.33	29.5709
1239.94	29.8983
1241.55	30.383
1243.16	30.674
1244.76	31.4163
1246.37	31.2735
1247.98	31.9475
1249.59	32.6467
1251.2	33.6427
1252.8	33.8678
1254.41	34.7149
1256.02	35.6466
1257.62	36.273
1259.23	36.6692
1260.84	36.758
1262.44	36.7073
1264.05	36.646
1265.66	36.6177
1267.26	37.4419
1268.86	37.8344
1270.47	37.5573
1272.07	37.3847
1273.67	37.2573
1275.28	37.794
1276.88	38.5351
1278.48	39.7904
1280.09	40.8587
1281.69	41.5096
1283.29	41.8961
1284.89	41.49
1286.49	42.0554
1288.09	42.9976
1289.69	43.4376
1291.29	44.1674
1292.89	45.5788
1294.49	45.2502
1296.09	46.0006
1297.69	46.5386
1299.29	47.6925
1300.89	47.7737
1302.49	49.0173
1304.08	50.0964
1305.68	50.469
1307.28	49.5448
1308.88	50.5523
1310.47	50.1828
1312.07	50.0741
1313.66	49.5892
1315.26	49.4466
1316.85	49.7159
1318.45	50.1239
1320.04	50.2294
1321.64	50.3669
1323.23	50.6819
1324.83	50.9292
1326.42	49.9732
1328.01	49.7915
1329.61	49.7669
1331.2	48.8144
1332.79	48.0827
1334.38	48.0812
1335.97	47.9654
1337.56	46.9771
1339.16	45.9706
1340.75	45.9057
1342.34	45.0503
1343.93	44.7896
1345.52	44.4537
1347.11	44.1999
1348.7	42.2259
1350.29	40.5966
1351.87	40.2896
1353.46	40.0499
1355.05	39.5261
1356.64	39.3707
1358.22	39.0177
1359.81	38.0629
1361.4	37.2076
1362.98	36.4949
1364.57	35.6044
1366.16	35.689
1367.74	34.4863
1369.33	33.6274
1370.91	32.211
1372.5	30.9856
1374.08	29.9827
1375.67	29.1705
1377.25	28.4338
1378.83	28.0023
1380.41	26.9995
1382	26.3448
1383.58	25.2217
1385.16	24.5506
1386.74	23.6986
1388.33	23.5679
1389.91	22.8346
1391.49	22.3431
1393.07	22.5602
1394.65	22.0466
1396.23	22.0923
1397.81	22.1736
1399.39	21.6189
1400.97	20.777
1402.55	21.1918
1404.13	20.9557
1405.7	20.7064
1407.28	21.8857
1408.86	22.8274
1410.44	22.758
1412.01	24.0166
1413.59	24.5537
1415.17	24.9518
1416.74	25.9002
1418.32	26.7895
1419.89	28.6277
1421.47	30.1005
1423.04	31.5287
1424.62	32.7009
1426.19	34.2445
1427.77	35.4828
1429.34	37.5541
1430.91	39.8996
1432.49	41.8434
1434.06	43.5388
1435.63	44.8504
1437.2	46.7071
1438.78	47.4001
1440.35	47.9738
1441.92	48.3939
1443.49	48.4511
1445.06	49.3556
1446.63	49.0939
1448.2	49.4112
1449.77	49.8198
1451.34	50.1536
1452.91	50.7319
1454.48	50.4339
1456.05	50.0978
1457.62	49.1394
1459.18	48.3377
1460.75	47.4114
1462.32	46.2254
1463.89	45.498
1465.45	44.4471
1467.02	43.393
1468.59	42.1041
1470.15	40.3914
1471.72	39.0264
1473.28	36.9088
1474.85	35.072
1476.41	33.4158
1477.98	31.6787
1479.54	29.961
1481.1	29.0827
1482.67	27.7229
1484.23	25.9791
1485.79	24.8613
1487.36	22.638
1488.92	21.5813
1490.48	20.5194
1492.04	18.6453
1493.61	18.1507
1495.17	17.7967
1496.73	16.5327
1498.29	16.0552
1499.85	15.9804
1501.41	14.5365
1502.97	14.5072
1504.53	14.2187
1506.09	14.2184
1507.65	13.6215
1509.2	13.8155
1510.76	13.8443
1512.32	13.168
1513.88	12.721
1515.43	12.8087
1516.99	12.6377
1518.55	12.102
1520.1	11.707
1521.66	12.306
1523.22	12.5663
1524.77	13.2473
1526.33	13.895
1527.88	14.5764
1529.44	15.0239
1530.99	15.4966
1532.54	15.8761
1534.1	16.0802
1535.65	16.4642
1537.21	17.6956
1538.76	18.5845
1540.31	19.6283
1541.86	20.4141
1543.42	21.5472
1544.97	22.502
1546.52	23.2025
1548.07	23.9104
1549.62	24.2276
1551.17	24.7469
1552.72	26.1441
1554.27	27.0567
1555.82	27.8865
1557.37	28.166
1558.92	29.3119
1560.47	29.4424
1562.02	29.6108
1563.56	30.6157
1565.11	31.2735
1566.66	31.9233
1568.21	32.2045
1569.75	32.6834
1571.3	34.2664
1572.85	35.5473
1574.39	35.9967
1575.94	36.9282
1577.49	37.8038
1579.03	38.0641
1580.57	39.4191
1582.12	39.5849
1583.66	40.0921
1585.21	40.4565
1586.75	40.634
1588.3	40.1592
1589.84	39.487
1591.38	40.3463
1592.92	40.1948
1594.47	40.2073
1596.01	39.2549
1597.55	40.4445
1599.09	40.8967
1600.63	40.414
1602.17	39.8626
1603.71	39.9741
1605.25	39.6395
1606.79	39.4893
1608.33	38.9354
1609.87	38.57
1611.41	38.5713
1612.95	38.525
1614.49	39.0307
1616.03	39.2398
1617.57	39.2897
1619.1	39.1263
1620.64	40.1086
1622.18	40.0029
1623.72	39.724
1625.25	39.194
1626.79	38.7457
1628.32	39.4592
1629.86	40.0883
1631.39	39.9675
1632.93	40.7736
1634.46	40.7203
1636	42.0268
1637.53	42.6433
1639.07	43.4065
1640.6	44.3796
1642.13	44.9191
1643.67	45.9731
1645.2	46.8801
1646.73	48.2192
1648.26	48.9888
1649.8	49.7367
1651.33	49.7745
1652.86	50.6144
1654.39	51.142
1655.92	51.5716
1657.45	51.4817
1658.98	50.6535
1660.51	50.4842
1662.04	49.7827
1663.57	48.6548
1665.1	47.9685
1666.63	47.293
1668.16	46.981
1669.68	44.8746
1671.21	43.3428
1672.74	42.1067
1674.27	41.6557
1675.79	39.8791
1677.32	38.3038
1678.85	36.5793
1680.37	35.3253
1681.9	33.1667
1683.42	31.7562
1684.95	30.3912
1686.47	29.4275
1688	27.9751
1689.52	26.473
1691.05	25.2819
1692.57	24.1855
1694.09	22.263
1695.62	20.4413
1697.14	18.5397
1698.66	16.6372
1700.18	15.144
1701.71	13.3071
1703.23	12.6185
1704.75	11.5754
1706.27	10.6452
1707.79	9.49186
1709.31	9.18047
1710.83	8.43334
1712.35	8.21775
1713.87	7.48637
1715.39	6.56259
1716.91	6.29416
1718.43	5.77261
1719.95	5.56499
1721.47	4.86508
1722.99	4.47622
1724.5	4.04712
1726.02	3.92419
1727.54	3.60222
1729.06	3.29559
1730.57	2.99147
1732.09	2.57621
1733.61	2.2394
1735.12	1.43497
1736.64	1.45465
1738.15	0.998829
1739.67	0.936127
1741.18	0.807215
1742.7	0.740137
1744.21	0.941556
1745.72	0.784518
1747.24	1.06293
1748.75	1.63023
1750.26	1.85288
1751.77	1.9285
1753.29	1.70704
1754.8	1.37513
1756.31	1.27199
1757.82	1.8599
1759.33	2.12518
1760.84	1.95944
1762.36	2.06907
1763.87	1.71119
1765.38	1.60661
1766.89	1.62419
1768.4	1.17512
1769.91	0.517289
1771.41	0.414754
1772.92	0.523399
1774.43	1.32324
1775.94	1.68216
1777.45	1.6408
1778.95	2.3619
1780.46	2.32324
1781.97	2.91877
1783.48	3.08309
1784.98	3.30994
1786.49	3.02242
1787.99	3.08452
1789.5	3.08459
1791.01	3.10701
1792.51	3.57707
1794.01	3.65133
1795.52	3.68124
1797.02	3.89566
1798.53	4.0872
1800.03	4.30264
1801.53	4.4462
1803.04	4.81895
1804.54	5.12366
1806.04	5.25749
1807.54	5.48956
1809.05	5.64499
1810.55	5.82064
1812.05	6.3519
1813.55	6.36561
1815.05	6.64241
1816.55	7.32009
1818.05	7.35795
1819.55	7.23895
1821.05	6.54975
1822.55	6.56974
1824.05	6.69799
1825.55	6.45671
1827.05	6.36698
1828.55	6.49055
1830.04	6.62861
1831.54	6.81219
1833.04	7.08371
1834.54	6.6838
1836.03	6.78035
1837.53	6.69985
1839.03	6.07399
1840.52	5.65455
1842.02	6.01839
1843.51	5.55958
1845.01	5.9941
1846.5	6.02141
1848	6.48855
1849.49	6.52639
1850.99	5.79404
1852.48	5.23768
1853.97	4.87352
1855.47	4.9332
1856.96	4.23855
1858.45	4.15093
1859.94	4.30257
1861.44	4.37033
1862.93	4.20135
1864.42	4.62487
1865.91	5.33495
1867.4	5.27093
1868.89	5.2821
1870.38	5.43447
1871.87	5.52988
1873.36	5.71226
1874.85	5.85448
1876.34	6.00473
1877.83	5.92991
1879.32	5.82772
1880.81	5.94632
1882.3	6.20858
1882.57	6.39132
1884.07	6.89714
1885.56	6.95333
1887.06	7.06633
1888.55	7.34116
1890.04	7.87067
1891.54	7.32476
1893.03	7.26665
1894.52	7.82575
1896.02	8.74036
1897.51	9.50597
1899	9.30078
1900.49	9.5536
1901.98	9.85111
1903.47	9.72629
1904.96	9.17156
1906.45	8.80791
1907.94	8.75681
1909.43	8.27464
1910.92	8.13588
1912.41	7.94897
1913.9	7.61582
1915.39	7.91455
1916.88	8.42011
1918.37	8.52998
1919.85	8.24601
1921.34	7.63837
1922.83	6.61544
1924.32	6.1737
1925.8	5.75662
1927.29	5.84212
1928.78	5.97826
1930.26	5.90573
1931.75	6.42582
1933.23	6.552
1934.72	6.36097
1936.2	6.65434
1937.69	7.00389
1939.17	7.12639
1940.66	6.90075
1942.14	6.80239
1943.63	6.19298
1945.11	5.30534
1946.59	5.41828
1948.07	5.11323
1949.56	4.5561
1951.04	4.34583
1952.52	4.18994
1954	4.34036
1955.48	4.81446
1956.96	5.13452
1958.45	4.87434
1959.93	3.9011
1961.41	3.90205
1962.89	3.66387
1964.37	3.75834
1965.85	4.06921
1967.32	3.97924
1968.8	3.90808
1970.28	3.40348
1971.76	2.97937
1973.24	1.74809
1974.72	1.42324
1976.19	0.987724
1977.67	0.804401
1979.15	0.72698
1980.63	1.549
1982.1	1.4543
1983.58	1.27457
1985.05	2.08476
1986.53	1.89912
1988	1.4263
1989.48	2.21128
1990.95	2.47496
1992.43	1.9107
1993.9	1.76452
1995.38	1.67063
1996.85	2.01354
1998.32	2.88117
1999.8	2.91633
2001.27	2.96711
2002.74	3.1062
2004.22	3.25448
2005.69	3.21116
2007.16	3.46313
2008.63	3.57907
2010.1	4.64706
2011.57	4.7777
2013.04	5.24521
2014.51	4.82746
2015.98	4.65864
2017.45	4.15849
2018.92	4.57712
2020.39	4.89538
2021.86	4.16247
2023.33	4.33937
2024.8	4.88063
2026.27	4.92744
2027.74	5.13018
2029.2	5.24103
2030.67	4.59457
2032.14	4.39302
2033.61	4.48039
2035.07	4.92143
2036.54	4.89236
2038.01	5.19256
2039.47	4.77507
2040.94	3.61602
2042.4	3.88643
2043.87	4.11478
2045.33	4.46309
2046.8	4.64229
2048.26	4.77691
2049.72	5.18381
2051.19	6.04762
2052.65	6.3116
2054.12	6.87565
2055.58	6.68897
2057.04	7.12156
2058.5	7.6238
2059.97	7.99717
2061.43	8.40977
2062.89	9.24635
2064.35	9.57408
2065.81	9.45822
2067.27	9.81512
2068.73	9.79792
2070.19	10.298
2071.65	10.5443
2073.11	10.7854
2074.57	11.132
2076.03	11.4231
2077.49	12.3583
2078.95	12.9386
2080.41	13.5181
2081.87	14.0398
2083.32	14.2849
2084.78	14.1448
2086.24	14.6498
2087.7	14.6751
2089.15	15.155
2090.61	14.8189
2092.07	15.3412
2093.52	15.175
2094.98	15.4753
2096.43	16.1574
2097.89	16.1181
2099.34	15.8769
2100.8	15.9641
2102.25	16.3304
2103.71	16.4934
2105.16	16.7215
2106.61	17.2955
2108.07	17.448
2109.52	17.4936
2110.97	17.9404
2112.43	18.547
2113.88	19.8239
2115.33	21.2368
2116.78	21.9778
2118.23	22.5882
2119.68	23.4902
2121.13	24.0104
2122.59	25.2464
2124.04	25.8034
2125.49	26.8453
2126.94	28.457
2128.39	29.633
2129.83	31.1199
2131.28	32.5587
2132.73	33.8278
2134.18	35.3506
2135.63	35.9117
2137.08	37.054
2138.53	37.7464
2139.97	39.5458
2141.42	40.7213
2142.87	41.939
2144.31	43.2675
2145.76	44.2536
2147.21	44.8067
2148.65	46.0941
2150.1	48.2426
2151.54	48.9397
2152.99	49.9541
2154.43	51.0101
2155.88	51.3134
2157.32	52.5312
2158.77	53.2092
2160.21	53.7207
2161.65	54.3982
2163.1	54.3893
2164.54	54.6661
2165.98	55.6787
2167.43	55.6624
2168.87	55.7994
2170.31	56.2674
2171.75	56.8178
2173.19	56.8583
2174.64	57.1957
2176.07	56.9661
2177.52	56.8577
2178.96	56.5169
2180.4	56.2361
2181.84	56.1657
2183.28	56.116
2184.72	56.2439
2186.15	55.6183
2187.59	54.7105
2189.03	54.0195
2190.47	53.0629
2191.91	52.185
2193.35	50.8097
2194.78	50.4171
2196.22	49.4575
2197.66	49.1583
2199.09	47.9636
2200.53	46.7718
2201.97	45.6938
2203.4	44.1046
2204.84	42.4899
2206.27	40.8981
2207.71	38.5746
2209.14	37.2305
2210.58	36.0497
2212.01	35.0456
2213.45	33.6046
2214.88	32.4884
2216.31	31.6316
2217.75	30.0171
2219.18	29.8518
2220.61	29.1626
2222.05	28.1855
2223.48	27.0425
2224.91	25.9887
2226.34	24.7003
2227.78	23.5657
2229.21	23.19
2230.64	22.3004
2232.07	21.7665
2233.5	20.8728
2234.93	19.6914
2236.36	19.2391
2237.79	19.1695
2239.22	17.849
2240.65	17.3351
2242.08	16.8332
2243.5	15.3558
2244.93	14.1819
2246.36	13.7272
2247.79	13.0322
2249.22	13.0545
2250.64	12.593
2252.07	12.3045
2253.5	12.1303
2254.92	11.57
2256.35	11.2056
2257.78	10.5104
2259.2	10.1491
2260.63	10.4949
2262.05	10.1677
2263.48	9.94186
2264.9	9.97551
2266.33	10.1846
2267.75	9.55833
2269.18	9.25686
2270.6	9.00954
2272.02	9.5048
2273.45	8.93216
2274.87	8.69864
2276.29	8.74609
2277.71	8.85504
2279.14	9.15899
2280.56	9.25621
2281.98	9.77206
2283.4	9.73699
2284.82	9.95951
2286.24	9.80101
2287.66	9.66353
2289.08	9.23741
2290.5	9.9037
2291.92	9.14041
2293.34	8.93215
2294.76	9.18722
2296.18	9.31971
2297.6	9.78852
2299.02	10.321
2300.44	10.5793
2301.86	10.2233
2303.27	9.98247
2304.69	9.78172
2306.11	9.68233
2307.53	9.27429
2308.94	8.90984
2310.36	7.76705
2311.78	7.50598
2313.19	7.28129
2314.61	6.47249
2316.02	6.59242
2317.44	6.18498
2318.85	5.69156
2320.27	5.42825
2321.68	4.617
2323.1	4.57401
2324.51	4.42319
2325.92	3.73195
2327.34	3.26745
2328.75	3.4146
2330.16	3.65823
2331.58	3.76055
2332.99	3.08495
2334.4	3.1331
2335.81	3.14621
2337.23	2.79585
2338.64	2.35591
2340.05	2.47786
2341.46	2.51986
2342.87	2.38832
2344.28	1.78818
2345.69	1.81296
2347.1	1.77889
2348.51	1.84066
2349.92	1.93812
2351.33	1.62438
2352.74	1.44144
2354.15	1.24054
2355.55	1.33535
2356.96	1.31892
2358.37	1.37888
2359.78	1.29251
2361.19	1.95232
2362.59	2.24514
2364	2.59647
2365.41	2.95911
2366.81	2.81971
2368.22	3.02316
2369.62	2.18873
2371.03	2.56577
2372.44	2.38312
2373.84	2.84186
2375.24	2.73922
2376.65	2.48412
2378.05	2.16287
2379.46	2.12003
2380.86	1.73269
2382.26	2.05056
2383.67	1.7439
2385.07	1.25312
2386.47	1.53899
2387.88	0.844643
2389.28	0.77103
2390.68	0.863784
2392.08	0.930476
2393.48	0.49582
2394.89	0.437637
2396.29	0.683569
2397.69	0.605855
2399.09	1.08281
2400.49	0.655281
2401.89	0.631213
2403.29	0.783809
2404.69	1.11434
2406.09	1.59705
2407.48	1.43059
2408.88	2.00054
2410.28	2.39904
2411.68	2.81982
2413.08	2.84048
2414.48	3.38483
2415.87	3.89912
2417.27	4.33664
2418.67	4.56893
2420.06	4.56755
2421.46	4.27573
2422.86	4.7211
2424.25	5.57424
2425.65	6.03724
2427.04	6.62472
2428.44	6.50501
2429.83	6.36134
2431.23	6.57976
2432.62	6.58918
2434.02	5.98183
2435.41	5.85797
2436.81	6.78445
2438.2	7.11981
2439.59	7.18067
2440.99	7.89314
2442.38	7.71064
2443.77	7.83331
2445.16	7.61622
2446.56	7.63799
2447.95	7.62524
2449.34	7.52403
2450.73	6.92234
2452.12	7.25673
2453.51	7.18826
2454.9	6.90674
2456.29	6.90513
2457.68	5.84415
2459.07	6.23875
2460.46	5.92012
2461.85	5.961
2463.24	5.81092
2464.63	6.13333
2466.02	5.63784
2467.4	4.93072
2468.79	5.05793
2470.18	4.88455
2471.57	4.86186
2472.95	4.21765
2474.34	4.13621
2475.73	4.25997
2477.12	3.56202
2478.5	3.5962
2479.89	2.84747
2481.27	2.85406
2482.66	3.11381
2484.04	3.15719
2485.43	2.70021
2486.81	2.83712
2488.2	3.10563
2489.58	2.61386
2490.97	2.34068
2492.35	2.58893
2493.73	2.71764
2495.12	1.87157
2496.5	1.63834
2497.88	0.853199
2499.27	0.732059
2500.65	1.18986
2502.03	0.887814
2503.41	0.634003
2504.79	0.909644
2506.17	1.50311
2507.56	1.16361
2508.94	1.39196
2510.32	1.44762
2511.7	1.98194
2513.08	1.94297
2514.46	2.30486
2515.84	2.53639
2517.22	2.88533
2518.59	2.64062
2519.97	2.75981
2521.35	3.43061
2522.73	3.43895
2524.11	3.1725
2525.49	3.64507
2526.86	3.47005
2528.24	3.77648
2529.62	3.6487
2530.99	4.34151
2532.37	5.17361
2533.75	5.12257
2535.12	4.85925
2536.5	4.9147
2537.88	5.56439
2539.25	5.48814
2540.63	5.64709
2542	6.27764
2543.38	6.9467
2544.75	7.41208
2546.12	7.35603
2547.5	7.11038
2548.87	7.5388
2550.24	8.03642
2551.62	8.19886
2552.99	7.82448
2554.36	8.05729
2555.74	8.65448
2557.11	8.18514
2558.48	8.12935
2559.85	8.90635
2561.22	9.717
2562.59	9.76808
2563.96	9.83088
2565.34	10.3126
2566.71	10.1598
2568.08	10.2974
2569.45	10.5007
2570.82	10.0268
2572.18	9.83847
2573.55	9.79517
2574.92	9.75031
2576.29	9.85011
2577.66	9.49706
2579.03	9.26449
2580.4	9.26038
2581.77	9.14063
2583.13	9.30009
2584.5	9.0816
2585.87	8.72251
2587.23	7.9107
2588.6	8.09361
2589.97	7.71306
2591.33	7.67625
2592.7	7.08873
2594.06	7.04054
2595.43	6.80067
2596.79	6.7851
2598.16	6.913
2599.52	7.25608
2600.89	7.4486
2602.25	6.88436
2603.62	7.13563
2604.98	7.66144
2606.34	7.8235
2607.71	7.83271
2609.07	8.10058
2610.43	7.94954
2611.79	7.84734
2613.16	7.57731
2614.52	7.57186
2615.88	7.38381
2617.24	8.00613
2618.6	8.10973
2619.96	8.32444
2621.32	8.33113
2622.68	8.44821
2624.04	8.79841
2625.4	8.63998
2626.76	9.58057
2628.12	9.47148
2629.48	9.40213
2630.84	8.96776
2632.2	8.74746
2633.56	7.95215
2634.92	7.73514
2636.28	7.47886
2637.63	7.37522
2638.99	7.42642
2640.35	6.84847
2641.71	6.56833
2643.06	6.3836
2644.42	6.33066
2645.77	6.57478
2647.13	6.84209
2648.49	7.16303
2649.84	6.9251
2651.2	6.71373
2652.55	6.11155
2653.91	5.93152
2655.26	5.73296
2656.62	6.02889
2657.97	6.0845
2659.33	6.11625
2660.68	5.91837
2662.03	6.0681
2663.39	6.59009
2664.74	6.40129
2666.09	6.55219
2667.44	6.91796
2668.8	7.19694
2670.15	7.45571
2671.5	7.73089
2672.85	8.09919
2674.2	8.14088
2675.55	8.35734
2676.91	7.966
2678.26	8.40828
2679.61	7.78197
2680.96	7.96134
2682.31	8.11752
2683.66	7.46875
2685	7.74093
2686.35	7.91842
2687.7	7.69946
2689.05	7.3332
2690.4	7.34498
2691.75	7.70487
2693.1	7.44034
2694.44	7.70516
2695.79	7.48595
2697.14	7.78859
2698.49	7.34534
2699.83	7.18963
2701.18	7.48723
2702.52	7.55297
2703.87	7.38537
2705.22	7.73867
2706.56	7.66779
2707.91	7.29168
2709.25	7.6724
2710.6	7.96085
2711.94	8.46227
2713.29	8.22983
2714.63	7.66347
2715.97	7.48088
2717.32	6.76368
2718.66	6.9784
2720.01	6.76959
2721.35	6.96347
2722.69	6.76375
2724.03	6.83536
2725.38	7.06608
2726.72	6.60336
2728.06	6.44177
2729.4	6.24676
2730.74	6.49359
2732.08	6.57684
2733.42	6.69148
2734.76	6.78314
2736.1	6.89496
2737.44	6.71908
2738.78	7.08695
2740.12	6.91908
2741.46	6.87598
2742.8	6.69294
2744.14	6.53553
2745.48	6.33398
2746.82	5.7577
2748.16	6.21623
2749.49	5.90174
2750.83	5.26443
2752.17	5.54628
2753.51	4.94919
2754.84	4.37656
2756.18	3.87339
2757.52	3.92402
2758.85	4.26966
2760.19	3.91607
2761.53	4.53755
2762.86	4.83505
2764.2	4.7204
2765.53	4.18887
2766.87	4.45764
2768.2	4.41434
2769.54	4.08386
2770.87	4.08443
2772.2	3.71763
2773.54	3.10155
2774.87	3.03848
2776.2	3.15664
2777.54	2.96928
2778.87	2.52212
2780.2	2.14196
2781.53	2.31377
2782.87	2.48576
2784.2	2.16592
2785.53	2.64827
2786.86	2.44048
2788.19	2.05429
2789.52	2.20302
2790.85	2.21984
2792.18	2.16636
2793.51	1.72553
2794.84	1.44335
2796.17	1.69623
2797.5	1.86844
2798.83	1.44871
2800.16	1.09385
2801.49	0.708332
2802.82	0.72894
2804.15	0.67617
2805.47	0.929012
2806.8	0.333053
2808.13	0.363756
2809.46	0.0786898
2810.78	-0.0896028
2812.11	-0.291922
2813.44	0.418914
2814.76	-0.0294595
2816.09	-0.0811103
2817.42	-0.576789
2818.74	0.0544932
2820.07	0.747805
2821.39	1.71491
2822.72	2.58012
2824.04	3.56227
2825.37	4.50478
2826.69	5.57099
2828.02	6.93791
2829.34	7.53973
2830.66	8.3818
2831.99	9.65734
2833.31	11.0811
2834.63	11.8653
2835.96	12.6617
2837.28	13.4256
2838.6	14.6586
2839.92	15.946
2841.24	17.7661
2842.57	19.4183
2843.89	20.7471
2845.21	22.1767
2846.53	24.1188
2847.85	26.0401
2849.17	28.1596
2850.49	29.9298
2851.81	31.6564
2853.13	33.4953
2854.45	35.7465
2855.77	37.9097
2857.09	39.9305
2858.41	41.9213
2859.72	43.8869
2861.04	46.1678
2862.36	48.2516
2863.68	50.2654
2865	51.9459
2866.31	54.0835
2867.63	55.7422
2868.95	57.8697
2870.26	59.3139
2871.58	61.2409
2872.9	62.4782
2874.21	63.3054
2875.53	64.2033
2876.84	65.072
2878.16	65.9717
2879.47	66.762
2880.79	67.35
2882.1	68.384
2883.42	69.3437
2884.73	69.8859
2886.05	71.0176
2887.36	71.8893
2888.67	73.2646
2889.99	74.7319
2891.3	76.1569
2892.61	77.9158
2893.92	79.323
2895.24	80.665
2896.55	82.3411
2897.86	83.8226
2899.17	84.9493
2900.48	86.1276
2901.79	88.0955
2903.11	90.0433
2904.42	92.4891
2905.73	94.75
2907.04	97.881
2908.35	100.715
2909.66	103.343
2910.97	106.184
2912.27	109.407
2913.58	112.808
2914.89	116.241
2916.2	119.558
2917.51	123.009
2918.82	126.533
2920.13	129.645
2921.43	132.672
2922.74	135.492
2924.05	137.521
2925.35	139.707
2926.66	141.264
2927.97	143.005
2929.27	144.686
2930.58	145.399
2931.89	145.955
2933.19	146.261
2934.5	146.174
2935.8	145.185
2937.11	144.44
2938.41	142.781
2939.72	140.845
2941.02	139.543
2942.32	137.681
2943.63	135.737
2944.93	134.14
2946.24	131.758
2947.54	129.065
2948.84	127.154
2950.14	124.342
2951.45	122.505
2952.75	119.996
2954.05	117.412
2955.35	114.28
2956.65	111.124
2957.95	108.099
2959.26	104.276
2960.56	101.147
2961.86	98.0279
2963.16	94.733
2964.46	91.6363
2965.76	88.8931
2967.06	86.5993
2968.36	83.9593
2969.66	81.4442
2970.96	79.0861
2972.25	76.7665
2973.55	74.0588
2974.85	71.3049
2976.15	68.9233
2977.45	66.3838
2978.74	64.0619
2980.04	61.531
2981.34	59.135
2982.64	56.6555
2983.93	54.4204
2985.23	52.0166
2986.52	49.3236
2987.82	46.4346
2989.12	43.7416
2990.41	41.8395
2991.71	39.5737
2993	37.457
2994.3	34.6374
2995.59	31.8042
2996.89	29.1934
2998.18	26.9031
2999.48	24.491
3000.77	21.9755
3002.06	20.2866
3003.36	18.3023
3004.65	16.3012
3005.94	15.0467
3007.23	13.1918
3008.53	11.9805
3009.82	10.8462
3011.11	9.23839
3012.4	8.05751
3013.69	6.87303
3014.99	5.26813
3016.28	4.55933
3017.57	3.98705
3018.86	3.03921
3020.15	2.09504
3021.44	1.56014
3022.73	0.782151
3024.02	0.425865
3025.31	0.709956
3026.6	0.430177
3027.89	0.347661
3029.18	0.365409
3030.46	0.884702
3031.75	1.12629
3033.04	1.0784
3034.33	0.793646
3035.62	0.918087
3036.9	0.931399
3038.19	0.671443
3039.48	0.677723
3040.76	1.0895
3042.05	1.3619
3043.34	1.96281
3044.62	2.71793
3045.91	3.40972
3047.19	3.74124
3048.48	4.02177
3049.77	3.93413
3051.05	4.02107
3052.34	4.23624
3053.62	4.34632
3054.9	4.84306
3056.19	4.22464
3057.47	3.85766
3058.76	3.86054
3060.04	3.75314
3061.32	4.00477
3062.61	4.02142
3063.89	3.73916
3065.17	3.61963
3066.45	3.91253
3067.74	3.82165
3069.02	3.69365
3070.3	3.48617
3071.58	3.22162
3072.86	3.17867
3074.14	3.5465
3075.42	3.6634
3076.7	3.46955
3077.99	3.68419
3079.26	3.71398
3080.54	3.46344
3081.82	3.11972
3083.1	2.62636
3084.38	2.4975
3085.66	2.02606
3086.94	1.77947
3088.22	1.74118
3089.5	1.61824
3090.78	1.69799
3092.05	1.49042
3093.33	0.961435
3094.61	0.609809
3095.89	0.707054
3097.16	0.378834
3098.44	0.260668
3099.72	0.00478028
3100.99	-0.134612
3102.27	0.123572
3103.54	0.360512
3104.82	-0.121009
3106.1	0.126524
3107.37	0.120231
3108.65	0.351897
3109.92	0.285267
3111.2	0.471098
3112.47	0.290487
3113.74	0.277314
3115.02	0.405738
3116.29	0.972668
3117.56	1.92268
3118.84	2.16204
3120.11	2.08578
3121.38	2.67781
3122.66	3.25182
3123.93	3.65056
3125.2	4.19609
3126.47	4.43482
3127.74	5.02966
3129.01	6.10735
3130.29	6.89559
3131.56	7.62335
3132.83	8.41483
3134.1	9.35985
3135.37	10.724
3136.64	11.8081
3137.91	13.3496
3139.18	14.0649
3140.45	14.7144
3141.72	15.514
3142.99	16.2054
3144.26	17.0949
3145.52	17.9316
3146.79	18.728
3148.06	19.6773
3149.33	20.4676
