#Acq. time (s)=	45
#Accumulations=	2
#Range (cm-¹)=	200...3150
#Windows=	2
#Auto scanning=	Off
#Autofocus=	Off
#Macrospot=	Off
#AutoExposure=	Off
#Spike filter=	Multiple accum.
#Delay time (s)=	0
#Binning=	1
#Readout mode=	Signal
#DeNoise=	Off
#ICS correction=	On
#Dark correction=	Off
#Inst. Process=	Off
#Detector Gain=	Best Dynamic Range
#Detector ADC=	20 kHz       
#Detector temperature (°C)=	-69.85
#Instrument=	LabRAM HR Evol
#Detector=	Synapse
#Objective=	x100
#Grating=	600 gr/mm
#ND Filter=	100%
#Laser (nm)=	532 
#Hole=	100.021
#Range=	Auto
#Laser Pol.=	No
#Raman. Pol.=	No
#Laser Pol. (°)=	-0.0007625
#Raman Pol. (°)=	89.9995
#Collection=	Microscope
#StageXY=	Marzhauser
#StageZ=	Marzhauser
#X (µm)=	-5932.1
#Y (µm)=	2852.3
#Z (µm)=	-223.8
#Full time(mm:ss)=	3:18
#Project=	
#Sample=	
#Site=	
#Title=	Thy_20_09_48_2x_45s_532 nm_x100_100%_600 gr_mm
#Remark=	
#Date=	29.06.2022 14:00
#Acquired=	29.06.2022 14:00:17
#Base:Fit=	10.08.2022 09:52:02
#Base:Fit=	10.08.2022 09:52:12
#Base:Sub=	10.08.2022 09:54:21
#Filter:Polynom=	16.08.2022 10:24:04
#AxisType[0]=Intens
#AxisUnit[0]=Cnt
#AxisType[1]=Spectr
#AxisUnit[1]=1/cm
200.523	26.7196
202.339	25.0391
204.154	21.9692
205.967	19.8837
207.781	17.442
209.596	15.6289
211.409	13.9336
213.222	12.3732
215.034	11.6826
216.848	9.20889
218.659	8.29427
220.47	7.18566
222.281	6.66107
224.091	5.816
225.903	4.0517
227.713	3.82704
229.522	3.99268
231.331	3.74291
233.14	3.81363
234.948	3.3404
236.756	3.2919
238.566	2.83791
240.373	3.01827
242.18	2.53969
243.986	2.39881
245.792	2.20338
247.598	1.68059
249.403	1.59387
251.208	1.8599
253.013	1.42073
254.818	1.37601
256.624	2.17551
258.427	1.606
260.231	0.841952
262.034	1.36212
263.836	1.64805
265.638	2.61782
267.44	2.85616
269.242	2.47835
271.043	2.52577
272.844	2.92346
274.645	2.12567
276.445	1.90069
278.245	1.55868
280.044	2.2259
281.843	2.77646
283.642	2.4075
285.44	2.57896
287.238	3.77717
289.036	3.63991
290.833	3.72294
292.63	4.2871
294.425	5.43153
296.221	5.05305
298.017	5.94793
299.813	6.46437
301.608	5.69276
303.403	6.30457
305.198	6.35748
306.992	5.73994
308.786	7.17023
310.579	7.16608
312.371	8.09707
314.163	8.76127
315.956	8.48559
317.748	10.1332
319.54	10.8809
321.331	10.8306
323.122	10.8416
324.911	11.8235
326.701	11.747
328.491	11.2497
330.281	11.9038
332.071	12.1518
333.857	11.9911
335.646	12.4161
337.434	12.2806
339.222	12.5984
341.008	12.9583
342.795	12.7028
344.582	12.5311
346.369	13.6392
348.153	13.7321
349.939	14.9178
351.724	15.4327
353.51	14.7602
355.292	14.6404
357.077	14.4725
358.861	13.8388
360.643	14.0668
362.426	13.6055
364.21	12.7376
365.99	12.4053
367.773	12.0141
369.555	13.0754
371.335	12.7474
373.116	12.6821
374.897	12.6871
376.676	12.4922
378.456	11.8227
380.236	12.1564
382.014	11.6529
383.793	11.4633
385.57	10.3957
387.349	10.1206
389.127	8.80867
390.903	8.33887
392.681	7.98361
394.456	6.87517
396.233	7.53889
398.007	8.34812
399.784	7.79552
401.56	8.1125
403.333	8.16825
405.108	7.37891
406.881	7.99932
408.656	7.12417
410.428	6.38547
412.202	5.89024
413.973	6.15192
415.746	4.74104
417.517	5.11513
419.29	5.79528
421.06	6.27376
422.831	6.09941
424.601	6.28531
426.37	5.68329
428.141	6.19582
429.909	6.10489
431.679	6.06204
433.447	6.29387
435.216	6.724
436.983	6.59697
438.75	6.57732
440.519	6.41332
442.285	6.2994
444.052	6.75952
445.818	7.16458
447.583	6.95538
449.349	7.73142
451.114	6.8452
452.878	6.35442
454.643	7.0116
456.407	7.5588
458.169	8.87267
459.934	8.42778
461.696	8.99052
463.458	9.66066
465.222	10.2756
466.983	11.516
468.744	11.2936
470.507	11.8727
472.267	12.6795
474.027	12.6881
475.787	12.6536
477.548	12.7716
479.307	14.3448
481.065	15.0712
482.823	16.1187
484.583	17.6089
486.341	17.4434
488.098	16.8549
489.855	17.3988
491.612	17.3335
493.37	17.2981
495.126	16.9789
496.881	17.3709
498.636	17.4275
500.391	17.6077
502.148	18.1294
503.902	19.4039
505.656	19.284
507.409	19.7922
509.162	20.0069
510.915	19.9669
512.668	19.544
514.42	20.2357
516.174	20.8576
517.925	20.2508
519.676	20.7586
521.427	20.1179
523.178	20.3606
524.928	21.3945
526.678	21.7105
528.427	21.8282
530.176	21.3982
531.925	21.4294
533.673	20.9531
535.422	20.5063
537.169	20.2417
538.917	18.8999
540.664	19.2864
542.411	19.7348
544.157	19.0583
545.903	19.6314
547.649	18.7649
549.395	18.9526
551.14	18.9096
552.884	18.7185
554.629	18.9693
556.373	17.5796
558.117	18.3652
559.86	18.0748
561.603	16.9837
563.346	16.0148
565.089	15.7193
566.831	15.3545
568.573	15.0094
570.314	14.5426
572.053	12.8623
573.794	12.0489
575.534	11.8225
577.274	11.28
579.014	10.6952
580.754	10.9458
582.493	9.87407
584.23	10.0151
585.968	9.70446
587.706	10.3607
589.444	9.91959
591.181	9.82783
592.919	8.46292
594.653	8.79089
596.39	8.5131
598.126	7.57632
599.862	6.61088
601.595	6.68285
603.33	5.91614
605.065	4.8169
606.8	4.50584
608.532	4.25098
610.266	4.73746
611.999	4.47918
613.732	4.05109
615.463	3.33294
617.196	2.3793
618.928	2.72747
620.66	2.28294
622.389	2.43506
624.12	3.04722
625.851	3.93058
627.58	5.28829
629.31	5.06985
631.04	5.6419
632.767	6.14329
634.497	5.95343
636.223	6.89007
637.952	7.55368
639.68	8.88074
641.406	9.64002
643.134	8.92748
644.861	10.018
646.586	10.3633
648.312	10.9036
650.037	12.2404
651.762	13.6111
653.486	15.3494
655.211	17.8856
656.936	18.3396
658.659	18.5713
660.383	20.0141
662.105	20.634
663.829	21.2169
665.55	22.8053
667.273	23.4767
668.994	24.6952
670.716	25.6862
672.436	27.1215
674.158	28.3397
675.877	28.4116
677.598	29.2381
679.317	29.7699
681.035	31.418
682.755	31.9066
684.473	31.6102
686.192	32.2996
687.909	32.862
689.628	33.8764
691.344	34.7193
693.06	35.5456
694.778	36.0232
696.493	37.2665
698.211	38.6113
699.925	39.2816
701.64	39.2833
703.356	39.5661
705.07	40.1125
706.783	40.9943
708.498	40.8406
710.211	41.2733
711.924	40.7601
713.638	39.7668
715.35	40.3147
717.061	41.076
718.774	41.4464
720.485	42.4564
722.196	43.1134
723.906	42.9817
725.618	43.2876
727.328	43.27
729.037	44.4714
730.746	45.7647
732.456	47.0867
734.165	48.0935
735.873	49.767
737.58	50.6921
739.289	50.8062
740.997	50.566
742.703	50.4695
744.41	51.6906
746.116	51.8709
747.823	53.037
749.529	54.6854
751.234	56.2318
752.938	57.1056
754.643	59.0328
756.347	60.781
758.051	62.694
759.756	63.6258
761.459	64.0996
763.162	64.9544
764.865	66.2521
766.567	67.7868
768.269	68.038
769.97	69.258
771.671	70.5053
773.372	71.9365
775.073	73.3497
776.773	72.8044
778.473	72.7082
780.174	73.4778
781.874	74.1219
783.573	73.8626
785.271	73.5409
786.97	73.9815
788.668	74.3346
790.365	73.6127
792.063	73.573
793.76	73.171
795.456	73.9823
797.153	74.1111
798.847	74.538
800.543	74.9186
802.238	74.2657
803.933	74.9021
805.628	74.7996
807.322	74.0315
809.017	74.1413
810.71	74.4061
812.404	75.3413
814.097	75.189
815.79	75.2474
817.483	75.4237
819.173	74.9813
820.865	75.0352
822.556	74.1174
824.248	73.5732
825.939	73.2787
827.629	72.9539
829.318	72.0142
831.008	70.4352
832.697	70.8062
834.387	70.38
836.076	70.0915
837.765	69.6241
839.451	68.8368
841.139	67.3446
842.827	65.2618
844.514	64.2785
846.2	62.8184
847.886	61.3314
849.573	60.7998
851.259	58.9276
852.943	57.9768
854.629	56.8594
856.314	55.0645
857.997	53.7896
859.682	52.1904
861.366	51.3297
863.05	51.2457
864.732	51.5401
866.415	50.8948
868.098	49.7253
869.779	49.0086
871.461	48.3935
873.141	47.306
874.823	45.3338
876.505	44.8533
878.184	45.3951
879.865	44.8735
881.545	45.0691
883.223	45.2166
884.903	45.5955
886.581	45.6594
888.26	45.8556
889.937	45.3571
891.616	46.3244
893.294	47.0149
894.97	46.7969
896.648	47.0255
898.323	47.0388
900	47.8889
901.675	48.6798
903.351	48.8671
905.026	49.6278
906.701	49.7379
908.375	49.1284
910.05	49.0193
911.723	49.7651
913.398	49.5899
915.07	50.1955
916.742	50.7388
918.415	50.713
920.087	51.04
921.76	50.0741
923.43	49.3174
925.103	48.9218
926.773	49.5699
928.443	49.869
930.114	49.0278
931.783	48.2062
933.454	47.7549
935.123	46.6089
936.791	47.3159
938.461	46.827
940.128	46.0221
941.796	45.2528
943.464	44.9148
945.131	44.3694
946.797	43.1494
948.465	41.6822
950.131	40.8376
951.797	40.3048
953.462	40.226
955.128	39.4777
956.793	37.4986
958.457	36.1623
960.121	35.9568
961.786	35.6376
963.45	34.4431
965.113	34.3563
966.775	33.7384
968.44	33.1959
970.102	32.0172
971.763	32.0107
973.425	32.3615
975.086	32.3881
976.748	31.5217
978.409	31.175
980.069	32.0342
981.729	32.6864
983.388	32.0659
985.048	32.5288
986.708	30.6902
988.367	30.5975
990.025	29.3226
991.683	28.8062
993.341	29.0753
994.998	28.6484
996.655	27.3782
998.312	28.2767
999.969	27.2356
1001.62	27.4573
1003.28	27.1812
1004.94	26.362
1006.59	26.4938
1008.25	26.5179
1009.9	24.9756
1011.56	24.2698
1013.21	23.7015
1014.86	23.2369
1016.52	23.9172
1018.17	23.8684
1019.82	23.286
1021.48	22.4367
1023.13	21.6539
1024.78	21.4074
1026.43	21.5294
1028.08	20.7909
1029.73	20.8918
1031.38	20.474
1033.03	21.2843
1034.68	20.2688
1036.33	19.0763
1037.98	18.0442
1039.63	17.1268
1041.28	17.6726
1042.93	18.7089
1044.57	18.9797
1046.22	19.658
1047.87	20.5008
1049.52	20.6923
1051.16	19.7584
1052.81	19.6012
1054.45	20.3873
1056.1	19.7191
1057.75	19.3595
1059.39	18.5089
1061.04	18.5529
1062.68	19.0325
1064.32	18.2224
1065.97	18.4289
1067.61	18.3424
1069.25	16.8172
1070.9	17.1288
1072.54	16.712
1074.18	16.922
1075.82	16.5877
1077.47	15.9218
1079.11	16.1335
1080.75	17.414
1082.39	17.5538
1084.03	18.3369
1085.67	17.7891
1087.31	17.13
1088.95	17.1584
1090.59	17.129
1092.22	16.6416
1093.86	18.6324
1095.5	19.7156
1097.14	19.5669
1098.78	18.7537
1100.41	18.5706
1102.05	18.7873
1103.69	19.1358
1105.32	18.7234
1106.96	19.147
1108.59	18.5668
1110.23	17.8829
1111.86	16.8753
1113.5	16.2608
1115.13	15.3701
1116.77	14.3706
1118.4	13.8673
1120.03	13.4857
1121.67	13.7138
1123.3	14.0199
1124.93	13.8174
1126.56	13.013
1128.19	12.2085
1129.83	11.1205
1131.46	10.0668
1133.09	9.76429
1134.72	10.1539
1136.35	9.77331
1137.98	8.1095
1139.61	7.95604
1141.24	7.13839
1142.86	7.73441
1144.49	8.01587
1146.12	7.58658
1147.75	7.41205
1149.38	6.8164
1151	6.7924
1152.63	7.03656
1154.26	6.82761
1155.88	6.30655
1157.51	6.54166
1159.14	7.47231
1160.76	9.04836
1162.39	9.05539
1164.01	8.52762
1165.63	7.82566
1167.26	7.87055
1168.88	7.57956
1170.51	8.70149
1172.13	9.33341
1173.75	10.021
1175.38	10.8741
1177	10.8192
1178.62	10.5384
1180.24	10.3952
1181.86	11.3438
1183.48	10.4036
1185.1	10.6114
1186.72	10.923
1188.34	11.417
1189.96	11.1394
1191.58	11.0064
1193.2	10.9875
1194.82	11.2709
1196.44	11.2288
1198.06	12.5837
1199.68	13.2676
1201.29	14.2049
1202.91	15.2099
1204.53	16.1563
1206.14	15.9892
1207.76	16.8607
1209.38	17.9537
1210.99	19.7706
1212.61	20.8667
1214.22	22.1918
1215.84	22.4501
1217.45	23.3028
1219.07	24.2124
1220.68	25.5163
1222.29	26.1441
1223.91	27.4819
1225.52	28.441
1227.13	29.005
1228.74	30.3236
1230.36	31.2231
1231.97	31.2912
1233.58	31.6575
1235.19	32.7667
1236.8	34.0108
1238.41	35.2706
1240.02	36.0522
1241.63	36.8167
1243.24	36.4352
1244.85	37.1075
1246.46	38.4377
1248.07	39.2411
1249.67	39.0802
1251.28	39.7496
1252.89	40.1909
1254.5	40.4306
1256.1	41.4706
1257.71	42.0618
1259.32	42.5741
1260.92	42.7076
1262.53	43.6458
1264.13	43.9372
1265.74	45.4125
1267.34	45.7599
1268.95	45.4975
1270.55	45.808
1272.15	46.2422
1273.76	46.6375
1275.36	47.1877
1276.97	48.364
1278.57	49.5988
1280.17	50.1139
1281.77	50.6345
1283.37	51.5892
1284.97	52.1227
1286.58	52.7331
1288.18	54.5311
1289.78	55.8808
1291.38	56.587
1292.98	57.4049
1294.58	58.1673
1296.18	58.8725
1297.78	60.9242
1299.37	61.7485
1300.97	62.2116
1302.57	63.3345
1304.17	64.7692
1305.77	65.8678
1307.36	67.0983
1308.96	68.3016
1310.55	68.7957
1312.15	69.9176
1313.75	70.2602
1315.34	72.2611
1316.94	73.0533
1318.53	73.1806
1320.13	74.2385
1321.72	75.6222
1323.32	75.183
1324.91	74.9046
1326.5	74.744
1328.1	73.8362
1329.69	73.26
1331.28	73.6718
1332.87	73.2921
1334.47	73.0965
1336.06	72.9882
1337.65	72.0293
1339.24	70.4345
1340.83	69.0773
1342.42	68.2419
1344.01	66.3525
1345.6	66.0737
1347.19	64.8349
1348.78	64.0858
1350.37	63.7651
1351.96	63.3379
1353.54	62.5382
1355.13	61.5978
1356.72	60.3945
1358.31	59.0077
1359.89	58.0115
1361.48	57.1901
1363.07	56.3277
1364.65	54.6099
1366.24	53.5717
1367.82	53.4188
1369.41	52.47
1370.99	51.4669
1372.58	50.5237
1374.16	49.4051
1375.75	49.4147
1377.33	49.6544
1378.91	48.8386
1380.5	47.899
1382.08	47.4556
1383.66	46.9544
1385.25	46.082
1386.83	44.8422
1388.41	44.2914
1389.99	43.7839
1391.57	43.8068
1393.15	42.5953
1394.73	42.8285
1396.31	42.0577
1397.89	40.9834
1399.47	40.6138
1401.05	39.6242
1402.63	38.3496
1404.21	38.0584
1405.78	38.122
1407.36	37.8808
1408.94	37.4437
1410.52	38.0093
1412.1	38.289
1413.67	38.9687
1415.25	39.4965
1416.82	40.2158
1418.4	41.9645
1419.98	44.1871
1421.55	46.1893
1423.13	47.696
1424.7	50.5378
1426.28	52.1074
1427.85	55.2236
1429.42	57.013
1431	58.3245
1432.57	60.5204
1434.14	61.3808
1435.71	63.2934
1437.29	65.2679
1438.86	66.7631
1440.43	67.8318
1442	68.3761
1443.57	69.4538
1445.14	71.4037
1446.71	72.3264
1448.28	72.5734
1449.85	73.1363
1451.42	73.208
1452.99	73.4134
1454.56	73.2701
1456.13	72.5225
1457.7	70.603
1459.26	68.7147
1460.83	67.3951
1462.4	65.9782
1463.97	63.5853
1465.54	61.7436
1467.1	61.1119
1468.67	59.2894
1470.23	57.167
1471.8	54.1668
1473.36	51.6307
1474.93	49.6222
1476.49	46.765
1478.06	44.4463
1479.62	41.7971
1481.19	38.6934
1482.75	36.1517
1484.31	33.6247
1485.88	30.9712
1487.44	29.334
1489	28.0459
1490.56	26.1959
1492.13	24.5868
1493.69	23.5358
1495.25	22.9596
1496.81	22.1546
1498.37	20.3243
1499.93	19.5491
1501.49	19.215
1503.05	19.4956
1504.61	19.2304
1506.17	18.8094
1507.73	17.7079
1509.28	18.1361
1510.84	18.7135
1512.4	18.5589
1513.96	19.3201
1515.52	19.6425
1517.07	19.2648
1518.63	20.24
1520.19	20.9566
1521.74	21.8465
1523.3	22.3097
1524.85	22.8121
1526.41	23.4928
1527.96	23.6248
1529.52	23.9627
1531.07	24.8602
1532.63	25.6809
1534.18	26.7373
1535.73	27.6232
1537.29	29.3145
1538.84	30.7194
1540.39	32.179
1541.94	33.9153
1543.5	36.2355
1545.05	38.4075
1546.6	39.6359
1548.15	40.8804
1549.7	42.1231
1551.25	43.8664
1552.8	46.5884
1554.35	48.2366
1555.9	50.5511
1557.45	52.1953
1559	54.317
1560.55	56.9114
1562.1	59.364
1563.65	60.836
1565.19	63.3687
1566.74	64.7493
1568.29	66.173
1569.83	67.9497
1571.38	69.4772
1572.93	70.5766
1574.47	71.5124
1576.02	72.3812
1577.56	73.8791
1579.11	74.6819
1580.66	75.0838
1582.2	75.4266
1583.74	75.8824
1585.29	76.7514
1586.83	77.9759
1588.38	77.8953
1589.92	78.0053
1591.46	77.1287
1593.01	76.7188
1594.55	76.2541
1596.09	75.831
1597.63	74.9102
1599.17	73.788
1600.71	72.9899
1602.25	71.9727
1603.79	70.8377
1605.34	69.4722
1606.88	67.9878
1608.41	66.6232
1609.95	65.5572
1611.49	64.8056
1613.03	63.4464
1614.57	63.0419
1616.11	62.6476
1617.65	61.6287
1619.18	61.6392
1620.72	60.9108
1622.26	61.0897
1623.79	60.9289
1625.33	61.1441
1626.87	61.1528
1628.4	60.7299
1629.94	61.4395
1631.48	61.6625
1633.01	61.9448
1634.55	61.9947
1636.08	62.2382
1637.61	62.0887
1639.15	62.4828
1640.68	61.7692
1642.21	62.4686
1643.75	62.6445
1645.28	62.7471
1646.81	62.3989
1648.34	61.7908
1649.88	61.3612
1651.41	61.9097
1652.94	61.6416
1654.47	62.3367
1656	61.6554
1657.53	61.3573
1659.06	61.3794
1660.59	61.1821
1662.12	59.9774
1663.65	58.8496
1665.18	57.2308
1666.71	55.3963
1668.24	54.4693
1669.76	53.481
1671.29	52.1224
1672.82	50.3615
1674.35	49.3258
1675.87	47.3826
1677.4	45.9009
1678.93	43.7999
1680.45	42.1151
1681.98	40.0622
1683.5	38.6114
1685.03	37.099
1686.55	36.014
1688.08	33.0311
1689.6	31.7344
1691.13	30.5308
1692.65	28.5613
1694.17	26.0214
1695.7	24.959
1697.22	23.449
1698.74	22.5316
1700.27	20.7718
1701.79	19.2969
1703.31	17.2005
1704.83	16.2916
1706.35	16.1832
1707.87	15.6161
1709.39	14.5555
1710.91	13.9734
1712.43	13.4345
1713.95	13.5103
1715.47	13.3957
1716.99	13.319
1718.51	13.0971
1720.03	12.959
1721.55	11.9476
1723.07	11.1155
1724.58	11.5378
1726.1	12.2251
1727.62	12.0181
1729.13	11.9069
1730.65	11.9581
1732.17	11.682
1733.68	11.8457
1735.2	12.188
1736.72	11.5555
1738.23	10.9817
1739.74	10.7696
1741.26	10.4847
1742.77	10.653
1744.29	10.7637
1745.8	9.92387
1747.32	9.31625
1748.83	9.02546
1750.34	8.78172
1751.85	8.10495
1753.37	8.06785
1754.88	7.76804
1756.39	7.46424
1757.9	6.72077
1759.41	5.54749
1760.92	4.60651
1762.44	4.12789
1763.95	3.02491
1765.46	3.24512
1766.96	2.44174
1768.47	1.95335
1769.98	1.39327
1771.49	1.19989
1773	1.12102
1774.51	1.15152
1776.02	1.18212
1777.53	0.766584
1779.03	0.0156047
1780.54	0.331202
1782.05	0.377295
1783.55	0.837534
1785.06	0.427244
1786.57	0.976178
1788.07	1.50242
1789.58	1.2847
1791.08	1.19851
1792.59	1.89695
1794.09	1.90438
1795.6	2.42948
1797.1	2.37132
1798.61	3.30146
1800.11	3.99782
1801.61	4.31561
1803.12	4.25698
1804.62	5.13097
1806.12	5.18167
1807.62	5.463
1809.12	5.47742
1810.63	5.35852
1812.13	4.73536
1813.63	5.1096
1815.13	5.35896
1816.63	5.39268
1818.13	5.51664
1819.63	4.93654
1821.13	4.75725
1822.63	4.88964
1824.13	5.28944
1825.63	5.62431
1827.13	5.78248
1828.62	6.01373
1830.12	6.30167
1831.62	5.77866
1833.12	5.67508
1834.61	5.86331
1836.11	6.31977
1837.61	5.98079
1839.1	5.53742
1840.6	6.0581
1842.09	6.65943
1843.59	6.43799
1845.09	6.24529
1846.58	6.08559
1848.08	6.23726
1849.57	6.13279
1851.06	5.86252
1852.56	5.83393
1854.05	5.76269
1855.54	6.83712
1857.04	6.949
1858.53	6.31798
1860.02	5.62035
1861.51	5.70208
1863.01	4.99439
1864.5	4.61216
1865.99	4.40496
1867.48	4.54812
1868.97	3.97822
1870.46	3.99442
1871.95	4.07082
1873.44	3.99388
1874.93	4.00131
1876.42	4.0762
1877.91	3.74611
1879.4	4.02403
1880.89	3.4496
1882.37	3.49362
1882.46	3.5289
1883.95	3.8458
1885.45	4.24436
1886.94	4.35305
1888.43	3.95967
1889.93	3.46217
1891.42	3.07059
1892.91	3.23669
1894.41	3.56903
1895.9	4.84938
1897.39	5.29242
1898.88	5.59705
1900.37	5.76458
1901.86	5.86558
1903.36	5.92582
1904.85	6.27629
1906.34	6.51251
1907.83	6.32409
1909.32	6.30121
1910.81	6.96796
1912.29	7.97208
1913.78	8.44328
1915.27	8.25996
1916.76	8.19396
1918.25	8.38875
1919.74	8.91224
1921.23	8.54616
1922.71	9.04421
1924.2	8.71592
1925.69	8.66384
1927.17	8.1019
1928.66	7.66114
1930.15	6.87654
1931.63	5.95742
1933.12	5.14979
1934.6	4.64551
1936.09	4.01614
1937.57	3.96682
1939.06	4.27399
1940.54	4.71911
1942.02	4.16997
1943.51	4.24046
1944.99	3.89071
1946.47	3.65745
1947.96	3.17392
1949.44	2.73469
1950.92	2.63843
1952.4	2.54905
1953.88	2.57843
1955.37	2.76182
1956.85	2.61962
1958.33	2.55008
1959.81	1.61647
1961.29	1.41847
1962.77	1.7689
1964.25	2.19383
1965.73	2.22165
1967.21	2.44377
1968.69	2.26778
1970.16	2.78779
1971.64	2.52991
1973.12	2.12655
1974.6	2.0868
1976.08	1.99476
1977.55	2.05299
1979.03	2.3651
1980.51	1.85504
1981.98	2.51093
1983.46	2.73693
1984.94	3.24656
1986.41	3.23668
1987.89	3.40926
1989.36	3.54556
1990.84	3.28747
1992.31	3.14852
1993.79	3.32221
1995.26	2.49659
1996.73	3.65369
1998.21	3.14831
1999.68	3.37865
2001.15	2.77259
2002.63	2.38422
2004.1	2.66243
2005.57	2.32245
2007.04	2.06416
2008.51	2.50555
2009.99	2.45899
2011.46	2.83405
2012.93	3.03067
2014.4	2.78323
2015.87	2.28085
2017.34	2.93473
2018.81	2.88559
2020.28	3.11388
2021.75	3.15838
2023.21	4.2593
2024.68	4.42833
2026.15	4.56017
2027.62	4.59379
2029.09	4.13325
2030.56	4.50276
2032.02	5.15536
2033.49	5.08996
2034.96	5.82512
2036.42	6.11239
2037.89	5.67159
2039.36	5.61048
2040.82	5.31924
2042.29	5.30337
2043.75	5.85215
2045.22	5.1881
2046.68	4.77515
2048.14	5.02691
2049.61	5.17213
2051.07	5.44424
2052.54	6.17715
2054	6.13519
2055.46	6.84052
2056.93	6.56919
2058.39	7.29877
2059.85	7.36112
2061.31	7.28965
2062.77	6.88145
2064.23	6.77726
2065.7	7.5001
2067.16	7.92336
2068.62	8.42457
2070.08	8.95218
2071.54	8.48983
2073	8.62501
2074.46	9.06718
2075.92	9.58209
2077.38	10.6138
2078.83	10.1791
2080.29	10.3558
2081.75	10.7315
2083.21	11.111
2084.67	11.3869
2086.12	11.4787
2087.58	11.853
2089.04	11.7319
2090.49	12.0034
2091.95	12.1273
2093.41	12.3072
2094.86	12.7153
2096.32	13.5078
2097.77	13.3346
2099.23	13.5766
2100.68	13.5754
2102.14	14.3583
2103.59	15.0006
2105.05	15.1928
2106.5	14.9738
2107.95	14.7681
2109.41	14.4039
2110.86	14.1249
2112.31	14.5662
2113.76	14.3765
2115.21	14.7278
2116.67	14.796
2118.12	14.7416
2119.57	15.4349
2121.02	15.8016
2122.47	16.3112
2123.92	16.6084
2125.37	16.7267
2126.82	16.4925
2128.27	17.1501
2129.72	17.2696
2131.17	17.8927
2132.62	18.2087
2134.07	18.5242
2135.51	19.0785
2136.96	19.3374
2138.41	19.4814
2139.86	19.9767
2141.31	20.7364
2142.75	20.946
2144.2	21.937
2145.65	22.5986
2147.09	23.2454
2148.54	23.6829
2149.98	23.8897
2151.43	23.5828
2152.87	24.5456
2154.32	24.7499
2155.76	24.9048
2157.21	24.9458
2158.65	25.6361
2160.1	26.1498
2161.54	26.4867
2162.98	26.6296
2164.43	26.6783
2165.87	26.9568
2167.31	27.4643
2168.75	27.9295
2170.2	27.4286
2171.64	27.643
2173.08	27.3554
2174.52	27.6832
2175.96	27.4157
2177.4	27.0873
2178.84	26.1381
2180.28	26.2643
2181.72	26.2295
2183.16	25.8477
2184.6	25.3438
2186.04	25.0088
2187.48	24.5194
2188.92	24.0039
2190.36	23.3072
2191.79	23.0657
2193.23	22.4913
2194.67	22.2002
2196.11	21.6125
2197.54	21.481
2198.98	20.8367
2200.42	20.2356
2201.85	19.2888
2203.29	18.4676
2204.72	17.7807
2206.16	17.3307
2207.59	17.0388
2209.03	16.3019
2210.46	16.2686
2211.9	16.3977
2213.33	15.8273
2214.77	15.4063
2216.2	15.4436
2217.63	15.2334
2219.07	14.729
2220.5	14.215
2221.93	13.6597
2223.36	13.3837
2224.8	13.151
2226.23	12.3419
2227.66	11.1457
2229.09	10.871
2230.52	10.5629
2231.95	10.461
2233.39	9.86886
2234.81	9.72298
2236.25	9.59615
2237.67	10.3517
2239.1	9.79808
2240.53	9.27606
2241.96	8.4299
2243.39	8.68979
2244.82	8.30913
2246.25	8.61913
2247.68	8.008
2249.1	7.33769
2250.53	6.89869
2251.96	7.49133
2253.38	7.23953
2254.81	6.66244
2256.24	6.84713
2257.66	7.38415
2259.09	6.79444
2260.51	6.37366
2261.94	6.09334
2263.36	6.35776
2264.79	6.03944
2266.21	6.13207
2267.64	6.24519
2269.06	6.50018
2270.49	5.65276
2271.91	5.5728
2273.33	5.7957
2274.76	5.56372
2276.18	5.81652
2277.6	5.35776
2279.02	4.99151
2280.44	5.05035
2281.87	5.18606
2283.29	5.56267
2284.71	6.203
2286.13	6.16656
2287.55	6.34742
2288.97	5.86488
2290.39	4.36891
2291.81	3.78629
2293.23	3.48483
2294.65	3.25115
2296.07	3.04729
2297.49	3.04382
2298.91	3.21083
2300.33	3.87174
2301.74	4.43456
2303.16	5.07941
2304.58	4.91723
2306	5.00568
2307.41	5.0371
2308.83	5.03167
2310.25	4.7494
2311.66	4.98391
2313.08	5.22751
2314.5	5.85278
2315.91	5.35917
2317.33	5.11353
2318.74	4.66661
2320.16	5.20334
2321.57	6.06001
2322.98	6.59388
2324.4	6.42038
2325.81	6.33812
2327.23	6.84392
2328.64	6.68439
2330.05	6.44603
2331.46	6.42748
2332.88	6.87022
2334.29	6.75684
2335.7	6.34528
2337.11	5.83279
2338.52	6.02914
2339.94	5.55589
2341.35	4.81614
2342.76	4.9529
2344.17	4.96554
2345.58	4.99199
2346.99	5.31564
2348.4	4.95783
2349.81	5.33746
2351.22	5.26613
2352.62	4.87646
2354.03	4.28235
2355.44	3.94338
2356.85	2.90181
2358.26	2.58252
2359.67	1.83124
2361.07	1.60337
2362.48	2.37469
2363.89	2.51748
2365.29	2.7899
2366.7	3.1333
2368.11	2.85233
2369.51	2.94356
2370.92	2.51445
2372.32	2.67876
2373.73	2.38958
2375.13	2.09124
2376.54	1.79194
2377.94	2.05169
2379.35	1.40156
2380.75	1.73118
2382.15	1.19379
2383.56	0.857611
2384.96	0.502605
2386.36	0.0304535
2387.76	0.266726
2389.17	0.604264
2390.57	0.654552
2391.97	0.24264
2393.37	-0.00146909
2394.77	-0.0681752
2396.17	0.0306246
2397.58	-0.182154
2398.98	-0.670035
2400.38	-0.878733
2401.78	-1.4901
2403.18	-1.6463
2404.58	-1.92726
2405.97	-1.90901
2407.37	-1.17549
2408.77	-0.643648
2410.17	-0.262951
2411.57	-0.199107
2412.97	0.491299
2414.37	0.653679
2415.76	0.544205
2417.16	0.34842
2418.56	0.563553
2419.95	0.976558
2421.35	0.89481
2422.75	1.37922
2424.14	1.61943
2425.54	1.70955
2426.93	1.14345
2428.33	0.988694
2429.72	1.32257
2431.12	1.48176
2432.51	1.10016
2433.91	1.04295
2435.3	1.67487
2436.7	2.26614
2438.09	2.00105
2439.48	3.09697
2440.88	2.93661
2442.27	3.37278
2443.66	3.56085
2445.05	3.79567
2446.44	3.63058
2447.84	3.76572
2449.23	4.17354
2450.62	4.19431
2452.01	3.96468
2453.4	4.26454
2454.79	4.29618
2456.18	4.5558
2457.57	4.50862
2458.96	4.49069
2460.35	4.1339
2461.74	4.18402
2463.13	4.99542
2464.52	5.19524
2465.91	5.07445
2467.29	5.55239
2468.68	5.30135
2470.07	5.72883
2471.46	6.07289
2472.85	6.26564
2474.23	6.50471
2475.62	6.63135
2477.01	6.66473
2478.39	6.11023
2479.78	6.63402
2481.16	6.71764
2482.55	6.71095
2483.93	6.51016
2485.32	6.78753
2486.7	6.83162
2488.09	6.42541
2489.47	5.61596
2490.86	5.03047
2492.24	4.28961
2493.62	3.67807
2495.01	3.14055
2496.39	3.20123
2497.77	2.77113
2499.15	2.51042
2500.54	2.27418
2501.92	2.44107
2503.3	2.83074
2504.68	3.27914
2506.06	3.2195
2507.45	2.84239
2508.83	3.15811
2510.21	2.57701
2511.59	2.3344
2512.97	1.97918
2514.35	1.99077
2515.73	2.29717
2517.11	2.65611
2518.48	2.68365
2519.86	1.98338
2521.24	1.90701
2522.62	1.87058
2524	2.00702
2525.38	2.00948
2526.75	1.87934
2528.13	2.41487
2529.51	2.37909
2530.89	3.07353
2532.26	3.66439
2533.64	3.55174
2535.02	3.53077
2536.39	4.066
2537.77	3.93387
2539.14	3.87115
2540.52	3.51565
2541.89	3.15877
2543.27	3.5678
2544.64	3.43695
2546.01	3.83044
2547.39	4.48828
2548.76	5.25058
2550.14	4.68858
2551.51	4.35359
2552.88	4.43563
2554.25	4.11436
2555.63	3.41322
2557	3.5957
2558.37	3.69453
2559.74	3.67698
2561.11	3.56264
2562.49	4.22449
2563.86	4.26918
2565.23	4.11494
2566.6	4.06214
2567.97	4.34678
2569.34	5.07141
2570.71	5.24243
2572.08	5.16283
2573.45	5.61753
2574.82	5.55327
2576.18	5.44359
2577.55	5.82385
2578.92	5.65245
2580.29	5.68627
2581.66	5.79025
2583.02	5.84797
2584.39	6.13806
2585.76	5.99018
2587.13	5.53129
2588.49	5.20035
2589.86	5.16931
2591.22	5.76675
2592.59	6.37243
2593.96	6.25937
2595.32	6.60347
2596.69	7.45638
2598.05	7.23731
2599.42	7.33805
2600.78	6.92628
2602.14	6.57448
2603.51	6.63398
2604.87	7.03783
2606.23	7.37093
2607.6	7.26374
2608.96	7.67072
2610.32	7.6769
2611.69	7.59357
2613.05	7.03062
2614.41	7.30891
2615.77	7.10289
2617.13	6.33365
2618.49	6.09877
2619.86	6.02171
2621.22	6.18977
2622.58	6.09096
2623.94	6.16271
2625.3	6.1863
2626.66	5.8927
2628.02	6.14506
2629.37	6.38423
2630.73	6.52942
2632.09	6.57129
2633.45	6.28602
2634.81	6.51064
2636.17	6.38916
2637.53	6.1074
2638.88	5.48162
2640.24	4.7544
2641.6	4.46525
2642.96	3.95267
2644.31	3.75015
2645.67	4.01225
2647.02	3.8147
2648.38	3.36287
2649.74	2.87822
2651.09	2.76727
2652.45	3.10858
2653.8	2.55838
2655.16	2.08702
2656.51	1.9028
2657.86	2.49746
2659.22	3.04359
2660.57	3.07787
2661.93	3.20549
2663.28	3.81712
2664.63	4.12347
2665.98	3.85409
2667.34	4.1236
2668.69	4.17222
2670.04	4.44582
2671.39	4.85393
2672.75	4.56751
2674.09	4.71714
2675.45	4.36255
2676.8	4.32008
2678.15	4.40812
2679.5	4.10309
2680.85	4.33703
2682.2	5.12599
2683.55	5.42879
2684.9	5.53637
2686.25	6.27303
2687.6	6.40539
2688.94	6.93293
2690.29	7.27337
2691.64	7.85281
2692.99	8.60173
2694.34	9.22121
2695.68	9.75151
2697.03	9.94532
2698.38	10.4299
2699.73	10.612
2701.07	10.8273
2702.42	11.2372
2703.76	11.2207
2705.11	10.9503
2706.45	11.1433
2707.8	11.6481
2709.15	12.3715
2710.49	12.678
2711.83	12.6551
2713.18	12.8526
2714.52	12.4451
2715.87	12.2917
2717.21	12.5581
2718.55	12.7756
2719.9	12.7906
2721.24	12.1708
2722.58	12.6087
2723.93	12.6611
2725.27	12.9021
2726.61	12.535
2727.95	12.4475
2729.29	12.1383
2730.63	12.198
2731.98	11.458
2733.32	10.6532
2734.66	10.083
2736	8.87959
2737.34	8.17894
2738.68	7.62876
2740.02	7.12673
2741.36	7.08353
2742.7	6.66929
2744.03	6.55925
2745.37	6.51469
2746.71	5.73077
2748.05	5.88596
2749.39	5.84816
2750.72	5.18503
2752.06	5.14175
2753.4	5.13162
2754.74	5.11128
2756.07	5.48966
2757.41	5.57347
2758.75	5.87172
2760.08	6.0274
2761.42	5.59352
2762.76	5.6259
2764.09	5.07262
2765.42	4.89911
2766.76	4.85559
2768.09	4.86383
2769.43	4.9135
2770.76	4.55622
2772.1	3.90096
2773.43	3.49335
2774.76	3.11192
2776.1	2.90044
2777.43	2.71675
2778.76	2.32881
2780.1	2.48681
2781.43	2.32215
2782.76	2.56101
2784.09	2.29564
2785.42	2.27449
2786.75	2.5101
2788.09	2.73591
2789.42	2.58518
2790.75	1.99288
2792.08	1.76058
2793.41	1.77684
2794.74	1.83133
2796.07	1.63163
2797.4	1.50353
2798.73	1.08424
2800.06	0.863472
2801.39	1.01363
2802.71	0.699652
2804.04	0.690859
2805.37	0.741013
2806.7	1.05925
2808.03	1.16429
2809.35	1.31939
2810.68	1.20461
2812.01	0.772925
2813.33	0.202912
2814.66	0.568277
2815.99	0.270985
2817.31	0.622587
2818.64	1.42011
2819.96	1.80481
2821.29	2.76506
2822.61	3.82062
2823.94	4.52865
2825.26	5.38568
2826.59	5.28155
2827.91	5.38807
2829.23	6.07186
2830.56	6.69706
2831.88	8.39311
2833.21	9.37598
2834.53	10.3215
2835.85	11.8277
2837.17	12.5448
2838.5	13.8643
2839.82	15.6958
2841.14	17.5959
2842.46	19.361
2843.78	21.1533
2845.1	22.7869
2846.42	24.9578
2847.74	27.2457
2849.06	30.233
2850.38	32.0935
2851.71	34.5714
2853.03	37.1109
2854.34	39.373
2855.66	41.055
2856.98	43.8607
2858.3	46.9125
2859.62	49.6402
2860.94	51.9095
2862.26	53.9408
2863.57	56.0658
2864.89	58.3652
2866.21	60.383
2867.53	62.2203
2868.84	63.4327
2870.16	64.6021
2871.48	66.2916
2872.79	67.832
2874.11	68.1928
2875.42	69.618
2876.74	70.653
2878.05	72.0121
2879.37	73.2753
2880.68	74.5919
2882	75.8553
2883.31	77.9897
2884.63	79.3177
2885.94	81.4717
2887.26	82.589
2888.57	83.6108
2889.88	84.7013
2891.19	84.7546
2892.51	85.5872
2893.82	87.3656
2895.13	89.1283
2896.44	91.0565
2897.76	92.8121
2899.07	93.9518
2900.38	95.9153
2901.69	98.1672
2903	100.059
2904.31	102.907
2905.62	105.61
2906.93	107.799
2908.24	109.784
2909.55	112.827
2910.86	115.447
2912.17	118.288
2913.48	121.44
2914.79	124.107
2916.1	126.053
2917.41	128.339
2918.71	130.38
2920.02	132.824
2921.33	135.039
2922.64	137.806
2923.94	139.251
2925.25	139.857
2926.56	140.891
2927.86	141.277
2929.17	142.067
2930.48	142.525
2931.78	142.661
2933.09	142.072
2934.39	141.703
2935.7	141.701
2937	141.22
2938.31	140.417
2939.61	138.981
2940.92	138.311
2942.22	136.607
2943.53	134.945
2944.83	133.1
2946.13	130.974
2947.43	129.312
2948.74	127.673
2950.04	125.394
2951.34	123.264
2952.64	119.919
2953.95	117.864
2955.25	115.218
2956.55	112.009
2957.85	110.367
2959.15	108.378
2960.45	106.001
2961.75	103.891
2963.05	101.742
2964.35	99.4556
2965.65	97.5043
2966.95	94.9711
2968.25	92.6544
2969.55	90.9388
2970.85	88.1238
2972.15	85.1782
2973.45	82.1304
2974.75	79.9991
2976.05	76.8093
2977.34	74.1097
2978.64	71.5884
2979.94	68.4262
2981.24	65.3892
2982.53	62.4914
2983.83	60.2287
2985.13	58.132
2986.42	55.4747
2987.72	52.3505
2989.01	49.0916
2990.31	46.4317
2991.61	44.2788
2992.9	41.5018
2994.19	38.8763
2995.49	36.7859
2996.78	33.9787
2998.08	31.3106
2999.37	29.1073
3000.67	26.7829
3001.96	24.1928
3003.25	22.0499
3004.55	19.5518
3005.84	17.587
3007.13	15.6342
3008.42	14.0595
3009.72	12.5942
3011.01	11.0054
3012.3	10.197
3013.59	9.28847
3014.88	8.2913
3016.17	7.03854
3017.46	6.36046
3018.76	5.50153
3020.05	4.56507
3021.34	4.32591
3022.63	4.45488
3023.92	4.15672
3025.21	3.92573
3026.49	4.07658
3027.78	4.09803
3029.07	3.88733
3030.36	3.23594
3031.65	3.59931
3032.94	3.50609
3034.23	3.68009
3035.51	3.21708
3036.8	3.51026
3038.09	3.54681
3039.38	3.78736
3040.66	3.91735
3041.95	5.03858
3043.23	5.56622
3044.52	5.86755
3045.81	6.25045
3047.09	6.82595
3048.38	7.12953
3049.66	7.58484
3050.95	7.98745
3052.23	8.15761
3053.52	8.55192
3054.8	8.85449
3056.09	8.8857
3057.37	8.7342
3058.65	8.7386
3059.94	9.25094
3061.22	8.67448
3062.5	8.9966
3063.79	9.26144
3065.07	8.92583
3066.35	8.70698
3067.63	8.73345
3068.92	8.25575
3070.2	7.8428
3071.48	7.55893
3072.76	7.33915
3074.04	6.69921
3075.32	6.31882
3076.6	5.91583
3077.88	5.54093
3079.16	5.1309
3080.44	4.99207
3081.72	4.58253
3083	4.05835
3084.28	3.66615
3085.56	3.21156
3086.84	2.91912
3088.12	2.53935
3089.4	2.24865
3090.67	2.28785
3091.95	2.12739
3093.23	1.81229
3094.51	1.18122
3095.78	1.53986
3097.06	0.829033
3098.34	1.48966
3099.61	1.46528
3100.89	1.93321
3102.17	2.62163
3103.44	2.84801
3104.72	3.41046
3105.99	4.34863
3107.27	4.38494
3108.54	4.69965
3109.82	5.14838
3111.09	6.14741
3112.37	6.49505
3113.64	7.26285
3114.92	8.26797
3116.19	9.28653
3117.46	10.1768
3118.74	10.9477
3120.01	11.5717
3121.28	12.5386
3122.55	13.5416
3123.83	14.4384
3125.1	15.1459
3126.37	16.0884
3127.64	16.5699
3128.91	16.861
3130.19	17.6296
3131.46	18.316
3132.73	18.2491
3134	18.9133
3135.27	19.6795
3136.54	20.2924
3137.81	20.5274
3139.08	20.8102
3140.35	21.0681
3141.62	21.4237
3142.89	21.436
3144.16	21.3414
3145.42	21.4404
3146.69	21.4961
3147.96	22.0722
3149.23	22.0267
