#Acq. time (s)=	45
#Accumulations=	2
#Range (cm-¹)=	200...3150
#Windows=	2
#Auto scanning=	Off
#Autofocus=	Off
#Macrospot=	Off
#AutoExposure=	Off
#Spike filter=	Multiple accum.
#Delay time (s)=	0
#Binning=	1
#Readout mode=	Signal
#DeNoise=	Off
#ICS correction=	On
#Dark correction=	Off
#Inst. Process=	Off
#Detector Gain=	Best Dynamic Range
#Detector ADC=	20 kHz       
#Detector temperature (°C)=	-69.85
#Instrument=	LabRAM HR Evol
#Detector=	Synapse
#Objective=	x100
#Grating=	600 gr/mm
#ND Filter=	100%
#Laser (nm)=	532 
#Hole=	100.021
#Range=	Auto
#Laser Pol.=	No
#Raman. Pol.=	No
#Laser Pol. (°)=	-0.0007625
#Raman Pol. (°)=	89.9995
#Collection=	Microscope
#StageXY=	Marzhauser
#StageZ=	Marzhauser
#X (µm)=	-5110.8
#Y (µm)=	1481.1
#Z (µm)=	62.85
#Full time(mm:ss)=	3:13
#Project=	
#Sample=	
#Site=	
#Title=	Thy_50_12_13_2x_45s_532 nm_x100_100%_600 gr_mm
#Remark=	
#Date=	07.07.2022 10:10
#Acquired=	07.07.2022 10:10:58
#Base:Fit=	10.08.2022 10:04:29
#Base:Sub=	10.08.2022 10:04:45
#Filter:Polynom=	16.08.2022 10:20:24
#AxisType[0]=Intens
#AxisUnit[0]=Cnt
#AxisType[1]=Spectr
#AxisUnit[1]=1/cm
200.43	29.6251
202.246	28.2039
204.061	27.1933
205.875	24.9503
207.688	22.6713
209.501	20.3755
211.316	18.1909
213.129	16.2737
214.941	14.0883
216.753	12.2825
218.566	11.6321
220.377	10.5849
222.188	10.5905
223.999	10.0939
225.809	9.58313
227.618	9.74363
229.43	9.35415
231.239	7.62082
233.047	6.99691
234.855	7.19221
236.663	7.67722
238.471	6.6974
240.278	6.51321
242.087	5.53944
243.894	4.46929
245.7	3.95268
247.506	3.7173
249.311	3.68961
251.116	3.09074
252.921	2.85792
254.725	2.6807
256.529	3.23864
258.333	3.92807
260.136	3.07782
261.939	3.17432
263.744	3.75617
265.546	3.4465
267.348	3.84166
269.15	4.41066
270.951	4.15134
272.752	4.51594
274.552	5.12349
276.353	5.56911
278.152	5.00159
279.952	5.28441
281.751	4.27707
283.55	4.30024
285.348	5.10028
287.146	6.95401
288.942	7.34224
290.739	8.09453
292.536	8.1695
294.333	8.78352
296.129	10.1233
297.925	11.5518
299.721	12.2805
301.516	12.1611
303.311	13.0439
305.106	13.6698
306.9	14.4822
308.694	14.7129
310.486	14.3788
312.279	15.8453
314.072	15.3609
315.864	16.1661
317.656	14.877
319.448	14.9454
321.24	15.1495
323.029	15.5025
324.819	15.5029
326.61	14.4822
328.4	13.9967
330.19	13.6612
331.977	13.2458
333.766	13.7042
335.555	13.5926
337.343	13.7806
339.131	13.7126
340.917	13.4729
342.704	13.5565
344.491	13.7665
346.277	14.7099
348.062	13.694
349.848	12.5711
351.633	12.4749
353.416	12.2639
355.201	12.005
356.986	11.9855
358.77	11.2828
360.552	9.92509
362.335	10.0982
364.118	9.1992
365.899	8.28732
367.682	8.10313
369.464	8.46859
371.243	7.95963
373.025	8.80022
374.806	9.95844
376.585	9.73695
378.365	9.13031
380.143	8.50323
381.923	8.01114
383.702	7.84312
385.479	8.432
387.258	7.83346
389.034	6.39758
390.812	5.8547
392.59	6.18903
394.365	5.64098
396.142	5.02831
397.916	5.03204
399.693	5.23884
401.467	5.52065
403.242	4.34041
405.015	3.81219
406.79	2.35753
408.565	3.36541
410.337	3.45744
412.111	3.57627
413.882	4.02347
415.656	4.87274
417.426	5.90015
419.197	5.6201
420.969	7.43365
422.739	7.3721
424.51	7.12901
426.279	7.49243
428.05	7.19274
429.819	7.18809
431.589	6.53411
433.356	6.8494
435.124	6.9056
436.893	6.72141
438.66	6.80015
440.428	6.64799
442.194	7.27456
443.96	7.25738
445.727	7.55317
447.492	7.05729
449.259	7.82714
451.023	8.87604
452.787	9.2535
454.553	9.82385
456.316	10.7852
458.079	11.5633
459.844	11.6983
461.606	12.4095
463.368	13.606
465.132	13.6592
466.893	14.6854
468.654	14.9424
470.415	16.0762
472.177	17.8258
473.937	19.3059
475.696	19.5359
477.456	20.3899
479.217	21.1543
480.975	20.9088
482.733	21.3722
484.491	20.9429
486.251	22.0338
488.008	22.6681
489.765	23.4529
491.522	24.3825
493.278	25.2463
495.036	26.4886
496.791	27.4284
498.546	28.4089
500.301	28.241
502.056	27.8857
503.81	27.6441
505.566	26.6567
507.319	26.2577
509.073	24.963
510.825	22.5896
512.578	22.0642
514.33	21.3713
516.082	21.6404
517.833	21.9065
519.587	21.597
521.337	23.1309
523.088	23.3811
524.838	23.0517
526.588	22.5157
528.337	22.5476
530.087	21.6943
531.835	20.9964
533.584	20.3048
535.332	18.569
537.08	18.6727
538.827	17.6736
540.574	17.2097
542.321	17.6431
544.068	17.4791
545.814	17.3208
547.56	17.6276
549.305	17.1382
551.05	17.0321
552.795	16.5459
554.54	16.6243
556.284	16.2716
558.027	16.6357
559.771	17.1748
561.514	16.7927
563.257	17.1723
564.999	16.8132
566.742	16.8003
568.481	16.0173
570.223	16.2922
571.964	15.8784
573.705	16.9191
575.445	16.9429
577.185	15.9865
578.925	15.5237
580.665	14.2152
582.402	12.8388
584.141	12.282
585.879	11.3551
587.617	10.1531
589.355	9.11558
591.092	7.65201
592.828	7.07482
594.564	7.02036
596.301	6.30801
598.037	7.23134
599.773	8.79978
601.506	8.64767
603.242	9.26866
604.976	8.53964
606.711	8.5555
608.443	8.65258
610.177	7.57409
611.91	7.24004
613.644	6.17258
615.374	5.59968
617.107	4.97436
618.839	4.81369
620.569	3.71989
622.3	3.86653
624.032	5.08432
625.761	5.58174
627.491	6.17934
629.221	6.90392
630.949	6.69163
632.679	7.12186
634.408	7.543
636.135	7.82658
637.863	9.35622
639.592	10.4675
641.318	12.0588
643.045	13.2771
644.77	14.8113
646.497	15.1378
648.224	15.2451
649.948	15.7579
651.674	15.8467
653.398	15.8025
655.123	15.8808
656.846	16.1976
658.57	15.8709
660.293	16.7473
662.017	16.5239
663.738	16.0084
665.462	16.5365
667.185	16.5708
668.905	16.643
670.628	16.7699
672.348	16.1708
674.067	16.4007
675.789	16.7511
677.508	17.3986
679.228	18.9171
680.947	19.0334
682.667	19.2183
684.385	20.0978
686.104	20.3702
687.821	19.7013
689.538	19.9562
691.256	20.8323
692.972	22.1145
694.69	22.103
696.406	21.3612
698.121	20.5761
699.837	20.315
701.552	21.3407
703.268	21.9926
704.982	21.995
706.695	23.0921
708.41	23.7747
710.123	24.8962
711.836	26.7215
713.55	28.4863
715.262	29.6824
716.973	30.1616
718.685	31.7687
720.398	34.1637
722.108	36.7909
723.818	38.2707
725.53	38.9052
727.24	39.8575
728.949	40.4048
730.658	41.1371
732.369	41.7444
734.077	41.957
735.785	43.4366
737.493	44.7157
739.2	45.5982
740.909	47.1755
742.616	46.9641
744.322	47.5319
746.028	49.3652
747.734	50.9094
749.441	52.3203
751.146	53.8083
752.851	55.4788
754.555	56.2043
756.26	58.2748
757.963	60.147
759.667	61.0392
761.372	62.0686
763.075	63.7372
764.777	64.7693
766.479	65.2839
768.181	67.2145
769.883	68.1393
771.584	68.8674
773.285	70.8246
774.986	71.7052
776.686	73.3041
778.386	73.2692
780.085	73.2553
781.785	73.9412
783.484	75.7209
785.182	76.5488
786.881	77.6499
788.579	78.6666
790.276	78.8987
791.974	79.8653
793.671	79.4844
795.367	81.2764
797.064	82.4042
798.76	81.3188
800.456	81.2109
802.151	81.9693
803.846	81.7631
805.541	81.0012
807.236	80.3668
808.93	78.913
810.624	77.3899
812.317	76.739
814.01	75.881
815.703	76.1424
817.394	74.8084
819.086	74.1796
820.778	73.9526
822.47	73.8502
824.161	72.841
825.852	71.2368
827.543	69.0355
829.231	67.9016
830.921	67.3542
832.611	67.0231
834.3	65.5174
835.989	64.7256
837.676	65.0952
839.364	63.8261
841.053	63.9839
842.74	62.3494
844.426	61.9507
846.113	61.1081
847.8	60.534
849.486	60.3028
851.171	61.1641
852.857	60.952
854.542	60.2485
856.227	59.7436
857.911	59.0297
859.595	58.205
861.279	58.2721
862.961	58.1967
864.645	58.6923
866.329	59.3114
868.01	58.2867
869.692	56.7478
871.375	56.0665
873.055	56.2583
874.737	55.7081
876.418	54.5536
878.097	53.6865
879.778	54.1179
881.457	53.252
883.137	51.7962
884.817	51.5017
886.495	50.0242
888.174	48.2636
889.851	48.5664
891.53	48.5014
893.206	47.2943
894.884	47.1023
896.562	46.7613
898.237	46.3126
899.914	46.6418
901.589	45.4391
903.265	44.8468
904.94	43.4103
906.615	43.9253
908.289	42.9993
909.964	41.8645
911.637	41.8021
913.31	41.345
914.984	41.875
916.656	41.817
918.33	41.2228
920.001	40.5377
921.674	41.2319
923.345	40.3335
925.015	40.9752
926.687	40.314
928.357	40.4125
930.028	39.3207
931.698	39.269
933.366	39.3631
935.037	38.5122
936.705	37.0088
938.373	36.4925
940.043	36.0781
941.71	36.9895
943.379	37.1991
945.046	36.2589
946.712	36.6618
948.378	36.7428
950.046	36.5957
951.711	35.8655
953.376	36.184
955.043	36.26
956.708	37.3666
958.372	36.7632
960.036	35.4864
961.701	36.5782
963.364	37.4213
965.027	37.7091
966.69	38.175
968.354	38.3127
970.016	38.4489
971.678	38.426
973.339	38.5426
975	38.6765
976.661	38.4329
978.324	39.333
979.984	39.5228
981.644	39.775
983.303	40.1389
984.962	40.1973
986.621	40.026
988.282	39.9011
989.94	39.1214
991.598	38.9212
993.256	38.4714
994.913	38.1836
996.57	37.6953
998.227	36.9097
999.884	36.8237
1001.54	36.828
1003.2	36.0754
1004.85	36.4351
1006.51	35.9474
1008.16	36.1847
1009.82	35.586
1011.47	34.3339
1013.12	33.8389
1014.78	33.9286
1016.43	34.4549
1018.08	33.8961
1019.74	34.4069
1021.39	34.5896
1023.04	34.9883
1024.69	35.5098
1026.34	36.0309
1028	37.2188
1029.65	38.7666
1031.3	38.9986
1032.95	39.3641
1034.6	39.7641
1036.25	39.0232
1037.9	38.4915
1039.55	39.2504
1041.19	38.9496
1042.84	39.3253
1044.49	40.6925
1046.14	41.4152
1047.79	41.4035
1049.43	41.1049
1051.08	40.0073
1052.73	38.7841
1054.37	38.4286
1056.02	38.4389
1057.66	37.8146
1059.31	37.5411
1060.95	37.1362
1062.6	36.1014
1064.24	34.7791
1065.88	33.8678
1067.53	33.3815
1069.17	32.9538
1070.81	32.4419
1072.46	33.2065
1074.1	34.1475
1075.74	33.2282
1077.38	32.8502
1079.02	31.9976
1080.66	31.2203
1082.3	31.0679
1083.94	30.4249
1085.58	29.6453
1087.22	29.6454
1088.86	29.9316
1090.5	29.9229
1092.14	29.4708
1093.78	28.8621
1095.42	29.6251
1097.05	29.7201
1098.69	29.0481
1100.33	28.6636
1101.97	29.3153
1103.6	29.2155
1105.24	29.9614
1106.87	30.3356
1108.51	30.3041
1110.15	29.6698
1111.78	29.2448
1113.41	29.0141
1115.05	29.3797
1116.68	28.8757
1118.31	28.7338
1119.95	28.5334
1121.58	28.5836
1123.21	27.5179
1124.85	26.8139
1126.48	25.5197
1128.11	24.4083
1129.74	22.8762
1131.37	21.169
1133	20.1766
1134.63	19.8859
1136.26	19.4122
1137.89	17.741
1139.52	16.5757
1141.15	16.3722
1142.78	15.8685
1144.41	15.3623
1146.04	14.7004
1147.66	14.8933
1149.29	14.6582
1150.92	13.9658
1152.55	13.5139
1154.17	12.928
1155.8	11.8123
1157.43	11.7153
1159.05	10.7401
1160.68	9.3521
1162.3	10.0083
1163.93	9.85183
1165.55	9.8627
1167.17	9.82307
1168.8	10.659
1170.42	11.3726
1172.05	11.551
1173.67	12.6061
1175.29	13.1073
1176.91	13.4852
1178.54	14.0519
1180.16	14.7611
1181.78	15.1636
1183.4	16.1443
1185.02	16.3829
1186.64	16.7795
1188.26	17.4205
1189.88	17.8596
1191.5	18.9755
1193.12	19.2769
1194.74	20.0761
1196.36	20.1444
1197.97	20.6173
1199.59	21.2073
1201.21	21.2171
1202.83	22.3703
1204.44	23.0143
1206.06	24.2975
1207.68	25.8042
1209.29	26.8864
1210.91	28.7149
1212.52	30.0828
1214.14	31.8105
1215.75	33.6757
1217.37	34.8553
1218.98	36.3685
1220.6	39.1004
1222.21	40.8875
1223.82	42.8291
1225.44	44.1481
1227.05	45.8267
1228.66	47.5872
1230.27	48.7515
1231.88	50.2728
1233.49	52.2712
1235.1	52.9167
1236.72	53.9371
1238.33	55.1055
1239.94	55.8894
1241.55	57.9165
1243.16	59.7834
1244.76	61.0513
1246.37	62.6017
1247.98	64.8151
1249.59	66.0136
1251.2	66.808
1252.8	67.7376
1254.41	68.5411
1256.02	69.0246
1257.63	69.1757
1259.23	70.448
1260.84	70.4239
1262.44	70.9201
1264.05	71.9453
1265.66	71.0157
1267.26	71.6191
1268.87	73.3916
1270.47	73.7682
1272.07	74.644
1273.68	74.7894
1275.28	76.491
1276.88	77.7124
1278.48	78.9145
1280.09	80.395
1281.69	81.39
1283.29	82.3116
1284.89	82.9438
1286.49	84.0173
1288.09	85.0475
1289.69	85.5889
1291.3	87.0589
1292.9	87.9416
1294.49	89.1549
1296.09	90.1224
1297.69	90.8451
1299.29	92.1674
1300.89	92.455
1302.49	93.8075
1304.09	95.1005
1305.68	95.9399
1307.28	95.7697
1308.88	95.4866
1310.47	95.3657
1312.07	95.1173
1313.66	94.491
1315.26	93.9911
1316.86	94.1684
1318.45	94.6713
1320.05	95.1439
1321.64	95.4961
1323.23	95.5754
1324.83	94.3329
1326.42	93.0626
1328.01	92.0689
1329.61	90.2629
1331.2	89.4377
1332.79	88.4739
1334.38	87.788
1335.98	86.8962
1337.57	85.1075
1339.16	84.496
1340.75	82.7851
1342.34	81.5796
1343.93	80.5332
1345.52	78.9682
1347.11	78.1908
1348.7	77.3472
1350.29	75.9675
1351.87	75.3364
1353.46	74.5125
1355.05	74.5853
1356.64	73.333
1358.23	71.8409
1359.81	70.4509
1361.4	68.0431
1362.99	67.1363
1364.57	66.4548
1366.16	65.4751
1367.74	64.0084
1369.33	63.0718
1370.91	62.1155
1372.5	61.8067
1374.08	61.0747
1375.67	60.7486
1377.25	59.9622
1378.83	59.8857
1380.42	58.8844
1382	58.7738
1383.58	57.4811
1385.16	56.5563
1386.75	54.9319
1388.33	54.4755
1389.91	54.193
1391.49	53.4034
1393.07	53.0169
1394.65	53.0227
1396.23	52.6652
1397.81	52.3276
1399.39	52.0263
1400.97	51.6021
1402.55	50.7891
1404.13	50.7215
1405.7	51.8167
1407.28	53.4992
1408.86	54.7526
1410.44	56.8877
1412.01	59.2099
1413.59	60.7876
1415.17	62.2248
1416.74	64.9027
1418.32	67.813
1419.89	70.0609
1421.47	72.6285
1423.05	76.3832
1424.62	79.4055
1426.19	82.2051
1427.77	86.0094
1429.34	89.7894
1430.92	92.2939
1432.49	94.0214
1434.06	95.8308
1435.63	97.7726
1437.2	99.3414
1438.78	101.588
1440.35	104.222
1441.92	106.462
1443.49	107.829
1445.06	108.919
1446.63	109.897
1448.2	111.047
1449.77	111.211
1451.34	111.83
1452.91	111.315
1454.48	110.504
1456.05	108.946
1457.62	108.61
1459.18	106.88
1460.75	105.055
1462.32	103.291
1463.89	101.135
1465.45	97.7841
1467.02	94.1396
1468.59	90.8885
1470.15	86.8307
1471.72	83.6155
1473.28	80.2808
1474.85	76.8469
1476.41	72.9645
1477.98	69.6444
1479.54	65.9678
1481.11	63.3783
1482.67	60.6073
1484.23	56.4454
1485.8	54.3392
1487.36	52.1199
1488.92	49.9319
1490.48	47.5389
1492.05	45.3818
1493.61	44.2654
1495.17	42.897
1496.73	40.5516
1498.29	38.482
1499.85	37.8874
1501.41	37.6635
1502.97	37.2803
1504.53	35.6234
1506.09	35.2141
1507.65	34.8469
1509.2	33.8106
1510.76	34.3926
1512.32	34.876
1513.88	36.1423
1515.44	37.0017
1516.99	38.6875
1518.55	39.4725
1520.1	39.5271
1521.66	40.5005
1523.22	41.3865
1524.77	42.2908
1526.33	43.3982
1527.88	44.467
1529.44	44.9735
1530.99	45.8468
1532.55	46.1032
1534.1	46.6037
1535.65	47.7875
1537.21	48.665
1538.76	50.6712
1540.31	52.1724
1541.86	52.6736
1543.42	53.0627
1544.97	54.7163
1546.52	56.7035
1548.07	58.9926
1549.62	60.6639
1551.17	63.3498
1552.72	64.9731
1554.27	66.535
1555.82	68.3883
1557.37	69.9695
1558.92	71.4159
1560.47	72.2952
1562.02	73.7419
1563.57	76.6694
1565.11	77.5595
1566.66	78.1214
1568.21	79.7103
1569.75	80.7964
1571.3	81.77
1572.85	82.0977
1574.39	82.8563
1575.94	83.907
1577.49	86.1572
1579.03	87.1089
1580.58	87.4503
1582.12	87.2337
1583.67	89.1529
1585.21	90.5484
1586.75	90.8512
1588.3	90.9589
1589.84	91.001
1591.38	91.1534
1592.93	90.4817
1594.47	89.659
1596.01	88.7155
1597.55	87.4575
1599.09	86.6616
1600.63	84.3809
1602.18	84.0276
1603.72	82.5108
1605.26	81.0355
1606.8	79.8784
1608.34	79.797
1609.87	78.8531
1611.41	78.7744
1612.95	79.5355
1614.49	79.9001
1616.03	79.8811
1617.57	79.2837
1619.11	78.7781
1620.64	79.7737
1622.18	80.7533
1623.72	81.8806
1625.25	82.72
1626.79	83.0344
1628.32	84.5481
1629.86	84.621
1631.4	85.6468
1632.93	87.0261
1634.47	87.2945
1636	87.7707
1637.53	89.2407
1639.07	88.7739
1640.6	89.6549
1642.14	89.7013
1643.67	91.6416
1645.2	92.6024
1646.73	93.3143
1648.27	93.9257
1649.8	94.8234
1651.33	95.2193
1652.86	95.9517
1654.39	96.5243
1655.92	96.5562
1657.45	96.7662
1658.98	97.0013
1660.51	97.246
1662.04	95.5153
1663.57	93.6092
1665.1	91.7133
1666.63	90.6427
1668.16	88.5845
1669.69	86.0104
1671.21	84.0287
1672.74	82.9871
1674.27	80.6697
1675.79	77.6807
1677.32	75.0459
1678.85	73.5919
1680.37	70.4935
1681.9	68.9849
1683.42	66.8906
1684.95	64.2795
1686.47	60.8953
1688	57.9932
1689.52	55.0133
1691.05	51.687
1692.57	49.2433
1694.1	46.8537
1695.62	43.9782
1697.14	41.4055
1698.66	39.3125
1700.19	37.8465
1701.71	35.2365
1703.23	33.3101
1704.75	31.4721
1706.27	29.7927
1707.79	28.1581
1709.32	25.8105
1710.83	23.251
1712.35	21.8315
1713.88	20.3489
1715.39	18.4361
1716.91	18.3324
1718.43	17.0935
1719.95	16.5666
1721.47	15.3222
1722.99	15.0748
1724.5	14.2924
1726.02	14.2939
1727.54	14.0566
1729.06	14.3755
1730.57	14.7031
1732.09	14.8736
1733.61	14.4116
1735.12	14.0421
1736.64	13.3762
1738.15	12.6301
1739.67	13.0443
1741.18	12.6908
1742.7	13.0611
1744.21	13.3784
1745.72	12.9656
1747.24	14.116
1748.75	14.8284
1750.26	13.7476
1751.78	13.5776
1753.29	14.2965
1754.8	13.9522
1756.31	13.7627
1757.82	14.2206
1759.34	13.0947
1760.85	12.9129
1762.36	12.5175
1763.87	12.3808
1765.38	11.7842
1766.89	11.5566
1768.4	11.6377
1769.91	11.3271
1771.41	10.6427
1772.92	10.4879
1774.43	10.3341
1775.94	9.71539
1777.45	8.27365
1778.96	7.34942
1780.46	6.83098
1781.97	6.48223
1783.48	5.93739
1784.98	5.32211
1786.49	4.99166
1788	4.16137
1789.5	4.06747
1791.01	3.86917
1792.51	3.54463
1794.01	3.88108
1795.52	4.27956
1797.02	3.85457
1798.53	3.91218
1800.03	4.09189
1801.54	3.86879
1803.04	4.09391
1804.54	3.81664
1806.04	3.79096
1807.54	3.47697
1809.05	3.29591
1810.55	3.20897
1812.05	3.12875
1813.55	3.78251
1815.05	4.05608
1816.55	4.24499
1818.05	4.7989
1819.55	4.62306
1821.05	4.36632
1822.55	4.67581
1824.05	4.46181
1825.55	4.55656
1827.05	4.96962
1828.55	5.20826
1830.04	5.0515
1831.54	5.23235
1833.04	5.00521
1834.54	4.60511
1836.03	4.69291
1837.53	4.60228
1839.03	4.86261
1840.52	4.96835
1842.02	5.316
1843.51	5.83704
1845.01	5.95584
1846.5	5.46923
1848	5.3779
1849.49	5.47135
1850.99	5.80599
1852.48	5.53495
1853.97	5.59081
1855.47	5.15257
1856.96	5.31114
1858.45	4.78573
1859.94	4.36488
1861.44	4.42719
1862.93	5.26145
1864.42	5.58954
1865.91	4.41579
1867.4	4.3186
1868.89	4.57305
1870.38	4.081
1871.87	3.80155
1873.36	3.25562
1874.85	3.05583
1876.34	2.32624
1877.83	1.98221
1879.32	2.23268
1880.81	1.91971
1882.3	1.82011
1882.56	1.4365
1884.06	1.2333
1885.55	1.29724
1887.04	1.14042
1888.54	1.50036
1890.03	1.22129
1891.52	0.522822
1893.02	0.348583
1894.51	0.65882
1896	1.03264
1897.49	1.30572
1898.99	0.91763
1900.48	1.0377
1901.97	1.28254
1903.46	0.93323
1904.95	1.90012
1906.44	1.70582
1907.93	2.00004
1909.42	2.92463
1910.91	3.91421
1912.4	4.35662
1913.89	4.23489
1915.38	4.58709
1916.86	4.26343
1918.35	4.98098
1919.84	4.6667
1921.33	5.13981
1922.82	5.34174
1924.3	5.60135
1925.79	4.86118
1927.28	4.26704
1928.76	4.3809
1930.25	4.87465
1931.74	4.43624
1933.22	4.34779
1934.71	4.51307
1936.19	4.72597
1937.67	3.66524
1939.16	2.30543
1940.64	2.12684
1942.13	1.4681
1943.61	1.201
1945.09	1.11753
1946.58	-0.362251
1948.06	-0.241595
1949.54	-1.55266
1951.03	-1.64996
1952.51	-1.76933
1953.99	-2.82398
1955.47	-2.81325
1956.95	-2.44619
1958.43	-2.7335
1959.91	-2.00412
1961.39	-1.71758
1962.87	-1.27626
1964.35	-1.60053
1965.83	-0.732458
1967.31	-0.077026
1968.79	-0.0485491
1970.27	0.349376
1971.75	0.896162
1973.22	1.30279
1974.7	2.41455
1976.18	2.70697
1977.66	3.03182
1979.13	4.19612
1980.61	3.7153
1982.09	4.49447
1983.56	5.89966
1985.04	5.66836
1986.52	5.01672
1987.99	4.87312
1989.47	6.47077
1990.94	6.74243
1992.41	7.7826
1993.89	7.71953
1995.36	7.94522
1996.84	7.98119
1998.31	8.27271
1999.78	7.80541
2001.26	7.58938
2002.73	8.44063
2004.2	7.7292
2005.67	6.75914
2007.15	5.76689
2008.62	6.15567
2010.09	5.53687
2011.56	5.39528
2013.03	5.4854
2014.5	5.80489
2015.97	6.13489
2017.44	6.10154
2018.91	5.59989
2020.38	4.41783
2021.85	4.66824
2023.32	4.72643
2024.79	5.54456
2026.25	5.60928
2027.72	5.68594
2029.19	6.58925
2030.66	7.56965
2032.13	7.96439
2033.59	8.21633
2035.06	8.35375
2036.53	8.63054
2037.99	9.09774
2039.46	9.30534
2040.92	9.32363
2042.39	10.0171
2043.85	10.9816
2045.32	11.2938
2046.78	11.4813
2048.25	12.2027
2049.71	12.9879
2051.18	14.1652
2052.64	14.6868
2054.1	14.7334
2055.56	14.7556
2057.03	15.27
2058.49	14.909
2059.95	16.9515
2061.42	18.545
2062.88	20.0704
2064.34	20.1653
2065.8	21.3499
2067.26	22.1091
2068.72	22.3063
2070.18	22.994
2071.64	23.4825
2073.1	23.9192
2074.56	25.0907
2076.02	25.6226
2077.48	25.7172
2078.94	26.0988
2080.39	27.7383
2081.85	29.0484
2083.31	29.7202
2084.77	30.5398
2086.22	30.7395
2087.68	30.4362
2089.14	31.0759
2090.6	31.7419
2092.05	32.0745
2093.51	32.5454
2094.96	34.1115
2096.42	35.0148
2097.87	35.5198
2099.33	36.6151
2100.78	37.6021
2102.24	39.0955
2103.69	39.4385
2105.15	40.3067
2106.6	40.8324
2108.05	42.2422
2109.51	43.2096
2110.96	43.7923
2112.41	45.3275
2113.86	47.5144
2115.32	48.4581
2116.77	49.4174
2118.22	50.3109
2119.67	52.0604
2121.12	54.3991
2122.57	55.5129
2124.02	57.2049
2125.47	58.5205
2126.92	61.7141
2128.37	64.4187
2129.82	67.1667
2131.27	69.2255
2132.72	72.1625
2134.17	73.6831
2135.62	76.1845
2137.06	78.7122
2138.51	81.1638
2139.96	82.49
2141.41	84.2621
2142.85	86.6826
2144.3	89.3575
2145.75	91.2404
2147.19	93.2086
2148.64	94.6598
2150.09	96.4367
2151.53	97.9056
2152.97	99.8631
2154.42	101.183
2155.86	102.573
2157.31	104.133
2158.75	105.715
2160.2	106.856
2161.64	108.966
2163.08	109.853
2164.53	110.725
2165.97	112.634
2167.41	113.921
2168.86	114.434
2170.3	114.929
2171.74	115.071
2173.18	115.131
2174.62	115.285
2176.06	114.402
2177.5	113.852
2178.94	112.3
2180.38	111.772
2181.82	110.748
2183.26	109.858
2184.7	109.285
2186.14	108.292
2187.58	106.065
2189.02	104.972
2190.46	104.342
2191.89	103.462
2193.33	102.165
2194.77	100.229
2196.21	99.3322
2197.64	98.1988
2199.08	97.7815
2200.52	94.6408
2201.95	93.2407
2203.39	92.1033
2204.83	90.7831
2206.26	89.3368
2207.7	88.0086
2209.13	86.4573
2210.57	84.4397
2212	82.9186
2213.43	81.6278
2214.87	80.9027
2216.3	78.8911
2217.73	76.8179
2219.17	75.3266
2220.6	73.8264
2222.03	73.0673
2223.47	72.5484
2224.9	71.2537
2226.33	70.5884
2227.76	69.5403
2229.19	68.8214
2230.62	68.1201
2232.05	66.9275
2233.49	66.4306
2234.91	64.7835
2236.34	63.9499
2237.77	63.2796
2239.2	62.2018
2240.63	61.8027
2242.06	61.2276
2243.49	60.2795
2244.92	59.991
2246.35	59.5165
2247.78	58.3918
2249.2	57.9648
2250.63	57.1804
2252.06	56.9162
2253.48	56.0044
2254.91	55.4068
2256.34	54.5613
2257.76	54.3991
2259.19	53.3392
2260.61	53.1664
2262.04	52.8644
2263.46	51.9597
2264.89	51.4411
2266.31	50.7272
2267.74	50.4064
2269.16	50.0998
2270.59	49.6214
2272.01	48.1585
2273.43	48.9633
2274.85	48.3416
2276.28	47.2037
2277.7	47.106
2279.12	46.3877
2280.54	45.9056
2281.97	45.1504
2283.39	44.2664
2284.81	43.5126
2286.23	42.6292
2287.65	41.1676
2289.07	40.2649
2290.49	39.15
2291.91	37.894
2293.33	36.9572
2294.75	35.2498
2296.17	35.059
2297.59	34.9831
2299.01	34.4685
2300.42	34.1065
2301.84	33.9829
2303.26	34.0551
2304.68	33.6487
2306.1	32.5842
2307.51	32.9576
2308.93	33.0549
2310.35	32.9911
2311.76	32.7589
2313.18	33.0909
2314.59	31.9902
2316.01	32.0554
2317.43	32.0913
2318.84	31.5326
2320.26	31.0002
2321.67	30.0289
2323.08	30.3035
2324.5	30.0947
2325.91	30.1923
2327.33	30.0635
2328.74	30.046
2330.15	29.9422
2331.56	29.7879
2332.98	29.8436
2334.39	29.9296
2335.8	29.1248
2337.21	28.6417
2338.62	28.4482
2340.04	27.8905
2341.45	27.1007
2342.86	26.8555
2344.27	27.1547
2345.68	26.6498
2347.09	26.1371
2348.5	25.5228
2349.91	25.092
2351.31	24.8686
2352.72	23.9147
2354.13	23.4413
2355.54	23.0439
2356.95	22.2604
2358.36	22.1162
2359.76	21.2864
2361.17	20.9696
2362.58	20.7239
2363.98	21.3421
2365.39	21.5158
2366.8	21.7522
2368.21	21.2887
2369.61	21.2875
2371.02	20.0378
2372.42	19.5102
2373.83	19.6415
2375.23	18.6108
2376.64	18.7921
2378.04	19.0026
2379.44	18.4877
2380.85	18.0422
2382.25	17.9598
2383.66	18.3714
2385.06	16.6877
2386.46	16.6916
2387.86	16.1401
2389.26	15.7015
2390.67	15.1642
2392.07	14.845
2393.47	14.9465
2394.87	15.0377
2396.27	15.0753
2397.67	14.8548
2399.07	14.6945
2400.47	14.6191
2401.87	13.7366
2403.27	13.5569
2404.67	12.4444
2406.07	10.9993
2407.47	10.4347
2408.87	10.4527
2410.27	10.6093
2411.67	11.0396
2413.07	11.9463
2414.46	11.9562
2415.86	12.7177
2417.26	12.5753
2418.66	12.2156
2420.05	12.4391
2421.45	12.0721
2422.84	12.0657
2424.24	12.0172
2425.64	11.5917
2427.03	11.8566
2428.43	11.7868
2429.82	11.3445
2431.22	11.864
2432.61	11.2946
2434.01	11.9162
2435.4	11.7
2436.79	12.2706
2438.19	12.9375
2439.58	12.6382
2440.97	12.3444
2442.37	12.5667
2443.76	12.8005
2445.15	12.7581
2446.54	12.2603
2447.93	11.652
2449.33	11.1856
2450.72	10.8855
2452.11	10.5643
2453.5	9.87624
2454.89	8.3311
2456.28	8.33774
2457.67	7.94622
2459.06	8.20827
2460.45	8.3419
2461.84	8.63569
2463.23	8.64323
2464.62	8.88736
2466	8.36367
2467.39	7.85391
2468.78	7.42623
2470.17	7.30215
2471.55	6.90227
2472.94	6.78731
2474.33	6.78763
2475.72	7.47393
2477.1	8.21732
2478.49	9.38163
2479.87	9.69766
2481.26	9.998
2482.65	9.93604
2484.03	9.31895
2485.42	9.09291
2486.8	7.88763
2488.19	7.59867
2489.57	7.32715
2490.95	7.0667
2492.34	6.50559
2493.72	5.96718
2495.1	6.27703
2496.49	6.53254
2497.87	6.541
2499.25	6.6475
2500.63	6.9861
2502.02	6.28216
2503.4	7.05433
2504.78	6.41876
2506.16	5.98997
2507.54	5.21851
2508.92	4.96738
2510.3	4.46145
2511.68	4.52058
2513.06	5.12697
2514.44	4.63969
2515.82	3.44035
2517.2	3.46776
2518.58	3.23764
2519.96	2.92658
2521.34	2.73196
2522.72	3.00613
2524.1	2.29011
2525.47	2.66133
2526.85	2.40512
2528.23	2.77588
2529.6	2.83037
2530.98	2.79606
2532.36	2.42489
2533.74	2.19447
2535.11	1.93113
2536.49	2.02917
2537.86	3.11777
2539.24	3.52111
2540.61	3.8467
2541.99	3.96913
2543.36	4.27745
2544.74	4.21701
2546.11	4.26885
2547.49	4.43894
2548.86	4.37593
2550.23	4.42236
2551.61	4.39947
2552.98	4.30558
2554.35	4.50586
2555.72	4.49733
2557.09	4.37563
2558.47	3.68506
2559.84	3.75763
2561.21	3.41095
2562.58	4.12481
2563.95	4.56481
2565.32	5.37202
2566.69	6.09177
2568.06	6.32059
2569.43	6.37185
2570.8	6.15245
2572.17	5.61363
2573.54	4.69562
2574.91	4.5265
2576.28	4.68367
2577.65	3.96047
2579.02	3.64323
2580.39	3.73737
2581.75	3.3281
2583.12	2.39159
2584.49	2.05241
2585.85	2.66147
2587.22	2.17076
2588.59	1.75089
2589.95	1.49188
2591.32	1.79137
2592.68	0.345376
2594.05	0.360748
2595.42	0.050797
2596.78	0.0648658
2598.15	-0.0297278
2599.51	-0.206486
2600.88	-0.325724
2602.24	-0.1868
2603.6	-0.189631
2604.97	-0.112566
2606.33	-0.0520917
2607.69	-0.514788
2609.06	-0.355244
2610.42	-0.45253
2611.78	-1.04157
2613.14	-0.866739
2614.51	-0.693737
2615.87	-0.359337
2617.23	-0.0946169
2618.59	-0.0690038
2619.95	0.0955131
2621.31	-0.344471
2622.67	-0.386113
2624.03	-0.590308
2625.39	-0.276716
2626.75	0.228061
2628.11	1.39815
2629.47	1.76639
2630.83	2.93918
2632.19	3.1043
2633.55	3.79284
2634.91	2.91957
2636.26	2.29666
2637.62	2.58244
2638.98	2.45298
2640.34	2.4977
2641.69	2.77048
2643.05	3.15543
2644.41	3.32843
2645.76	3.25578
2647.12	4.65803
2648.48	4.14264
2649.83	4.54221
2651.19	4.40151
2652.54	4.84387
2653.9	5.54247
2655.25	5.75597
2656.6	6.52461
2657.96	7.14102
2659.31	7.78786
2660.67	7.37558
2662.02	8.2162
2663.37	8.19185
2664.73	8.51146
2666.08	8.3587
2667.43	8.38208
2668.78	8.39098
2670.14	7.85208
2671.49	7.69078
2672.84	8.02385
2674.19	8.05138
2675.54	8.40173
2676.89	8.11022
2678.24	7.06481
2679.59	6.55565
2680.94	7.20925
2682.29	7.20052
2683.64	6.93431
2684.99	6.96486
2686.34	7.04143
2687.69	6.8246
2689.04	7.14463
2690.39	7.91501
2691.74	8.0375
2693.08	8.49714
2694.43	8.72017
2695.78	9.45001
2697.13	9.11947
2698.47	9.63833
2699.82	9.27621
2701.17	9.7934
2702.51	10.1318
2703.86	10.8238
2705.21	11.6418
2706.55	11.4131
2707.9	11.4878
2709.24	11.0704
2710.58	11.7267
2711.93	11.3713
2713.27	11.0227
2714.62	11.1721
2715.96	10.9894
2717.3	11.8441
2718.65	11.9891
2719.99	12.2919
2721.33	12.4647
2722.68	12.5257
2724.02	13.0168
2725.36	12.7502
2726.71	12.4285
2728.05	12.3921
2729.39	11.7759
2730.73	11.1681
2732.07	10.732
2733.41	10.329
2734.75	10.2714
2736.09	9.7142
2737.43	9.51162
2738.77	9.51782
2740.11	9.20726
2741.45	9.29056
2742.79	9.00158
2744.13	8.69397
2745.47	9.02675
2746.81	8.91129
2748.14	8.41692
2749.48	8.01631
2750.82	7.92061
2752.16	7.75245
2753.49	7.49691
2754.83	6.9959
2756.17	7.08764
2757.5	6.61106
2758.84	6.89035
2760.18	6.4516
2761.51	7.02362
2762.85	7.01783
2764.18	5.66909
2765.52	5.87821
2766.85	5.78866
2768.19	6.28841
2769.52	6.06128
2770.86	5.1123
2772.19	4.60727
2773.52	3.87234
2774.86	3.62594
2776.19	3.27619
2777.52	3.21948
2778.86	2.82738
2780.19	2.68649
2781.52	3.24369
2782.85	3.05511
2784.19	2.96654
2785.52	2.76098
2786.85	2.26558
2788.18	1.60238
2789.51	1.45914
2790.84	1.07575
2792.17	0.408152
2793.5	0.211438
2794.83	0.435151
2796.16	-0.290577
2797.49	0.129782
2798.82	-0.338945
2800.15	-0.189726
2801.48	-0.334906
2802.81	-0.68031
2804.13	-0.488974
2805.46	-0.355914
2806.79	-0.139757
2808.12	0.0130515
2809.45	-0.523408
2810.77	-0.300776
2812.1	-0.974022
2813.43	-1.30665
2814.75	-1.25795
2816.08	-0.600428
2817.41	-0.066408
2818.73	-0.0921289
2820.06	1.23181
2821.38	1.97148
2822.71	3.00168
2824.03	5.39573
2825.36	7.19855
2826.68	8.50064
2828	11.3026
2829.33	12.4645
2830.65	14.2326
2831.98	17.1248
2833.3	19.0708
2834.62	21.3918
2835.94	23.7053
2837.27	26.119
2838.59	28.8801
2839.91	31.6234
2841.23	34.9609
2842.55	38.2606
2843.87	41.4072
2845.2	45.2107
2846.52	48.4506
2847.84	52.2888
2849.16	56.2946
2850.48	60.6694
2851.8	64.4098
2853.12	68.1669
2854.44	72.486
2855.76	77.3038
2857.08	81.306
2858.39	85.5706
2859.71	90.0162
2861.03	93.4394
2862.35	96.3078
2863.67	99.4046
2864.98	102.005
2866.3	105.196
2867.62	108.065
2868.94	110.63
2870.25	113.798
2871.57	116.701
2872.88	118.632
2874.2	120.779
2875.52	122.743
2876.83	124.923
2878.15	126.835
2879.46	129.561
2880.78	130.636
2882.09	132.816
2883.41	134.764
2884.72	135.98
2886.03	138.209
2887.35	139.67
2888.66	142.279
2889.97	145.004
2891.29	146.372
2892.6	148.497
2893.91	150.213
2895.22	151.694
2896.54	154.455
2897.85	156.834
2899.16	159.649
2900.47	162.804
2901.78	165.417
2903.09	168.014
2904.4	171.289
2905.71	174.704
2907.02	178.681
2908.33	182.846
2909.64	187.296
2910.95	192.005
2912.26	196.231
2913.57	201.173
2914.88	205.745
2916.19	210.443
2917.5	214.754
2918.81	218.773
2920.11	222.563
2921.42	225.702
2922.73	228.353
2924.04	230.966
2925.34	232.947
2926.65	233.635
2927.96	235.015
2929.26	236.081
2930.57	237.57
2931.87	238.625
2933.18	239.344
2934.49	238.782
2935.79	238.862
2937.1	237.499
2938.4	236.031
2939.7	234.938
2941.01	233.172
2942.31	230.858
2943.62	228.368
2944.92	225.25
2946.22	221.189
2947.53	218.431
2948.83	214.883
2950.13	210.476
2951.43	206.647
2952.74	202.322
2954.04	199.106
2955.34	194.937
2956.64	190.296
2957.94	185.61
2959.24	180.851
2960.54	177.272
2961.84	173.354
2963.15	168.748
2964.45	164.477
2965.75	159.635
2967.05	155.479
2968.34	151.586
2969.64	147.384
2970.94	143.207
2972.24	139.294
2973.54	135.177
2974.84	130.643
2976.14	126.205
2977.43	122.342
2978.73	118.729
2980.03	114.264
2981.33	110.393
2982.62	105.811
2983.92	100.978
2985.22	96.6668
2986.51	91.771
2987.81	87.7969
2989.11	83.1499
2990.4	78.9264
2991.7	74.4038
2992.99	71.2448
2994.29	67.274
2995.58	63.8792
2996.88	60.25
2998.17	55.9317
2999.46	51.5693
3000.76	47.9394
3002.05	43.7353
3003.34	40.394
3004.64	37.3977
3005.93	34.1709
3007.22	31.0314
3008.52	28.7958
3009.81	25.8441
3011.1	23.4619
3012.39	21.4798
3013.68	18.951
3014.97	16.9071
3016.27	15.9355
3017.56	14.578
3018.85	13.8835
3020.14	12.483
3021.43	10.6942
3022.72	9.90075
3024.01	9.66827
3025.3	9.76625
3026.59	8.80337
3027.88	8.30434
3029.16	7.86343
3030.45	7.40294
3031.74	7.75523
3033.03	7.47605
3034.32	7.71427
3035.6	7.97441
3036.89	7.67108
3038.18	8.40035
3039.47	8.72263
3040.75	9.67245
3042.04	10.0386
3043.33	10.4436
3044.61	10.7309
3045.9	11.5838
3047.18	12.2855
3048.47	12.5374
3049.75	13.0048
3051.04	13.686
3052.32	14.9982
3053.61	14.922
3054.89	15.5806
3056.18	15.6617
3057.46	15.5326
3058.74	15.2657
3060.03	15.3427
3061.31	14.4091
3062.59	13.6282
3063.88	13.2887
3065.16	12.1976
3066.44	11.7913
3067.72	11.1329
3069	10.9882
3070.29	10.4401
3071.57	10.072
3072.85	9.96065
3074.13	9.09546
3075.41	8.62769
3076.69	8.1184
3077.97	7.52692
3079.25	7.21722
3080.53	6.23527
3081.81	5.28523
3083.09	5.23807
3084.37	4.62876
3085.65	4.20631
3086.93	3.75857
3088.21	3.63016
3089.49	3.70502
3090.76	2.87668
3092.04	2.82255
3093.32	3.08984
3094.6	3.73072
3095.87	4.77327
3097.15	4.75359
3098.43	5.20828
3099.7	5.23045
3100.98	5.6972
3102.26	6.62749
3103.53	6.95969
3104.81	7.25712
3106.08	7.56565
3107.36	8.83052
3108.63	9.45769
3109.91	10.35
3111.18	10.7948
3112.46	11.5029
3113.73	12.6744
3115	13.9205
3116.28	14.8093
3117.55	15.5388
3118.83	16.435
3120.1	17.0711
3121.37	17.6709
3122.64	18.9836
3123.92	19.2605
3125.19	19.4459
3126.46	20.3069
3127.73	20.8519
3129	21.1063
3130.27	22.3538
3131.55	23.2078
3132.82	24.7732
3134.09	25.9817
3135.36	26.8055
3136.63	27.6084
3137.9	28.0642
3139.17	28.6964
3140.44	29.4888
3141.71	30.0836
3142.98	31.0812
3144.24	32.2787
3145.51	33.3404
3146.78	34.1673
3148.05	35.609
3149.32	36.8848
