#Acq. time (s)=	45
#Accumulations=	2
#Range (cm-¹)=	200...3150
#Windows=	2
#Auto scanning=	Off
#Autofocus=	Off
#Macrospot=	Off
#AutoExposure=	Off
#Spike filter=	Multiple accum.
#Delay time (s)=	0
#Binning=	1
#Readout mode=	Signal
#DeNoise=	Off
#ICS correction=	On
#Dark correction=	Off
#Inst. Process=	Off
#Detector Gain=	Best Dynamic Range
#Detector ADC=	20 kHz       
#Detector temperature (°C)=	-69.85
#Instrument=	LabRAM HR Evol
#Detector=	Synapse
#Objective=	x100
#Grating=	600 gr/mm
#ND Filter=	100%
#Laser (nm)=	532 
#Hole=	100.021
#Range=	Auto
#Laser Pol.=	No
#Raman. Pol.=	No
#Laser Pol. (°)=	-0.0007625
#Raman Pol. (°)=	89.9995
#Collection=	Microscope
#StageXY=	Marzhauser
#StageZ=	Marzhauser
#X (µm)=	-5126
#Y (µm)=	1482.5
#Z (µm)=	62.85
#Full time(mm:ss)=	3:19
#Project=	
#Sample=	
#Site=	
#Title=	Thy_50_12_15_2x_45s_532 nm_x100_100%_600 gr_mm
#Remark=	
#Date=	07.07.2022 10:20
#Acquired=	07.07.2022 10:20:50
#Base:Fit=	10.08.2022 10:04:29
#Base:Sub=	10.08.2022 10:04:45
#Filter:Polynom=	16.08.2022 10:20:24
#AxisType[0]=Intens
#AxisUnit[0]=Cnt
#AxisType[1]=Spectr
#AxisUnit[1]=1/cm
200.43	-4.35993
202.246	-1.81651
204.061	0.608089
205.875	1.47149
207.688	2.18344
209.501	2.53658
211.316	2.94414
213.129	3.92815
214.941	3.36748
216.753	3.91465
218.566	4.36811
220.377	4.23885
222.188	4.13598
223.999	5.11806
225.809	5.25262
227.618	5.49933
229.43	4.85767
231.239	5.36731
233.047	5.62473
234.855	5.681
236.663	5.58579
238.471	5.24304
240.278	5.51855
242.087	6.06099
243.894	6.26977
245.7	5.53674
247.506	5.78271
249.311	6.07023
251.116	5.20794
252.921	4.24576
254.725	4.43503
256.529	4.62796
258.333	3.56728
260.136	3.5407
261.939	3.162
263.744	2.92339
265.546	3.64743
267.348	3.21994
269.15	3.03907
270.951	3.80726
272.752	3.12097
274.552	3.19004
276.353	2.96934
278.152	2.49812
279.952	2.74601
281.751	2.06911
283.55	2.90762
285.348	2.85016
287.146	3.86763
288.942	3.69471
290.739	3.37393
292.536	2.44148
294.333	2.53673
296.129	3.67764
297.925	3.85298
299.721	3.57975
301.516	4.4862
303.311	4.98377
305.106	4.96533
306.9	6.49832
308.694	6.82847
310.486	6.67044
312.279	7.63285
314.072	8.06572
315.864	7.96593
317.656	7.88352
319.448	7.47195
321.24	8.45136
323.029	8.52132
324.819	8.59554
326.61	8.64792
328.4	8.3535
330.19	9.38068
331.977	9.4956
333.766	9.35244
335.555	8.95484
337.343	9.88002
339.131	9.17632
340.917	8.47203
342.704	8.79136
344.491	9.12479
346.277	9.6229
348.062	9.53234
349.848	9.26218
351.633	9.30277
353.416	9.88167
355.201	10.1697
356.986	9.6954
358.77	10.0203
360.552	10.575
362.335	9.91266
364.118	9.30183
365.899	9.4242
367.682	9.6815
369.464	10.8145
371.243	10.573
373.025	11.789
374.806	11.9058
376.585	11.9621
378.365	11.6304
380.143	11.7557
381.923	11.5404
383.702	11.9155
385.479	11.8188
387.258	11.4252
389.034	12.2298
390.812	13.5366
392.59	13.8409
394.365	13.7037
396.142	12.8006
397.916	12.7391
399.693	13.0012
401.467	12.8995
403.242	12.583
405.015	12.1838
406.79	11.4445
408.565	10.5555
410.337	10.1615
412.111	9.97786
413.882	8.79646
415.656	7.78425
417.426	7.6008
419.197	8.23408
420.969	7.32027
422.739	6.81088
424.51	6.59285
426.279	5.80858
428.05	5.20381
429.819	5.46338
431.589	4.8594
433.356	4.57881
435.124	5.07925
436.893	4.35017
438.66	4.80538
440.428	5.77964
442.194	6.13465
443.96	6.02408
445.727	5.72575
447.492	5.47718
449.259	4.91576
451.023	4.03253
452.787	3.85312
454.553	4.74725
456.316	4.9142
458.079	4.80962
459.844	5.10726
461.606	5.05616
463.368	5.77037
465.132	5.63352
466.893	5.41282
468.654	6.209
470.415	7.28507
472.177	9.03865
473.937	10.0026
475.696	11.0264
477.456	11.8976
479.217	11.8828
480.975	12.1233
482.733	12.1011
484.491	12.2896
486.251	12.6651
488.008	12.4343
489.765	11.4618
491.522	12.0477
493.278	11.3192
495.036	10.7749
496.791	10.2894
498.546	10.9231
500.301	10.8441
502.056	10.3998
503.81	11.0289
505.566	11.9251
507.319	11.8452
509.073	12.5025
510.825	12.7823
512.578	12.5861
514.33	12.2932
516.082	13.154
517.833	13.2371
519.587	13.4392
521.337	15.2801
523.088	16.3417
524.838	15.8531
526.588	16.544
528.337	15.9798
530.087	15.1774
531.835	15.0907
533.584	14.7087
535.332	14.5702
537.08	15.2407
538.827	15.9072
540.574	16.1919
542.321	16.1875
544.068	15.385
545.814	15.3815
547.56	16.4588
549.305	15.9288
551.05	16.1816
552.795	15.7986
554.54	15.1743
556.284	15.7029
558.027	15.2452
559.771	14.7394
561.514	14.0527
563.257	13.4917
564.999	12.6353
566.742	12.9247
568.481	12.4205
570.223	11.8728
571.964	11.1674
573.705	10.3539
575.445	9.89477
577.185	9.3666
578.925	10.2668
580.665	9.25378
582.402	8.24981
584.141	8.33938
585.879	8.38752
587.617	7.84169
589.355	8.1121
591.092	8.2079
592.828	8.05849
594.564	7.89356
596.301	8.47634
598.037	8.048
599.773	8.83419
601.506	9.81591
603.242	10.6045
604.976	10.9565
606.711	11.7801
608.443	12.6538
610.177	12.1669
611.91	12.9074
613.644	13.1327
615.374	13.0309
617.107	12.8134
618.839	13.7653
620.569	14.2082
622.3	15.2638
624.032	15.6983
625.761	15.3763
627.491	15.3554
629.221	15.3528
630.949	15.3446
632.679	16.2031
634.408	16.3953
636.135	16.1716
637.863	16.2467
639.592	15.9257
641.318	16.4731
643.045	17.979
644.77	18.1221
646.497	18.2179
648.224	18.5924
649.948	18.3478
651.674	18.522
653.398	19.2901
655.123	19.064
656.846	18.9072
658.57	18.0165
660.293	17.4432
662.017	16.9718
663.738	17.207
665.462	17.8717
667.185	18.1059
668.905	19.2315
670.628	19.9568
672.348	20.8347
674.067	21.9267
675.789	22.3602
677.508	23.0969
679.228	24.1705
680.947	25.2311
682.667	26.8102
684.385	27.3182
686.104	28.262
687.821	28.5026
689.538	28.7062
691.256	28.6948
692.972	29.5423
694.69	30.8972
696.406	32.0707
698.121	33.5703
699.837	34.2955
701.552	34.9252
703.268	35.7706
704.982	37.0581
706.695	38.122
708.41	39.0115
710.123	39.3108
711.836	40.6463
713.55	42.4867
715.262	42.7103
716.973	42.9984
718.685	44.0221
720.398	45.3896
722.108	45.6605
723.818	46.4174
725.53	48.1898
727.24	48.2366
728.949	48.4074
730.658	48.2836
732.369	49.0116
734.077	48.8117
735.785	48.6204
737.493	49.3494
739.2	50.0572
740.909	50.8109
742.616	50.5009
744.322	50.7166
746.028	52.2376
747.734	53.655
749.441	55.8806
751.146	57.209
752.851	58.0108
754.555	58.4192
756.26	58.6417
757.963	60.9498
759.667	61.6111
761.372	61.4426
763.075	62.691
764.777	63.5871
766.479	64.7305
768.181	66.0249
769.883	66.2992
771.584	66.7026
773.285	67.2049
774.986	67.9184
776.686	68.641
778.386	70.2735
780.085	71.5036
781.785	72.7125
783.484	73.8014
785.182	74.0144
786.881	73.4473
788.579	74.7596
790.276	75.115
791.974	76.6032
793.671	77.1182
795.367	78.1414
797.064	79.0242
798.76	79.9452
800.456	79.9179
802.151	81.1985
803.846	82.0613
805.541	82.0419
807.236	81.9756
808.93	82.096
810.624	82.4127
812.317	80.6026
814.01	81.2982
815.703	80.1998
817.394	79.3914
819.086	78.651
820.778	77.7163
822.47	78.1902
824.161	78.0943
825.852	77.687
827.543	76.5654
829.231	75.6736
830.921	74.6522
832.611	73.3415
834.3	72.6773
835.989	71.9007
837.676	70.9767
839.364	70.1297
841.053	69.396
842.74	68.8279
844.426	67.6586
846.113	66.5368
847.8	66.1303
849.486	64.5417
851.171	63.1021
852.857	61.7659
854.542	60.7006
856.227	59.7631
857.911	60.0209
859.595	59.4449
861.279	58.4872
862.961	59.0045
864.645	58.2138
866.329	57.3623
868.01	57.0915
869.692	55.7589
871.375	55.4446
873.055	55.531
874.737	54.9421
876.418	55.4682
878.097	54.3522
879.778	54.3518
881.457	54.2366
883.137	54.0649
884.817	54.0757
886.495	53.3126
888.174	52.6978
889.851	52.5323
891.53	52.4858
893.206	51.3163
894.884	51.7335
896.562	50.5062
898.237	49.108
899.914	47.9148
901.589	48.3567
903.265	48.1733
904.94	48.3434
906.615	49.768
908.289	49.9152
909.964	50.1472
911.637	49.3312
913.31	48.8681
914.984	48.5342
916.656	48.3937
918.33	48.1332
920.001	47.4148
921.674	45.4776
923.345	44.8239
925.015	44.2332
926.687	43.116
928.357	42.7031
930.028	41.3137
931.698	40.1278
933.366	39.363
935.037	39.0362
936.705	39.2183
938.373	38.4479
940.043	37.2704
941.71	36.5368
943.379	34.7507
945.046	34.9447
946.712	34.2645
948.378	33.5622
950.046	33.6299
951.711	34.8336
953.376	34.8668
955.043	34.8904
956.708	33.7734
958.372	32.9617
960.036	32.5985
961.701	32.7477
963.364	33.1238
965.027	33.2527
966.69	32.4951
968.354	32.6924
970.016	31.5271
971.678	31.1308
973.339	31.3506
975	31.2473
976.661	31.2353
978.324	31.0788
979.984	30.2174
981.644	30.1909
983.303	31.895
984.962	32.2754
986.621	32.2594
988.282	33.0493
989.94	33.0604
991.598	32.8625
993.256	33.285
994.913	31.8444
996.57	30.5572
998.227	30.4143
999.884	29.7225
1001.54	29.6291
1003.2	29.0742
1004.85	28.6054
1006.51	28.9465
1008.16	28.9376
1009.82	29.0352
1011.47	29.1229
1013.12	28.7182
1014.78	28.0198
1016.43	27.9845
1018.08	26.5816
1019.74	25.5926
1021.39	25.8135
1023.04	26.184
1024.69	26.8419
1026.34	27.0484
1028	28.3748
1029.65	28.5977
1031.3	30.2886
1032.95	30.1797
1034.6	30.9363
1036.25	31.105
1037.9	30.2617
1039.55	30.1301
1041.19	29.7078
1042.84	29.9837
1044.49	29.2702
1046.14	27.8188
1047.79	26.428
1049.43	25.8766
1051.08	25.9647
1052.73	25.5657
1054.37	25.1626
1056.02	24.8425
1057.66	23.4638
1059.31	22.9485
1060.95	21.7657
1062.6	21.385
1064.24	21.3629
1065.88	20.0599
1067.53	18.8667
1069.17	19.4022
1070.81	18.9213
1072.46	18.4049
1074.1	18.0613
1075.74	17.9315
1077.38	16.3149
1079.02	16.4591
1080.66	18.1586
1082.3	17.5897
1083.94	18.3334
1085.58	17.7615
1087.22	18.1566
1088.86	18.6142
1090.5	18.217
1092.14	17.4231
1093.78	16.5097
1095.42	15.7633
1097.05	14.825
1098.69	14.9341
1100.33	14.6159
1101.97	14.467
1103.6	15.2844
1105.24	15.3911
1106.87	15.3334
1108.51	14.7451
1110.15	14.5752
1111.78	14.8719
1113.41	14.706
1115.05	13.6644
1116.68	13.3783
1118.31	12.2703
1119.95	11.1479
1121.58	9.8665
1123.21	7.99865
1124.85	7.63197
1126.48	5.43749
1128.11	4.99936
1129.74	5.59817
1131.37	5.55072
1133	4.78354
1134.63	4.35571
1136.26	3.53785
1137.89	2.82612
1139.52	2.52061
1141.15	2.2336
1142.78	1.20322
1144.41	1.29446
1146.04	1.17164
1147.66	0.948517
1149.29	1.16019
1150.92	1.70381
1152.55	1.98418
1154.17	2.24602
1155.8	3.2311
1157.43	3.81876
1159.05	4.3198
1160.68	5.97315
1162.3	6.88269
1163.93	6.42092
1165.55	7.023
1167.17	6.70904
1168.8	7.11933
1170.42	7.14369
1172.05	7.08077
1173.67	7.48249
1175.29	6.85505
1176.91	6.53297
1178.54	6.0175
1180.16	6.62164
1181.78	6.1228
1183.4	6.324
1185.02	6.832
1186.64	6.22108
1188.26	5.43216
1189.88	5.64695
1191.5	5.25961
1193.12	4.53766
1194.74	4.2058
1196.36	3.24383
1197.97	2.99535
1199.59	3.47312
1201.21	3.30842
1202.83	3.24746
1204.44	3.84866
1206.06	4.81657
1207.68	4.76887
1209.29	6.49571
1210.91	6.94028
1212.52	6.9994
1214.14	7.67963
1215.75	7.44115
1217.37	8.01547
1218.98	8.91388
1220.6	10.1727
1222.21	10.8569
1223.82	11.9697
1225.44	13.1723
1227.05	14.3185
1228.66	15.207
1230.27	15.2574
1231.88	17.4233
1233.49	18.191
1235.1	18.325
1236.72	19.7396
1238.33	21.034
1239.94	21.8228
1241.55	22.5941
1243.16	23.579
1244.76	24.1902
1246.37	24.4952
1247.98	25.3449
1249.59	26.2027
1251.2	27.2799
1252.8	27.7085
1254.41	28.9259
1256.02	29.3284
1257.63	30.5521
1259.23	32.1788
1260.84	34.0371
1262.44	34.4751
1264.05	35.5639
1265.66	35.7551
1267.26	36.1436
1268.87	37.0706
1270.47	37.887
1272.07	37.0998
1273.68	38.3353
1275.28	40.069
1276.88	40.8177
1278.48	43.2268
1280.09	44.4845
1281.69	45.0207
1283.29	46.4834
1284.89	47.1193
1286.49	48.8723
1288.09	48.9137
1289.69	49.5078
1291.3	49.5727
1292.9	50.1685
1294.49	50.5298
1296.09	50.6668
1297.69	51.3374
1299.29	50.4583
1300.89	49.9194
1302.49	49.4869
1304.09	50.0577
1305.68	49.3096
1307.28	49.0793
1308.88	48.2667
1310.47	47.5177
1312.07	47.9243
1313.66	46.2723
1315.26	46.4015
1316.86	46.1213
1318.45	45.9629
1320.05	44.9153
1321.64	45.1899
1323.23	45.1282
1324.83	44.786
1326.42	43.9654
1328.01	44.1103
1329.61	44.7592
1331.2	45.5714
1332.79	45.7621
1334.38	45.9682
1335.98	45.0055
1337.57	44.4935
1339.16	43.7955
1340.75	42.4872
1342.34	41.6481
1343.93	41.5058
1345.52	41.1004
1347.11	40.4417
1348.7	39.6872
1350.29	39.256
1351.87	38.9835
1353.46	39.2875
1355.05	38.3061
1356.64	38.4527
1358.23	38.179
1359.81	36.9807
1361.4	36.0811
1362.99	35.8978
1364.57	35.54
1366.16	36.5512
1367.74	34.3731
1369.33	33.8891
1370.91	33.1772
1372.5	32.4281
1374.08	32.1291
1375.67	31.2028
1377.25	30.2458
1378.83	29.6459
1380.42	30.1052
1382	30.129
1383.58	29.8482
1385.16	27.5615
1386.75	27.0213
1388.33	25.7961
1389.91	24.7624
1391.49	24.3136
1393.07	22.9515
1394.65	22.959
1396.23	21.7853
1397.81	21.4504
1399.39	21.6523
1400.97	21.6629
1402.55	21.5882
1404.13	22.6233
1405.7	22.6651
1407.28	23.1879
1408.86	23.4029
1410.44	23.0068
1412.01	23.1276
1413.59	23.0944
1415.17	23.7661
1416.74	23.843
1418.32	24.5763
1419.89	25.7969
1421.47	27.8696
1423.05	28.461
1424.62	29.7939
1426.19	30.755
1427.77	32.7783
1429.34	34.5722
1430.92	36.1931
1432.49	37.6637
1434.06	39.148
1435.63	41.5307
1437.2	42.4881
1438.78	45.0803
1440.35	46.2214
1441.92	48.0805
1443.49	49.5215
1445.06	51.3097
1446.63	51.027
1448.2	52.1507
1449.77	52.9791
1451.34	53.695
1452.91	54.8589
1454.48	54.6166
1456.05	54.32
1457.62	53.7033
1459.18	52.7622
1460.75	51.3244
1462.32	49.5391
1463.89	47.1126
1465.45	46.394
1467.02	44.9264
1468.59	43.3854
1470.15	41.7101
1471.72	39.5489
1473.28	37.5987
1474.85	35.8871
1476.41	35.2852
1477.98	33.7268
1479.54	31.8685
1481.11	30.9729
1482.67	29.0809
1484.23	26.3502
1485.8	24.347
1487.36	23.0858
1488.92	22.4404
1490.48	20.6498
1492.05	18.9128
1493.61	16.9671
1495.17	16.1014
1496.73	15.7331
1498.29	14.5066
1499.85	13.8477
1501.41	12.7965
1502.97	13.7535
1504.53	13.4592
1506.09	14.0777
1507.65	13.5284
1509.2	13.7257
1510.76	13.706
1512.32	13.7853
1513.88	13.9969
1515.44	14.2826
1516.99	14.4706
1518.55	13.8951
1520.1	15.5887
1521.66	16.5701
1523.22	17.5912
1524.77	17.9025
1526.33	18.8522
1527.88	20.2717
1529.44	21.4572
1530.99	22.5563
1532.55	23.3014
1534.1	24.2306
1535.65	24.7265
1537.21	25.8473
1538.76	27.1613
1540.31	28.8539
1541.86	31.5233
1543.42	33.65
1544.97	35.6421
1546.52	37.4283
1548.07	39.3357
1549.62	41.914
1551.17	44.4388
1552.72	47.5073
1554.27	50.2666
1555.82	50.7562
1557.37	52.1679
1558.92	54.0504
1560.47	55.2128
1562.02	56.3507
1563.57	58.3477
1565.11	59.5745
1566.66	60.0539
1568.21	60.1209
1569.75	60.9728
1571.3	61.9208
1572.85	63.7528
1574.39	64.0568
1575.94	64.4096
1577.49	65.8367
1579.03	66.4191
1580.58	66.3984
1582.12	65.2861
1583.67	65.0347
1585.21	64.5257
1586.75	63.9521
1588.3	63.0094
1589.84	62.2396
1591.38	61.6191
1592.93	61.2231
1594.47	60.2046
1596.01	60.2124
1597.55	59.5615
1599.09	57.4253
1600.63	56
1602.18	54.6873
1603.72	53.2492
1605.26	52.8184
1606.8	51.7127
1608.34	51.6403
1609.87	51.1204
1611.41	50.0451
1612.95	48.9652
1614.49	49.0925
1616.03	48.6656
1617.57	49.3571
1619.11	50.0533
1620.64	49.7176
1622.18	49.9144
1623.72	50.8866
1625.25	51.9193
1626.79	53.0589
1628.32	53.9655
1629.86	53.5406
1631.4	53.9569
1632.93	53.4651
1634.47	54.4969
1636	54.9073
1637.53	55.1364
1639.07	54.8181
1640.6	55.7329
1642.14	55.8042
1643.67	56.5711
1645.2	56.8928
1646.73	57.4619
1648.27	58.5714
1649.8	58.3718
1651.33	57.6529
1652.86	58.0852
1654.39	58.4391
1655.92	57.8392
1657.45	57.2888
1658.98	56.8049
1660.51	56.0495
1662.04	55.7821
1663.57	55.043
1665.1	54.0632
1666.63	52.6925
1668.16	51.3862
1669.69	49.7754
1671.21	47.9167
1672.74	45.4654
1674.27	42.7459
1675.79	40.3502
1677.32	38.5281
1678.85	36.97
1680.37	35.0159
1681.9	33.4716
1683.42	31.5681
1684.95	30.5652
1686.47	27.8957
1688	25.5715
1689.52	24.0186
1691.05	22.538
1692.57	21.1931
1694.1	20.0396
1695.62	18.6996
1697.14	16.8651
1698.66	16.0981
1700.19	15.8236
1701.71	14.4168
1703.23	12.7852
1704.75	11.9398
1706.27	10.4363
1707.79	10.5874
1709.32	9.59712
1710.83	8.44521
1712.35	7.71571
1713.88	7.72918
1715.39	6.81716
1716.91	7.29784
1718.43	7.39036
1719.95	6.89563
1721.47	6.3448
1722.99	6.39906
1724.5	6.12023
1726.02	5.79976
1727.54	6.16912
1729.06	7.44606
1730.57	6.99321
1732.09	6.06208
1733.61	5.64259
1735.12	4.97547
1736.64	4.67721
1738.15	5.21272
1739.67	5.02891
1741.18	4.20475
1742.7	3.79504
1744.21	3.59293
1745.72	3.41551
1747.24	3.2595
1748.75	2.57079
1750.26	2.52882
1751.78	2.68046
1753.29	2.74829
1754.8	2.94273
1756.31	2.64333
1757.82	2.85062
1759.34	3.62503
1760.85	3.92315
1762.36	3.43966
1763.87	3.5767
1765.38	3.36419
1766.89	3.17247
1768.4	3.675
1769.91	2.86981
1771.41	2.93661
1772.92	2.68415
1774.43	2.50885
1775.94	1.27273
1777.45	1.31727
1778.96	1.90666
1780.46	2.57616
1781.97	2.77211
1783.48	3.1899
1784.98	3.36693
1786.49	3.5293
1788	4.11383
1789.5	4.07984
1791.01	4.16019
1792.51	4.88563
1794.01	5.54077
1795.52	5.59798
1797.02	6.39265
1798.53	6.51048
1800.03	6.36888
1801.54	6.96541
1803.04	7.2268
1804.54	7.31942
1806.04	6.85783
1807.54	6.96568
1809.05	7.41655
1810.55	7.97463
1812.05	8.56801
1813.55	8.54231
1815.05	8.69329
1816.55	8.47109
1818.05	8.3724
1819.55	8.30823
1821.05	8.27131
1822.55	7.87465
1824.05	7.77592
1825.55	7.55082
1827.05	7.45187
1828.55	7.41378
1830.04	7.75992
1831.54	7.90938
1833.04	7.82287
1834.54	7.68632
1836.03	6.85727
1837.53	6.38094
1839.03	5.90192
1840.52	5.32826
1842.02	5.12819
1843.51	4.67155
1845.01	3.46369
1846.5	2.80197
1848	2.57981
1849.49	2.72157
1850.99	3.06983
1852.48	4.10911
1853.97	4.73037
1855.47	4.94649
1856.96	5.60827
1858.45	5.86327
1859.94	6.20799
1861.44	6.10516
1862.93	6.21058
1864.42	6.18768
1865.91	5.77879
1867.4	6.26954
1868.89	6.33286
1870.38	5.80694
1871.87	4.90068
1873.36	4.44982
1874.85	3.82894
1876.34	3.64467
1877.83	3.21197
1879.32	3.33536
1880.81	2.96626
1882.3	2.91184
1882.56	2.95754
1884.06	3.25646
1885.55	2.59757
1887.04	2.37742
1888.54	1.9469
1890.03	1.68542
1891.52	1.67245
1893.02	2.32553
1894.51	2.03921
1896	2.47472
1897.49	3.09248
1898.99	3.37954
1900.48	3.56462
1901.97	3.55508
1903.46	3.78816
1904.95	4.36533
1906.44	4.89761
1907.93	5.35552
1909.42	5.97254
1910.91	6.87824
1912.4	6.83659
1913.89	7.36653
1915.38	7.47508
1916.86	8.03759
1918.35	7.82418
1919.84	8.3849
1921.33	8.96061
1922.82	9.62155
1924.3	9.68801
1925.79	9.98518
1927.28	10.1172
1928.76	9.64765
1930.25	9.50288
1931.74	9.11708
1933.22	8.94015
1934.71	8.67026
1936.19	8.67781
1937.67	8.19904
1939.16	7.41695
1940.64	7.09835
1942.13	6.41117
1943.61	5.36936
1945.09	4.93627
1946.58	5.23954
1948.06	4.82
1949.54	4.46963
1951.03	4.49117
1952.51	4.51263
1953.99	4.54744
1955.47	4.76501
1956.95	4.87438
1958.43	4.65089
1959.91	4.15913
1961.39	4.44131
1962.87	4.84893
1964.35	5.46795
1965.83	5.8623
1967.31	6.57166
1968.79	6.18374
1970.27	7.18667
1971.75	7.24111
1973.22	6.87976
1974.7	6.34206
1976.18	6.99505
1977.66	7.28182
1979.13	8.20047
1980.61	8.34198
1982.09	8.60816
1983.56	8.83893
1985.04	8.29122
1986.52	8.40189
1987.99	8.96977
1989.47	8.63338
1990.94	8.60743
1992.41	8.2302
1993.89	8.08856
1995.36	7.55924
1996.84	7.45531
1998.31	7.49313
1999.78	7.07473
2001.26	7.16411
2002.73	7.439
2004.2	7.88996
2005.67	7.83378
2007.15	8.04994
2008.62	7.86009
2010.09	7.45288
2011.56	7.01502
2013.03	6.11667
2014.5	5.67512
2015.97	6.38404
2017.44	6.3322
2018.91	7.10424
2020.38	6.64785
2021.85	6.10034
2023.32	6.30209
2024.79	6.63751
2026.25	6.95177
2027.72	7.81278
2029.19	7.5842
2030.66	7.66229
2032.13	7.62755
2033.59	8.32673
2035.06	8.71809
2036.53	9.31522
2037.99	8.7416
2039.46	8.65461
2040.92	9.34631
2042.39	9.13004
2043.85	9.54478
2045.32	9.77816
2046.78	9.87581
2048.25	10.5293
2049.71	11.3803
2051.18	11.5289
2052.64	12.9433
2054.1	13.3506
2055.56	14.1771
2057.03	15.0741
2058.49	15.4851
2059.95	16.406
2061.42	16.5672
2062.88	16.6583
2064.34	17.0411
2065.8	17.3049
2067.26	17.6285
2068.72	18.0015
2070.18	18.8948
2071.64	19.4985
2073.1	19.9779
2074.56	20.1769
2076.02	20.336
2077.48	20.9537
2078.94	21.2688
2080.39	21.8141
2081.85	21.5485
2083.31	21.6977
2084.77	22.0111
2086.22	22.3065
2087.68	22.4562
2089.14	23.2733
2090.6	23.0636
2092.05	22.9497
2093.51	22.855
2094.96	23.34
2096.42	24.1739
2097.87	24.2657
2099.33	24.981
2100.78	25.4509
2102.24	25.4371
2103.69	26.0304
2105.15	26.9467
2106.6	28.0228
2108.05	28.5865
2109.51	29.4615
2110.96	30.3279
2112.41	32.1253
2113.86	33.8711
2115.32	34.6698
2116.77	35.9575
2118.22	37.5092
2119.67	38.3903
2121.12	39.3505
2122.57	40.4823
2124.02	42.1176
2125.47	44.6168
2126.92	46.6621
2128.37	48.2688
2129.82	49.7323
2131.27	50.5337
2132.72	52.2174
2134.17	53.6789
2135.62	55.1023
2137.06	56.0787
2138.51	57.3736
2139.96	58.8809
2141.41	60.4449
2142.85	62.171
2144.3	64.1
2145.75	65.2344
2147.19	66.3165
2148.64	68.1982
2150.09	69.3025
2151.53	69.8453
2152.97	70.4551
2154.42	71.6511
2155.86	72.1367
2157.31	72.8484
2158.75	74.0084
2160.2	74.1921
2161.64	75.4398
2163.08	75.6655
2164.53	76.2998
2165.97	76.1298
2167.41	75.8895
2168.86	75.9818
2170.3	75.9943
2171.74	75.5816
2173.18	75.0562
2174.62	74.5208
2176.06	73.941
2177.5	73.856
2178.94	72.9705
2180.38	71.7243
2181.82	70.8816
2183.26	70.0566
2184.7	69.1313
2186.14	67.7467
2187.58	66.5682
2189.02	65.8308
2190.46	64.7073
2191.89	63.3967
2193.33	62.4596
2194.77	62.073
2196.21	61.3302
2197.64	61.1341
2199.08	60.1485
2200.52	58.7259
2201.95	57.483
2203.39	56.9096
2204.83	55.6901
2206.26	54.143
2207.7	52.8932
2209.13	51.6192
2210.57	51.4196
2212	50.8385
2213.43	50.0693
2214.87	49.1348
2216.3	48.0816
2217.73	46.3821
2219.17	46.5295
2220.6	45.4321
2222.03	44.7239
2223.47	44.0093
2224.9	44.1732
2226.33	43.6638
2227.76	42.2924
2229.19	41.6809
2230.62	40.3846
2232.05	39.1149
2233.49	38.2683
2234.91	37.1311
2236.34	35.9125
2237.77	33.9451
2239.2	32.9056
2240.63	32.5288
2242.06	31.831
2243.49	29.9847
2244.92	29.326
2246.35	28.4407
2247.78	27.166
2249.2	26.1126
2250.63	25.2346
2252.06	24.9197
2253.48	24.4966
2254.91	23.8328
2256.34	23.2795
2257.76	22.7772
2259.19	22.3812
2260.61	21.6601
2262.04	21.1732
2263.46	20.6588
2264.89	20.2546
2266.31	20.449
2267.74	20.4081
2269.16	20.3252
2270.59	19.1304
2272.01	18.3252
2273.43	18.004
2274.85	17.8693
2276.28	16.9358
2277.7	17.0642
2279.12	16.8821
2280.54	16.6393
2281.97	16.8883
2283.39	16.2085
2284.81	15.5671
2286.23	15.5016
2287.65	15.0747
2289.07	14.7013
2290.49	14.3288
2291.91	13.458
2293.33	13.1341
2294.75	12.5131
2296.17	12.9878
2297.59	12.0391
2299.01	11.8194
2300.42	11.7185
2301.84	11.3579
2303.26	12.2149
2304.68	12.4224
2306.1	12.4188
2307.51	11.9094
2308.93	11.6725
2310.35	11.4121
2311.76	11.2605
2313.18	10.891
2314.59	10.5085
2316.01	10.7386
2317.43	10.026
2318.84	9.34409
2320.26	9.51391
2321.67	9.91439
2323.08	10.1806
2324.5	9.44815
2325.91	9.63311
2327.33	9.39554
2328.74	9.09818
2330.15	8.76931
2331.56	8.65571
2332.98	8.64755
2334.39	9.23569
2335.8	9.56794
2337.21	9.66512
2338.62	9.12196
2340.04	9.06581
2341.45	9.15882
2342.86	9.72252
2344.27	9.31114
2345.68	8.49388
2347.09	8.20126
2348.5	7.735
2349.91	6.82596
2351.31	6.65405
2352.72	6.60496
2354.13	5.85616
2355.54	5.57594
2356.95	5.71499
2358.36	5.05673
2359.76	4.43918
2361.17	4.25664
2362.58	4.16254
2363.98	4.51335
2365.39	5.33386
2366.8	5.57971
2368.21	5.16265
2369.61	5.17826
2371.02	5.59795
2372.42	5.01377
2373.83	5.1421
2375.23	4.28502
2376.64	3.6688
2378.04	3.36136
2379.44	3.00636
2380.85	2.50872
2382.25	2.59179
2383.66	2.91924
2385.06	2.33106
2386.46	2.30095
2387.86	2.61892
2389.26	3.13523
2390.67	3.96157
2392.07	3.92636
2393.47	4.25093
2394.87	3.80563
2396.27	4.3944
2397.67	4.17712
2399.07	4.24768
2400.47	4.82877
2401.87	5.22841
2403.27	5.43415
2404.67	6.22296
2406.07	6.04637
2407.47	6.05624
2408.87	6.62285
2410.27	7.6389
2411.67	7.54518
2413.07	7.82448
2414.46	6.95245
2415.86	6.69361
2417.26	7.02758
2418.66	6.75441
2420.05	7.1258
2421.45	8.0848
2422.84	8.0064
2424.24	7.9504
2425.64	8.06912
2427.03	7.87156
2428.43	7.287
2429.82	6.9459
2431.22	7.23607
2432.61	7.13886
2434.01	7.35588
2435.4	7.43041
2436.79	6.97723
2438.19	6.28883
2439.58	5.68458
2440.97	5.09879
2442.37	4.3945
2443.76	4.04425
2445.15	3.7246
2446.54	4.13089
2447.93	3.48947
2449.33	3.01868
2450.72	2.87902
2452.11	3.16845
2453.5	3.61701
2454.89	3.3016
2456.28	3.82075
2457.67	3.87453
2459.06	3.97481
2460.45	3.82079
2461.84	3.74978
2463.23	4.04034
2464.62	4.20148
2466	4.23216
2467.39	4.19699
2468.78	4.32348
2470.17	4.66859
2471.55	4.36217
2472.94	4.71103
2474.33	4.90448
2475.72	4.60644
2477.1	4.52907
2478.49	5.53053
2479.87	5.9161
2481.26	5.88394
2482.65	6.00395
2484.03	5.33209
2485.42	5.46409
2486.8	6.13479
2488.19	6.36135
2489.57	6.85961
2490.95	6.8078
2492.34	6.39503
2493.72	6.36589
2495.1	5.99734
2496.49	5.62585
2497.87	5.76288
2499.25	4.97286
2500.63	5.16793
2502.02	4.39778
2503.4	3.86271
2504.78	3.22896
2506.16	2.72381
2507.54	1.70044
2508.92	2.06245
2510.3	2.17773
2511.68	1.84457
2513.06	1.35422
2514.44	1.07016
2515.82	0.573264
2517.2	-0.268495
2518.58	-0.230745
2519.96	-0.183191
2521.34	0.341173
2522.72	0.554893
2524.1	0.295772
2525.47	0.652195
2526.85	0.624601
2528.23	0.769198
2529.6	0.10595
2530.98	0.373316
2532.36	0.392749
2533.74	0.29302
2535.11	-0.248233
2536.49	0.00815601
2537.86	-0.0121277
2539.24	-0.215743
2540.61	-0.545001
2541.99	0.119043
2543.36	0.682888
2544.74	1.10551
2546.11	1.85276
2547.49	2.38836
2548.86	2.04794
2550.23	2.38497
2551.61	2.23332
2552.98	2.08821
2554.35	2.56868
2555.72	2.80589
2557.09	3.13679
2558.47	3.94671
2559.84	3.86185
2561.21	3.81383
2562.58	3.66111
2563.95	3.40035
2565.32	3.12875
2566.69	3.37889
2568.06	2.82251
2569.43	3.10402
2570.8	2.40558
2572.17	2.25239
2573.54	2.66092
2574.91	3.01762
2576.28	2.48757
2577.65	2.98533
2579.02	2.18903
2580.39	1.66169
2581.75	1.88403
2583.12	1.70072
2584.49	1.66689
2585.85	2.16922
2587.22	2.47177
2588.59	2.59524
2589.95	3.14146
2591.32	2.94151
2592.68	3.02288
2594.05	2.84773
2595.42	2.92366
2596.78	3.49728
2598.15	3.44021
2599.51	3.64762
2600.88	3.22278
2602.24	2.9365
2603.6	3.01362
2604.97	3.27611
2606.33	3.45071
2607.69	3.39662
2609.06	3.85464
2610.42	4.77227
2611.78	4.75851
2613.14	3.7865
2614.51	3.86329
2615.87	3.74353
2617.23	3.43359
2618.59	3.43363
2619.95	3.66455
2621.31	4.15009
2622.67	4.43449
2624.03	4.61286
2625.39	5.14759
2626.75	5.24505
2628.11	4.95194
2629.47	5.09742
2630.83	5.16137
2632.19	4.57732
2633.55	4.60574
2634.91	4.78613
2636.26	4.40359
2637.62	4.48546
2638.98	4.46845
2640.34	4.49287
2641.69	4.76874
2643.05	4.57194
2644.41	4.26357
2645.76	4.57426
2647.12	4.39377
2648.48	4.76423
2649.83	4.77826
2651.19	5.07191
2652.54	5.1658
2653.9	5.82634
2655.25	5.92586
2656.6	5.74312
2657.96	6.21267
2659.31	6.22171
2660.67	5.90534
2662.02	5.77396
2663.37	6.11726
2664.73	6.05315
2666.08	5.72464
2667.43	5.37354
2668.78	4.78564
2670.14	4.62387
2671.49	4.5539
2672.84	4.56855
2674.19	4.61962
2675.54	4.02454
2676.89	3.95262
2678.24	3.99491
2679.59	3.22966
2680.94	2.48346
2682.29	2.31672
2683.64	2.31064
2684.99	2.31815
2686.34	2.67627
2687.69	3.01904
2689.04	3.18542
2690.39	2.85262
2691.74	3.1769
2693.08	3.81611
2694.43	4.56893
2695.78	4.50925
2697.13	4.24389
2698.47	3.80028
2699.82	3.57701
2701.17	3.9055
2702.51	3.7875
2703.86	3.95961
2705.21	4.40245
2706.55	4.00943
2707.9	3.99812
2709.24	4.4574
2710.58	4.51975
2711.93	5.04174
2713.27	5.24543
2714.62	5.14456
2715.96	5.35505
2717.3	5.47186
2718.65	5.92996
2719.99	5.65958
2721.33	5.91496
2722.68	5.5437
2724.02	5.16568
2725.36	4.99228
2726.71	4.90635
2728.05	5.30709
2729.39	5.91055
2730.73	5.79547
2732.07	5.60447
2733.41	5.24203
2734.75	4.61978
2736.09	4.51787
2737.43	5.04535
2738.77	5.55192
2740.11	5.51165
2741.45	5.17918
2742.79	5.02994
2744.13	4.93159
2745.47	4.9691
2746.81	4.53187
2748.14	4.60097
2749.48	4.7784
2750.82	5.4299
2752.16	5.11045
2753.49	4.94939
2754.83	4.68528
2756.17	4.57413
2757.5	4.66743
2758.84	4.99176
2760.18	4.62236
2761.51	4.25698
2762.85	3.995
2764.18	3.62633
2765.52	3.33231
2766.85	3.55633
2768.19	3.77919
2769.52	3.91749
2770.86	3.96753
2772.19	3.74816
2773.52	3.2655
2774.86	3.28275
2776.19	3.30701
2777.52	2.98253
2778.86	2.78502
2780.19	1.92872
2781.52	1.63193
2782.85	1.3621
2784.19	0.72393
2785.52	0.527825
2786.85	0.559371
2788.18	0.154272
2789.51	0.0581802
2790.84	-0.210787
2792.17	-0.365482
2793.5	-0.0662844
2794.83	0.195958
2796.16	-0.250411
2797.49	-0.482522
2798.82	-0.744514
2800.15	-0.875404
2801.48	-0.742002
2802.81	-0.306572
2804.13	-0.404461
2805.46	-0.645016
2806.79	-0.58894
2808.12	-0.438935
2809.45	-0.512496
2810.77	-0.708547
2812.1	-0.916292
2813.43	-1.06948
2814.75	-1.17967
2816.08	-0.973124
2817.41	-0.512249
2818.73	-0.313861
2820.06	-0.0711867
2821.38	0.683369
2822.71	1.70426
2824.03	3.40735
2825.36	4.66008
2826.68	5.93027
2828	7.66354
2829.33	9.04385
2830.65	9.98098
2831.98	11.962
2833.3	14.0235
2834.62	15.6929
2835.94	17.7327
2837.27	19.3048
2838.59	21.8191
2839.91	23.3437
2841.23	24.9245
2842.55	27.0166
2843.87	29.6714
2845.2	32.0688
2846.52	34.4776
2847.84	36.4711
2849.16	39.2823
2850.48	41.9917
2851.8	45.1335
2853.12	47.5259
2854.44	50.3296
2855.76	53.451
2857.08	55.4165
2858.39	58.1493
2859.71	61.0395
2861.03	63.6946
2862.35	65.5502
2863.67	68.1432
2864.98	70.4948
2866.3	73.277
2867.62	75.7694
2868.94	77.8428
2870.25	79.3725
2871.57	81.3405
2872.88	83.0841
2874.2	84.058
2875.52	85.3777
2876.83	86.6797
2878.15	87.5969
2879.46	89.073
2880.78	90.4408
2882.09	92.0166
2883.41	92.9715
2884.72	94.3571
2886.03	95.9209
2887.35	97.7755
2888.66	99.3975
2889.97	101.026
2891.29	102.048
2892.6	102.999
2893.91	104.056
2895.22	105.19
2896.54	106.717
2897.85	108.468
2899.16	109.989
2900.47	112.34
2901.78	114.852
2903.09	116.875
2904.4	119.365
2905.71	121.258
2907.02	124.088
2908.33	127.349
2909.64	130.283
2910.95	133.191
2912.26	136.444
2913.57	139.246
2914.88	142.594
2916.19	145.281
2917.5	147.911
2918.81	150.639
2920.11	153.256
2921.42	154.858
2922.73	156.253
2924.04	158.36
2925.34	159.969
2926.65	161.077
2927.96	161.977
2929.26	163.427
2930.57	164.343
2931.87	164.524
2933.18	163.913
2934.49	163.106
2935.79	162.794
2937.1	162.279
2938.4	161.089
2939.7	159.907
2941.01	158.286
2942.31	155.995
2943.62	153.719
2944.92	151.435
2946.22	149.216
2947.53	146.633
2948.83	143.684
2950.13	140.637
2951.43	137.809
2952.74	134.514
2954.04	131.475
2955.34	127.765
2956.64	124.839
2957.94	121.351
2959.24	118.352
2960.54	115.543
2961.84	112.466
2963.15	109.359
2964.45	106.739
2965.75	104.376
2967.05	101.436
2968.34	98.8587
2969.64	96.267
2970.94	93.3999
2972.24	90.3276
2973.54	88.2894
2974.84	85.4104
2976.14	82.862
2977.43	80.008
2978.73	76.444
2980.03	73.1089
2981.33	70.6608
2982.62	68.0017
2983.92	65.4271
2985.22	62.2637
2986.51	59.8769
2987.81	57.4908
2989.11	55.2394
2990.4	52.7233
2991.7	50.1272
2992.99	47.8618
2994.29	45.5758
2995.58	42.9752
2996.88	40.432
2998.17	37.8731
2999.46	35.2841
3000.76	33.2552
3002.05	30.9337
3003.34	28.5336
3004.64	26.1094
3005.93	23.6901
3007.22	21.4318
3008.52	19.5623
3009.81	17.6922
3011.1	16.3558
3012.39	14.8836
3013.68	13.3206
3014.97	12.2473
3016.27	11.5054
3017.56	10.1618
3018.85	9.59165
3020.14	8.59565
3021.43	8.26088
3022.72	7.3731
3024.01	6.95382
3025.3	5.83582
3026.59	4.78737
3027.88	4.4947
3029.16	4.78516
3030.45	4.92531
3031.74	4.97014
3033.03	5.1934
3034.32	5.18021
3035.6	4.61827
3036.89	4.44812
3038.18	5.33049
3039.47	4.57356
3040.75	4.96262
3042.04	5.1958
3043.33	5.07372
3044.61	5.82038
3045.9	6.98625
3047.18	7.47654
3048.47	7.76776
3049.75	7.94044
3051.04	8.67382
3052.32	8.36134
3053.61	8.48176
3054.89	8.5421
3056.18	8.59813
3057.46	8.57727
3058.74	8.26117
3060.03	8.11654
3061.31	7.6057
3062.59	6.35681
3063.88	6.54017
3065.16	6.84774
3066.44	6.19631
3067.72	5.9688
3069	5.78499
3070.29	5.56291
3071.57	5.00527
3072.85	5.42829
3074.13	4.88619
3075.41	4.30872
3076.69	3.75154
3077.97	3.26357
3079.25	2.57918
3080.53	1.9229
3081.81	1.39247
3083.09	1.41022
3084.37	0.918724
3085.65	0.325302
3086.93	0.0630288
3088.21	-0.192269
3089.49	-0.319415
3090.76	-0.0112553
3092.04	0.572436
3093.32	1.13493
3094.6	0.909927
3095.87	0.607445
3097.15	0.43408
3098.43	0.493246
3099.7	0.308329
3100.98	0.487717
3102.26	0.933855
3103.53	1.06057
3104.81	1.80053
3106.08	2.04755
3107.36	2.52071
3108.63	3.30855
3109.91	3.68674
3111.18	3.92299
3112.46	4.46607
3113.73	5.06523
3115	5.68557
3116.28	6.39729
3117.55	7.51488
3118.83	7.95953
3120.1	8.53999
3121.37	9.16659
3122.64	9.77477
3123.92	10.3503
3125.19	10.8268
3126.46	11.8555
3127.73	13.5072
3129	13.7881
3130.27	14.3361
3131.55	15.4965
3132.82	15.9115
3134.09	16.3184
3135.36	16.9859
3136.63	17.8608
3137.9	17.6623
3139.17	18.4559
3140.44	19.4375
3141.71	20.2362
3142.98	20.8446
3144.24	21.6645
3145.51	22.343
3146.78	22.768
3148.05	23.1966
3149.32	23.7152
