#Acq. time (s)=	45
#Accumulations=	2
#Range (cm-¹)=	200...3150
#Windows=	2
#Auto scanning=	Off
#Autofocus=	Off
#Macrospot=	Off
#AutoExposure=	Off
#Spike filter=	Multiple accum.
#Delay time (s)=	0
#Binning=	1
#Readout mode=	Signal
#DeNoise=	Off
#ICS correction=	On
#Dark correction=	Off
#Inst. Process=	Off
#Detector Gain=	Best Dynamic Range
#Detector ADC=	20 kHz       
#Detector temperature (°C)=	-69.85
#Instrument=	LabRAM HR Evol
#Detector=	Synapse
#Objective=	x100
#Grating=	600 gr/mm
#ND Filter=	100%
#Laser (nm)=	532 
#Hole=	100.021
#Range=	Auto
#Laser Pol.=	No
#Raman. Pol.=	No
#Laser Pol. (°)=	-0.0007625
#Raman Pol. (°)=	89.9995
#Collection=	Microscope
#StageXY=	Marzhauser
#StageZ=	Marzhauser
#X (µm)=	4753
#Y (µm)=	-7710.3
#Z (µm)=	584.4
#Full time(mm:ss)=	3:18
#Project=	
#Sample=	
#Site=	
#Title=	Thy_30_10_31_2x_45s_532 nm_x100_100%_600 gr_mm
#Remark=	
#Date=	30.06.2022 13:40
#Acquired=	30.06.2022 13:40:36
#Base:Fit=	10.08.2022 09:58:11
#Base:Sub=	10.08.2022 09:58:44
#Filter:Polynom=	16.08.2022 10:22:53
#AxisType[0]=Intens
#AxisUnit[0]=Cnt
#AxisType[1]=Spectr
#AxisUnit[1]=1/cm
200.533	0.932674
202.348	2.09856
204.162	2.6463
205.976	2.63588
207.792	3.38109
209.605	3.6455
211.418	3.58128
213.23	3.18336
215.044	3.1553
216.856	3.11978
218.667	2.0253
220.478	2.1387
222.289	2.36533
224.102	2.32387
225.912	1.87592
227.721	2.27201
229.531	2.06034
231.34	1.9976
233.148	1.61183
234.956	1.38709
236.766	1.2215
238.574	1.14654
240.381	0.975487
242.188	1.35866
243.994	1.17303
245.801	-0.0256276
247.606	0.0878814
249.412	-0.29394
251.217	-0.0755032
253.024	-0.164145
254.828	0.3223
256.632	0.830327
258.436	1.29845
260.239	1.4384
262.042	1.49388
263.845	1.72404
265.647	2.44928
267.449	2.58223
269.25	3.38598
271.052	4.18265
272.852	5.37466
274.653	6.2813
276.453	6.25324
278.253	5.9346
280.052	6.99034
281.852	7.34002
283.65	7.57952
285.449	8.64134
287.247	8.74135
289.044	8.6168
290.842	8.28941
292.639	8.12171
294.436	8.41058
296.232	8.93146
298.028	7.78322
299.821	8.17296
301.617	8.68635
303.412	8.94334
305.206	9.13033
307	9.24813
308.794	9.02611
310.588	9.97753
312.381	10.2257
314.172	9.61672
315.964	9.14091
317.756	8.60276
319.548	7.77871
321.34	7.87282
323.131	7.38038
324.921	7.65939
326.71	7.19601
328.5	6.76618
330.29	6.3857
332.079	6.34726
333.868	5.45472
335.654	5.3815
337.443	6.70562
339.231	6.55917
341.018	7.56267
342.804	8.3674
344.591	8.88513
346.377	8.45955
348.163	9.02176
349.947	9.80205
351.733	9.07232
353.518	8.91155
355.303	9.08121
357.085	9.67051
358.869	9.80128
360.653	9.98356
362.435	10.2495
364.218	9.34474
366.001	9.42659
367.781	9.52961
369.563	9.55221
371.345	9.97016
373.124	10.256
374.905	10.3798
376.686	9.11278
378.464	9.09812
380.244	9.0001
382.022	8.92224
383.801	9.11892
385.58	9.03597
387.357	8.27167
389.135	8.45946
390.911	8.68064
392.689	8.1527
394.466	8.12914
396.241	7.4036
398.018	6.71292
399.792	6.89179
401.568	6.53949
403.341	5.6977
405.117	5.47438
406.889	5.46915
408.664	5.62821
410.436	5.31463
412.21	5.11856
413.981	5.80418
415.755	6.08709
417.525	6.29427
419.298	5.73322
421.068	6.22306
422.84	6.38558
424.609	6.23846
426.38	6.39821
428.149	6.72114
429.919	6.79273
431.688	6.41627
433.455	6.09525
435.225	5.72411
436.992	5.68917
438.76	5.3668
440.527	4.78768
442.293	4.89868
444.06	5.5079
445.826	6.75942
447.593	7.44139
449.357	7.78583
451.122	7.95532
452.888	8.43706
454.651	8.42221
456.415	8.39836
458.18	8.32463
459.942	9.3252
461.705	9.15869
463.469	9.34777
465.23	9.54859
466.991	10.2801
468.752	10.4665
470.515	10.5935
472.275	10.9016
474.035	11.6681
475.797	12.7835
477.556	13.8743
479.315	14.8815
481.073	14.9872
482.834	15.1023
484.592	15.354
486.349	16.4442
488.106	16.8414
489.863	17.8181
491.622	18.0751
493.378	18.202
495.134	18.5929
496.889	18.4391
498.645	18.962
500.401	20.0105
502.156	20.2935
503.91	20.3488
505.664	19.5401
507.417	19.6974
509.171	20.9558
510.923	20.418
512.678	20.0433
514.43	20.3359
516.182	19.6634
517.933	19.4281
519.684	18.9819
521.435	18.6211
523.186	18.105
524.936	18.8106
526.686	19.3243
528.435	19.3055
530.184	19.5585
531.933	19.6335
533.682	19.2943
535.43	18.5587
537.18	16.7704
538.927	16.648
540.674	15.7718
542.421	14.6583
544.167	14.2053
545.913	14.025
547.659	14.2381
549.403	13.3617
551.148	12.955
552.893	12.8902
554.637	12.9134
556.381	13.0846
558.125	13.995
559.868	13.903
561.611	14.0291
563.354	12.8705
565.097	11.2644
566.839	9.84954
568.581	8.64169
570.322	8.45657
572.063	8.13844
573.802	7.70626
575.542	7.08614
577.283	7.6564
579.022	6.84246
580.762	5.94303
582.501	5.80335
584.24	5.28442
585.976	5.52519
587.714	5.62325
589.452	5.49496
591.19	5.23774
592.927	4.50916
594.663	4.33529
596.398	4.07049
598.134	2.96658
599.87	3.26638
601.605	3.5604
603.338	3.82184
605.073	3.84783
606.808	3.18404
608.542	3.89895
610.274	4.99489
612.007	5.02955
613.74	4.89516
615.473	3.9559
617.204	4.38905
618.936	4.27843
620.668	3.72531
622.397	3.74165
624.128	3.8649
625.859	4.69804
627.588	5.17547
629.318	5.99166
631.048	6.56777
632.775	7.91326
634.505	8.94043
636.233	9.3896
637.96	11.0559
639.688	12.3229
641.416	13.1529
643.142	13.3744
644.869	13.7245
646.594	13.1304
648.32	12.9118
650.045	12.9416
651.771	14.8229
653.496	16.2651
655.219	17.3128
656.944	18.2176
658.667	19.0299
660.391	19.9253
662.113	20.4995
663.837	20.7606
665.558	21.3406
667.281	21.4025
669.002	22.8752
670.724	23.8762
672.444	24.9231
674.166	26.057
675.885	26.1743
677.606	26.545
679.325	27.4789
681.045	28.2574
682.763	29.4735
684.483	29.5748
686.2	30.9003
687.917	31.2446
689.636	31.4294
691.352	31.1771
693.07	31.0762
694.786	31.5164
696.501	31.2066
698.219	30.5644
699.933	31.8197
701.65	31.0016
703.364	31.7967
705.078	32.2992
706.793	33.094
708.506	34.4271
710.219	34.7979
711.934	35.7674
713.646	35.9103
715.358	35.6368
717.071	35.7883
718.782	36.7262
720.493	36.4985
722.204	37.0471
723.916	37.6623
725.626	37.3797
727.336	36.9251
729.045	37.7066
730.756	38.0617
732.464	37.9886
734.173	37.8795
735.881	39.44
737.59	40.6902
739.297	39.9695
741.004	39.7549
742.711	40.7349
744.417	42.3566
746.125	42.9134
747.831	44.1231
749.537	46.0823
751.242	47.7664
752.946	49.0865
754.651	50.9054
756.357	51.5812
758.061	52.4566
759.764	52.9546
761.467	53.9418
763.17	54.6334
764.872	55.4686
766.575	56.3747
768.276	56.6953
769.978	58.2392
771.679	60.3785
773.382	60.9434
775.083	61.3737
776.783	62.5897
778.483	62.9277
780.182	63.4877
781.882	64.2399
783.581	64.9551
785.279	65.8898
786.978	66.2733
788.676	68.1628
790.373	70.1042
792.071	70.7563
793.768	70.9158
795.464	70.8944
797.161	72.007
798.857	71.4455
800.552	72.2088
802.248	73.0273
803.941	74.0569
805.636	73.8817
807.33	73.6697
809.024	73.3118
810.718	73.2684
812.412	72.5473
814.105	72.8552
815.798	73.1132
817.49	74.3796
819.183	75.5077
820.873	76.6894
822.564	75.9842
824.256	74.8263
825.947	74.5863
827.637	74.9545
829.328	74.6729
831.016	73.6742
832.705	74.4712
834.395	73.7764
836.084	72.8964
837.772	72.81
839.459	72.0169
841.147	71.06
842.835	70.6191
844.522	70.4855
846.209	70.9139
847.894	69.229
849.581	68.6873
851.267	67.8324
852.953	67.2339
854.637	67.6393
856.322	66.265
858.007	64.6989
859.689	64.1144
861.374	63.2572
863.058	61.4132
864.739	59.8795
866.423	60.2652
868.106	60.0334
869.787	59.7509
871.469	58.9175
873.151	58.2252
874.831	58.2122
876.512	57.1426
878.193	56.9047
879.872	56.7496
881.553	56.5056
883.231	55.5838
884.911	56.74
886.591	56.165
888.268	55.4934
889.947	55.4817
891.623	55.0586
893.302	54.9922
894.978	55.1698
896.656	54.4431
898.331	54.6277
900.008	55.0222
901.683	54.5484
903.359	53.6486
905.033	52.8015
906.709	51.2024
908.383	50.3268
910.058	49.4418
911.731	50.2764
913.405	50.2615
915.078	50.3101
916.752	50.855
918.423	50.6185
920.096	50.5769
921.768	50.2313
923.438	50.6354
925.111	50.7352
926.781	50.6863
928.452	50.6854
930.122	49.9136
931.791	47.946
933.462	47.3718
935.13	46.8829
936.799	46.8796
938.468	46.5073
940.136	46.3375
941.803	45.0327
943.472	43.9942
945.139	42.5817
946.805	41.9181
948.473	41.5503
950.139	42.0331
951.804	41.2044
953.471	41.3097
955.136	41.6403
956.801	41.6437
958.465	40.3623
960.131	39.2752
961.794	38.6005
963.458	37.6525
965.12	37.2397
966.785	36.9781
968.447	37.8908
970.109	37.787
971.771	37.5034
973.432	37.7495
975.095	36.6663
976.756	36.8183
978.417	37.5043
980.077	37.9844
981.737	38.3433
983.396	39.0803
985.057	39.0932
986.716	38.979
988.375	38.9868
990.033	38.9553
991.691	39.7807
993.349	40.2681
995.006	40.6592
996.663	40.8337
998.32	41.398
999.976	41.666
1001.63	41.959
1003.29	41.473
1004.95	42.1428
1006.6	42.6706
1008.26	42.3588
1009.91	42.7427
1011.56	42.5926
1013.22	42.4535
1014.87	42.248
1016.53	43.1892
1018.18	43.7241
1019.83	42.9266
1021.48	42.8312
1023.14	41.9701
1024.79	41.1828
1026.44	41.4351
1028.09	41.4604
1029.74	41.2287
1031.39	40.4952
1033.04	39.8123
1034.69	39.5077
1036.34	38.6215
1037.99	37.0545
1039.64	35.6453
1041.29	34.5137
1042.94	34.9406
1044.58	34.7577
1046.23	34.0626
1047.88	34.6324
1049.52	34.7229
1051.17	35.3089
1052.82	35.4378
1054.46	33.8824
1056.11	33.496
1057.75	32.4157
1059.4	31.7717
1061.04	31.4093
1062.69	30.6352
1064.33	29.2074
1065.98	29.1178
1067.62	28.4455
1069.26	27.8462
1070.9	27.9512
1072.55	28.2391
1074.19	27.4549
1075.83	26.1748
1077.47	26.0943
1079.11	26.7654
1080.76	26.0801
1082.4	24.9188
1084.04	24.4998
1085.68	23.5846
1087.32	24.3433
1088.95	24.4101
1090.59	24.9321
1092.23	24.9083
1093.87	24.7783
1095.51	25.6135
1097.15	26.0463
1098.78	26.5361
1100.42	26.3445
1102.06	26.153
1103.69	27.0797
1105.33	27.1469
1106.97	26.6591
1108.6	26.7862
1110.24	26.9151
1111.87	26.5254
1113.51	26.2149
1115.14	26.4967
1116.77	26.4444
1118.41	25.6392
1120.04	24.8061
1121.67	24.5383
1123.31	23.7585
1124.94	23.2887
1126.57	22.8276
1128.2	21.6685
1129.83	21.5316
1131.47	20.3317
1133.1	19.3603
1134.72	17.5883
1136.36	16.0342
1137.98	14.5853
1139.62	13.5919
1141.24	13.1244
1142.87	13.554
1144.5	12.5746
1146.13	11.1535
1147.76	10.5387
1149.38	9.35624
1151.01	8.5064
1152.64	8.22545
1154.27	6.78129
1155.89	4.55309
1157.52	3.69391
1159.14	2.37067
1160.77	0.952176
1162.39	-0.153647
1164.02	-0.615962
1165.64	-0.738997
1167.27	-0.715987
1168.89	0.10118
1170.51	0.884792
1172.14	2.03297
1173.76	2.29945
1175.38	4.16512
1177	5.60502
1178.63	5.6613
1180.25	6.01251
1181.87	6.69625
1183.49	6.96257
1185.11	7.65866
1186.73	8.66343
1188.35	9.05455
1189.97	10.5695
1191.59	11.4446
1193.21	11.6924
1194.83	12.5257
1196.45	12.6808
1198.07	13.3313
1199.68	13.5999
1201.3	14.7345
1202.92	16.5849
1204.53	17.9246
1206.15	19.1632
1207.77	20.6829
1209.38	21.4256
1211	23.2566
1212.62	24.8553
1214.23	26.8988
1215.84	28.7544
1217.46	31.1054
1219.07	32.1027
1220.69	34.9974
1222.3	36.608
1223.91	38.518
1225.53	39.459
1227.14	40.2803
1228.75	41.7318
1230.36	43.136
1231.97	44.1208
1233.59	45.2164
1235.2	46.3972
1236.81	47.5521
1238.42	48.8608
1240.03	50.0643
1241.64	51.881
1243.25	52.6191
1244.85	54.3878
1246.46	55.3742
1248.07	56.7942
1249.68	57.9577
1251.29	59.0916
1252.9	59.9062
1254.5	60.3168
1256.11	61.5244
1257.72	61.8432
1259.32	61.5768
1260.93	62.5044
1262.54	63.6517
1264.14	63.8561
1265.75	64.4547
1267.35	65.3644
1268.96	65.4512
1270.56	66.0975
1272.16	65.9468
1273.77	65.9297
1275.37	66.1013
1276.97	66.2295
1278.57	67.0994
1280.18	67.1258
1281.78	68.2527
1283.38	69.0445
1284.98	70.228
1286.58	70.942
1288.18	72.107
1289.78	72.845
1291.38	74.1341
1292.99	74.1738
1294.58	74.4319
1296.18	74.7502
1297.78	75.1448
1299.38	75.3483
1300.98	75.7201
1302.58	75.8117
1304.17	75.6938
1305.77	75.7788
1307.37	75.9913
1308.97	76.3644
1310.56	76.8193
1312.16	76.3402
1313.76	76.8584
1315.35	76.6771
1316.95	76.1696
1318.54	75.4112
1320.14	75.6018
1321.73	75.3019
1323.32	74.6341
1324.92	74.9931
1326.51	73.16
1328.1	72.4954
1329.7	71.5921
1331.29	71.3101
1332.88	70.6748
1334.47	69.4569
1336.07	68.686
1337.66	67.5884
1339.25	66.5028
1340.84	65.6131
1342.43	64.2633
1344.02	62.9258
1345.61	62.3989
1347.2	61.5555
1348.79	59.2113
1350.37	57.3317
1351.96	55.9636
1353.55	54.5504
1355.14	53.3311
1356.73	51.4376
1358.31	50.5142
1359.9	48.8255
1361.49	47.8293
1363.07	46.991
1364.66	45.851
1366.25	43.5374
1367.83	42.0584
1369.42	39.715
1371	38.9735
1372.59	37.886
1374.17	37.5407
1375.75	37.4276
1377.34	37.5258
1378.92	37.1128
1380.5	35.6898
1382.09	35.8714
1383.67	35.4784
1385.25	35.2439
1386.83	35.1216
1388.42	34.2583
1390	33.9786
1391.58	33.7035
1393.16	33.8553
1394.74	33.3778
1396.32	33.4958
1397.9	33.4049
1399.48	33.5957
1401.06	33.0124
1402.64	32.1501
1404.21	32.2981
1405.79	31.8821
1407.37	33.1671
1408.95	33.5374
1410.53	34.6551
1412.1	34.9029
1413.68	35.8287
1415.26	37.142
1416.83	38.609
1418.41	39.6012
1419.98	40.5655
1421.56	42.783
1423.13	44.4007
1424.71	46.5494
1426.28	47.8831
1427.86	50.9356
1429.43	53.4704
1431	55.8691
1432.58	58.3407
1434.15	60.9255
1435.72	63.0734
1437.29	65.8534
1438.87	66.8341
1440.44	69.3569
1442.01	70.4582
1443.58	71.2867
1445.15	72.2217
1446.72	73.2811
1448.29	74.3663
1449.86	75.0847
1451.43	73.857
1453	72.9649
1454.57	72.5773
1456.14	71.6058
1457.71	69.2835
1459.27	67.5653
1460.84	66.1292
1462.41	63.3252
1463.98	60.2903
1465.54	58.5206
1467.11	55.9829
1468.67	54.2416
1470.24	50.9484
1471.81	48.3638
1473.37	45.5909
1474.94	42.9667
1476.5	39.3771
1478.07	35.3617
1479.63	32.2423
1481.19	30.0749
1482.76	27.7774
1484.32	24.8844
1485.88	22.6866
1487.45	19.7792
1489.01	18.0972
1490.57	15.7935
1492.13	14.0574
1493.69	11.6568
1495.26	10.2348
1496.82	8.84736
1498.38	7.33929
1499.94	7.75249
1501.5	6.77312
1503.06	7.55661
1504.62	7.47861
1506.17	7.72648
1507.73	6.71156
1509.29	7.08459
1510.85	7.1222
1512.41	6.85103
1513.97	5.91686
1515.52	5.45377
1517.08	5.48609
1518.64	5.63643
1520.19	4.74022
1521.75	5.8363
1523.31	6.64099
1524.86	6.62901
1526.42	7.55676
1527.97	7.37823
1529.52	7.61847
1531.08	8.62163
1532.63	9.7789
1534.19	10.0283
1535.74	10.8626
1537.29	11.3744
1538.85	12.1773
1540.4	13.9438
1541.95	16.2881
1543.5	18.7968
1545.06	20.7245
1546.61	22.7051
1548.16	24.0514
1549.71	27.0554
1551.26	28.2259
1552.81	29.9705
1554.36	31.0596
1555.91	33.2864
1557.46	35.4053
1559.01	38.1087
1560.56	39.0292
1562.11	40.6005
1563.65	42.4875
1565.2	44.0564
1566.75	46.1931
1568.29	47.5521
1569.84	48.4267
1571.39	50.056
1572.94	52.4162
1574.48	52.8927
1576.03	53.5085
1577.57	55.3446
1579.12	56.3156
1580.66	56.598
1582.21	56.5904
1583.75	58.2081
1585.3	59.2553
1586.84	59.8824
1588.38	60.0174
1589.93	60.3654
1591.47	59.2674
1593.01	60.4893
1594.55	60.2361
1596.1	59.7492
1597.64	59.6402
1599.18	60.7827
1600.72	60.323
1602.26	58.9761
1603.8	58.3425
1605.34	57.3904
1606.88	56.9365
1608.42	57.0212
1609.96	56.6099
1611.5	56.6479
1613.04	56.1746
1614.58	56.0921
1616.12	57.4306
1617.65	58.047
1619.19	58.5925
1620.73	59.0058
1622.27	59.7552
1623.8	61.0092
1625.34	62.7
1626.87	63.4037
1628.41	64.459
1629.95	65.5909
1631.48	66.6228
1633.02	68.4187
1634.55	69.9347
1636.09	72.4973
1637.62	73.3503
1639.15	75.4191
1640.69	77.5028
1642.22	79.4582
1643.76	81.0473
1645.29	82.0343
1646.82	83.0277
1648.35	84.8753
1649.88	85.897
1651.42	86.6212
1652.95	87.9295
1654.48	89.1079
1656.01	89.9695
1657.54	90.0881
1659.07	91.4145
1660.6	92.068
1662.13	90.9839
1663.66	89.9698
1665.19	88.5795
1666.72	86.8463
1668.24	84.5772
1669.77	83.6432
1671.3	81.2156
1672.83	79.6949
1674.35	77.6206
1675.88	75.5221
1677.41	71.9185
1678.93	69.6337
1680.46	67.0601
1681.99	63.9293
1683.51	60.9287
1685.04	57.4053
1686.56	53.6321
1688.09	50.4769
1689.61	46.5317
1691.13	44.4446
1692.66	40.9488
1694.18	37.5361
1695.71	34.886
1697.23	32.145
1698.75	28.9826
1700.27	26.4679
1701.8	23.7814
1703.32	20.5961
1704.84	17.8433
1706.36	14.9663
1707.88	12.7769
1709.4	11.3587
1710.92	9.81997
1712.44	8.19404
1713.96	6.43957
1715.48	5.4419
1717	4.42143
1718.52	3.59934
1720.04	2.57426
1721.56	2.21131
1723.07	2.69069
1724.59	2.94499
1726.11	2.54123
1727.63	2.53326
1729.14	2.36395
1730.66	2.5571
1732.18	2.63523
1733.69	2.72705
1735.21	2.90928
1736.72	2.56028
1738.24	2.43951
1739.75	2.31606
1741.27	2.00569
1742.78	2.01213
1744.3	2.24228
1745.81	3.03584
1747.32	3.1172
1748.84	3.27749
1750.35	3.17174
1751.86	3.24485
1753.37	3.66386
1754.89	4.15711
1756.4	3.51672
1757.91	3.38548
1759.42	3.27468
1760.93	2.82749
1762.44	3.02909
1763.95	2.8149
1765.46	2.46504
1766.97	2.54436
1768.48	2.02668
1769.99	2.21963
1771.5	1.98034
1773.01	1.6763
1774.52	0.899533
1776.03	0.854674
1777.53	0.28088
1779.04	-0.19944
1780.55	-0.847863
1782.06	-0.756895
1783.56	-0.838193
1785.07	-0.31713
1786.57	-0.349854
1788.08	-0.309004
1789.59	0.23661
1791.09	0.0222165
1792.6	0.447561
1794.1	0.394373
1795.6	0.196231
1797.11	0.411498
1798.61	0.663683
1800.12	0.348863
1801.62	0.247889
1803.12	0.54665
1804.63	0.684837
1806.13	0.66128
1807.63	0.159273
1809.13	0.652182
1810.63	0.624995
1812.14	0.615963
1813.64	0.83963
1815.14	0.760807
1816.64	0.772266
1818.14	0.78325
1819.64	1.16108
1821.14	1.498
1822.64	1.62384
1824.14	1.59693
1825.63	1.9177
1827.13	2.09505
1828.63	2.40985
1830.13	2.47004
1831.63	2.56143
1833.12	3.02201
1834.62	3.07106
1836.12	3.17011
1837.62	3.59803
1839.11	3.57146
1840.61	3.36768
1842.1	3.84625
1843.6	4.244
1845.09	4.34592
1846.59	4.24669
1848.08	4.37414
1849.58	4.38209
1851.07	4.09098
1852.57	4.31005
1854.06	4.67878
1855.55	4.91999
1857.04	5.45486
1858.54	6.3055
1860.03	6.77349
1861.52	6.58061
1863.01	6.7124
1864.5	6.87976
1866	7.22279
1867.49	7.65153
1868.98	7.86797
1870.47	8.13102
1871.96	8.67947
1873.45	9.04609
1874.94	9.3237
1876.43	9.07114
1877.92	9.31856
1879.41	9.54682
1880.89	9.59763
1882.38	9.92968
1882.48	10.4171
1883.97	10.2979
1885.47	11.0451
1886.96	10.9192
1888.46	10.6631
1889.95	11.433
1891.44	11.787
1892.94	12.0632
1894.43	11.9758
1895.92	11.8554
1897.41	11.7024
1898.9	12.0227
1900.4	12.4216
1901.89	12.6316
1903.38	13.2181
1904.87	12.9514
1906.36	13.348
1907.85	13.1471
1909.34	13.1592
1910.83	13.3711
1912.32	13.4383
1913.81	13.4586
1915.29	14.0054
1916.78	13.9973
1918.27	13.9523
1919.76	13.8738
1921.25	14.0724
1922.74	14.654
1924.22	14.5175
1925.71	14.9887
1927.2	15.3366
1928.68	15.1447
1930.17	15.3273
1931.65	15.393
1933.14	14.9274
1934.63	14.931
1936.11	15.2822
1937.59	15.1659
1939.08	15.1515
1940.56	14.3534
1942.05	14.3568
1943.53	14.3302
1945.01	14.4424
1946.5	14.07
1947.98	13.8259
1949.46	13.3643
1950.94	13.3522
1952.43	13.3275
1953.91	13.1872
1955.39	13.4666
1956.87	13.5784
1958.35	13.59
1959.83	13.6762
1961.31	13.7246
1962.79	13.6805
1964.27	13.8424
1965.75	13.2335
1967.23	13.186
1968.71	12.7815
1970.19	12.8432
1971.67	12.8242
1973.14	12.9153
1974.62	12.8737
1976.1	12.9381
1977.58	13.5665
1979.05	13.3786
1980.53	13.7065
1982.01	13.2437
1983.48	13.1927
1984.96	13.5536
1986.43	13.5229
1987.91	13.2576
1989.38	13.5138
1990.86	13.4165
1992.33	13.6064
1993.81	13.933
1995.28	14.2536
1996.76	14.575
1998.23	14.1164
1999.7	14.4926
2001.18	14.2633
2002.65	13.9503
2004.12	14.3071
2005.59	14.8966
2007.06	14.4254
2008.54	14.4259
2010.01	14.3887
2011.48	14.3665
2012.95	14.7662
2014.42	14.8041
2015.89	15.0232
2017.36	15.4326
2018.83	15.0641
2020.3	14.8969
2021.77	14.9628
2023.24	14.6701
2024.71	15.075
2026.17	16.0228
2027.64	16.3601
2029.11	17.06
2030.58	18.0403
2032.04	18.0094
2033.51	18.4323
2034.98	18.9488
2036.45	19.1022
2037.91	19.1534
2039.38	19.669
2040.84	19.9377
2042.31	19.9627
2043.77	20.3495
2045.24	20.7054
2046.7	20.7743
2048.17	20.6287
2049.63	21.3854
2051.1	21.2855
2052.56	20.5806
2054.02	20.4352
2055.48	20.6745
2056.95	21.1596
2058.41	21.3147
2059.87	20.9953
2061.33	20.8497
2062.8	21.1092
2064.26	21.4062
2065.72	21.6523
2067.18	22.0391
2068.64	22.5216
2070.1	23.1606
2071.56	23.0523
2073.02	22.9443
2074.48	23.1843
2075.94	23.6495
2077.4	23.8336
2078.86	24.4
2080.31	24.0217
2081.77	24.3482
2083.23	25.235
2084.69	25.729
2086.14	25.8588
2087.6	25.5476
2089.06	25.5355
2090.52	26.2158
2091.97	26.2612
2093.43	26.5498
2094.88	27.6818
2096.34	28.4302
2097.79	29.2282
2099.25	29.8647
2100.7	30.158
2102.16	31.0341
2103.61	31.8208
2105.07	32.4339
2106.52	33.9105
2107.97	35.2958
2109.43	35.9789
2110.88	37.0805
2112.33	38.3486
2113.78	39.3158
2115.24	40.6475
2116.69	41.7516
2118.14	43.4562
2119.59	44.7323
2121.04	46.4794
2122.49	49.3174
2123.94	50.9047
2125.39	52.4159
2126.84	54.4951
2128.29	56.4917
2129.74	58.6279
2131.19	60.6928
2132.64	62.5825
2134.09	65.037
2135.54	67.7988
2136.98	70.2176
2138.43	72.7362
2139.88	75.004
2141.33	77.2203
2142.77	79.3579
2144.22	81.4235
2145.67	83.2759
2147.11	85.9558
2148.56	87.3293
2150.01	89.9448
2151.45	91.9586
2152.9	93.7818
2154.34	95.5337
2155.79	98.2368
2157.23	99.6166
2158.67	101.097
2160.12	102.557
2161.56	103.607
2163	105.312
2164.45	106.03
2165.89	106.698
2167.33	107.952
2168.78	108.649
2170.22	108.667
2171.66	109.296
2173.1	110.081
2174.54	109.986
2175.98	109.582
2177.42	109.309
2178.86	109.63
2180.3	108.929
2181.74	108.27
2183.18	107.972
2184.62	106.682
2186.06	105.979
2187.5	104.976
2188.94	103.592
2190.38	102.611
2191.82	101.044
2193.25	99.5938
2194.69	98.4026
2196.13	95.9583
2197.57	93.729
2199	92.0778
2200.44	89.7443
2201.88	86.8785
2203.31	85.0608
2204.75	83.0708
2206.18	80.8985
2207.62	78.543
2209.05	76.3919
2210.49	74.2036
2211.92	71.1008
2213.36	68.829
2214.79	66.6616
2216.22	64.8616
2217.66	62.7616
2219.09	61.3099
2220.52	59.4697
2221.96	58.4336
2223.39	56.5947
2224.82	55.3388
2226.25	53.8325
2227.68	52.8275
2229.11	50.7293
2230.55	49.7376
2231.98	47.6514
2233.41	46.5998
2234.84	46.3397
2236.27	45.0607
2237.7	44.208
2239.12	43.4408
2240.55	42.8478
2241.98	41.4938
2243.41	40.1928
2244.84	39.3156
2246.27	38.0035
2247.7	37.3639
2249.12	37.1866
2250.55	36.942
2251.98	35.7278
2253.41	35.1678
2254.83	34.5339
2256.26	33.5999
2257.68	33.3841
2259.11	32.469
2260.54	31.8703
2261.96	31.375
2263.39	30.6693
2264.81	30.0908
2266.24	29.5235
2267.66	28.6837
2269.08	27.7074
2270.51	27.076
2271.93	26.0893
2273.35	25.4705
2274.78	25.8844
2276.2	24.7622
2277.62	23.5835
2279.04	23.2924
2280.47	23.5735
2281.89	22.5884
2283.31	22.425
2284.73	21.8301
2286.15	22.0549
2287.57	21.7035
2288.99	20.6311
2290.41	19.5303
2291.83	18.8525
2293.25	18.4703
2294.67	18.195
2296.09	17.9501
2297.51	17.8481
2298.93	18.183
2300.35	17.8456
2301.76	17.7405
2303.18	17.9589
2304.6	18.4185
2306.02	18.3406
2307.44	18.0297
2308.85	18.0314
2310.27	17.8076
2311.69	18.1328
2313.1	17.5095
2314.52	17.292
2315.93	17.4655
2317.35	17.6731
2318.76	16.8566
2320.18	16.5905
2321.59	16.2779
2323.01	16.0636
2324.42	15.8734
2325.83	15.3682
2327.25	14.5259
2328.66	14.056
2330.07	13.7102
2331.49	13.3493
2332.9	12.9247
2334.31	12.7794
2335.72	12.5218
2337.13	11.672
2338.55	11.4123
2339.96	10.8577
2341.37	10.6519
2342.78	10.3108
2344.19	9.98524
2345.6	9.96733
2347.01	9.71517
2348.42	9.53738
2349.83	9.05108
2351.24	8.52163
2352.65	7.45593
2354.05	6.83598
2355.46	5.86431
2356.87	5.86901
2358.28	5.48275
2359.69	4.99163
2361.09	5.00716
2362.5	5.38784
2363.91	5.40254
2365.31	5.75642
2366.72	6.15656
2368.13	5.85538
2369.53	5.79512
2370.94	5.72813
2372.34	6.12981
2373.75	7.02754
2375.15	6.82135
2376.56	6.93607
2377.96	6.88322
2379.37	6.40895
2380.77	6.19441
2382.17	6.19021
2383.58	5.97356
2384.98	5.96946
2386.38	6.10046
2387.79	5.77565
2389.19	5.05932
2390.59	5.03519
2391.99	5.36422
2393.39	4.88667
2394.8	4.51793
2396.2	3.96345
2397.6	3.48294
2399	3.77468
2400.4	4.261
2401.8	3.89784
2403.2	4.20034
2404.6	4.08398
2406	3.73802
2407.4	3.60768
2408.79	3.84261
2410.19	4.09936
2411.59	4.03394
2412.99	4.21847
2414.39	4.60641
2415.78	4.58387
2417.18	4.65138
2418.58	4.51538
2419.98	4.90964
2421.37	5.5705
2422.77	6.1148
2424.16	6.16611
2425.56	6.93449
2426.96	7.62315
2428.35	7.64024
2429.74	7.26975
2431.14	7.84487
2432.53	7.89958
2433.93	7.89498
2435.32	8.02197
2436.72	8.05415
2438.11	7.79452
2439.5	7.99069
2440.9	8.20409
2442.29	8.43285
2443.68	8.21387
2445.07	7.52306
2446.47	7.34863
2447.86	6.79488
2449.25	6.46011
2450.64	6.38955
2452.03	6.1566
2453.42	5.92251
2454.81	5.09712
2456.2	5.02534
2457.59	4.52017
2458.98	4.21293
2460.37	4.01216
2461.76	3.87554
2463.15	3.21064
2464.54	3.0324
2465.93	3.09042
2467.32	3.18385
2468.7	3.39476
2470.09	3.09531
2471.48	2.50663
2472.87	2.38067
2474.25	2.90318
2475.64	2.8744
2477.03	2.96615
2478.41	2.65979
2479.8	2.81958
2481.18	2.78523
2482.57	2.54873
2483.95	2.67761
2485.34	2.40009
2486.72	2.6047
2488.11	3.06478
2489.49	3.43545
2490.88	3.17097
2492.26	3.6995
2493.65	3.76718
2495.03	3.84689
2496.41	3.44625
2497.79	3.35093
2499.18	3.81246
2500.56	3.83843
2501.94	3.72167
2503.32	3.20494
2504.7	2.99343
2506.09	2.83532
2507.47	2.59333
2508.85	2.31373
2510.23	2.27866
2511.61	1.80485
2512.99	1.45883
2514.37	1.19846
2515.75	1.18869
2517.13	0.961541
2518.51	0.995669
2519.89	1.14476
2521.26	1.44298
2522.64	1.9306
2524.02	2.05014
2525.4	3.06628
2526.78	3.3171
2528.15	2.85611
2529.53	2.91066
2530.91	2.93845
2532.28	2.75301
2533.66	2.86926
2535.04	3.25404
2536.41	2.97578
2537.79	2.73025
2539.16	2.55109
2540.54	2.56816
2541.91	2.54072
2543.29	2.72162
2544.66	1.87683
2546.04	2.05856
2547.41	1.52473
2548.78	1.20803
2550.16	1.165
2551.53	0.719813
2552.9	1.22938
2554.27	1.41716
2555.65	1.47152
2557.02	1.46983
2558.39	1.33552
2559.76	1.2181
2561.13	1.25837
2562.51	0.744072
2563.88	0.313531
2565.25	0.449271
2566.62	0.421073
2567.99	-0.209144
2569.36	-0.331361
2570.73	-0.61844
2572.1	-1.40746
2573.47	-1.5274
2574.84	-1.37605
2576.2	-1.104
2577.57	-1.18789
2578.94	-0.939619
2580.31	-0.89718
2581.68	-0.279537
2583.05	-0.212008
2584.41	0.12852
2585.78	0.655892
2587.15	0.659629
2588.51	0.997479
2589.88	0.980304
2591.24	1.11961
2592.61	1.13861
2593.98	1.42764
2595.34	0.835026
2596.71	0.415503
2598.07	0.648918
2599.44	0.802019
2600.8	0.753512
2602.16	1.14911
2603.53	1.22226
2604.89	1.23746
2606.26	1.11142
2607.62	0.825016
2608.98	0.773916
2610.34	0.641283
2611.71	0.469494
2613.07	0.62096
2614.43	0.571762
2615.79	0.252209
2617.15	0.278786
2618.52	0.835041
2619.88	0.588475
2621.24	0.896378
2622.6	1.1001
2623.96	1.15494
2625.32	1.06826
2626.68	0.935999
2628.04	0.575602
2629.4	0.451008
2630.75	0.185795
2632.11	0.137552
2633.47	0.220601
2634.83	0.121216
2636.19	0.512617
2637.55	0.551066
2638.9	0.265874
2640.26	0.248615
2641.62	0.827005
2642.98	1.20532
2644.33	0.853064
2645.69	1.24473
2647.04	1.44025
2648.4	1.46728
2649.76	1.42594
2651.11	1.73533
2652.47	2.01409
2653.82	1.36755
2655.18	1.43108
2656.53	1.36577
2657.88	1.44725
2659.24	1.86983
2660.59	1.66278
2661.95	1.03913
2663.3	0.738991
2664.65	1.17991
2666	1.42031
2667.36	1.45474
2668.71	1.62875
2670.06	1.80006
2671.41	1.75009
2672.76	1.23942
2674.12	0.751859
2675.47	0.370769
2676.82	0.742502
2678.17	0.762204
2679.52	1.28585
2680.87	2.24818
2682.22	2.07886
2683.57	2.29177
2684.92	2.08643
2686.27	2.60952
2687.62	2.16769
2688.97	2.56052
2690.31	3.09128
2691.66	2.95193
2693.01	3.1047
2694.36	3.35951
2695.71	3.86864
2697.05	4.1712
2698.4	4.2645
2699.75	4.9578
2701.09	5.60924
2702.44	6.08562
2703.78	6.37125
2705.13	6.57173
2706.48	7.44282
2707.82	7.96973
2709.17	8.67376
2710.51	9.2278
2711.86	9.65885
2713.2	10.3285
2714.54	10.4002
2715.89	11.0509
2717.23	11.4079
2718.57	11.9793
2719.92	12.1268
2721.26	11.8074
2722.6	13.0803
2723.95	13.2278
2725.29	13.5025
2726.63	13.241
2727.97	13.1606
2729.31	13.3355
2730.65	13.7062
2732	14.3069
2733.34	14.2806
2734.68	14.1594
2736.02	14.3261
2737.36	13.8054
2738.7	13.9175
2740.04	13.4222
2741.38	13.3085
2742.72	13.1894
2744.05	13.6992
2745.39	13.6539
2746.73	13.5433
2748.07	12.8763
2749.41	11.958
2750.75	11.2987
2752.08	10.7228
2753.42	10.9239
2754.76	10.2787
2756.09	10.2683
2757.43	9.91177
2758.77	9.13941
2760.1	8.96833
2761.44	8.58234
2762.78	7.95512
2764.11	7.37686
2765.44	7.39915
2766.78	7.88914
2768.11	7.46161
2769.45	6.84659
2770.78	6.27666
2772.12	5.93375
2773.45	5.22453
2774.78	5.46058
2776.12	5.18009
2777.45	5.2347
2778.78	4.7573
2780.12	4.19172
2781.45	4.03314
2782.78	4.13508
2784.11	3.69374
2785.44	4.4492
2786.78	4.70011
2788.11	4.24844
2789.44	4.82471
2790.77	4.20676
2792.1	4.29185
2793.43	4.04897
2794.76	4.60716
2796.09	4.94441
2797.42	5.09502
2798.75	5.70869
2800.08	5.78995
2801.4	5.75981
2802.73	6.16522
2804.06	6.45752
2805.39	6.84394
2806.72	6.75536
2808.05	7.06551
2809.37	7.63262
2810.7	7.6564
2812.03	7.35197
2813.35	7.22333
2814.68	7.53502
2816.01	7.92388
2817.33	8.06514
2818.66	9.44579
2819.98	10.7138
2821.31	11.6791
2822.63	13.3742
2823.96	15.1038
2825.28	17.5428
2826.61	20.1648
2827.93	22.483
2829.25	25.108
2830.58	27.9031
2831.9	30.0641
2833.23	32.4392
2834.55	34.614
2835.87	37.3773
2837.19	40.8708
2838.52	44.1123
2839.84	47.6593
2841.16	51.3463
2842.48	54.8105
2843.8	59.3356
2845.12	63.1599
2846.44	67.7716
2847.77	73.1952
2849.08	78.7365
2850.4	84.26
2851.73	90.3446
2853.05	96.1666
2854.36	102.024
2855.68	108.259
2857	114.053
2858.32	120.187
2859.64	125.613
2860.96	131.826
2862.28	137.675
2863.59	142.608
2864.91	148.087
2866.23	152.535
2867.55	157.133
2868.86	162.324
2870.18	166.389
2871.5	169.904
2872.81	173.769
2874.13	177.351
2875.44	180.015
2876.76	182.48
2878.07	185.076
2879.39	188.1
2880.7	191.113
2882.02	193.766
2883.33	196.642
2884.65	199.908
2885.96	202.578
2887.28	205.784
2888.59	208.352
2889.9	210.365
2891.21	212.615
2892.53	215.259
2893.84	217.292
2895.15	219.928
2896.46	222.498
2897.78	225.417
2899.09	229.485
2900.4	233.842
2901.71	238.144
2903.02	243.155
2904.33	247.351
2905.64	253.529
2906.95	260.034
2908.26	267.121
2909.57	274.278
2910.88	281.646
2912.19	289.508
2913.5	297.492
2914.81	305.457
2916.12	313.278
2917.43	320.739
2918.73	328.154
2920.04	334.601
2921.35	341.544
2922.66	347.127
2923.96	352.416
2925.27	357.023
2926.58	360.795
2927.88	362.87
2929.19	364.618
2930.5	367.254
2931.8	368.399
2933.11	368.741
2934.41	368.287
2935.72	366.56
2937.02	365.047
2938.33	362.332
2939.63	358.931
2940.94	354.696
2942.24	350.42
2943.54	345.543
2944.85	340.48
2946.15	334.377
2947.45	328.527
2948.76	321.828
2950.06	315.116
2951.36	308.133
2952.66	300.857
2953.97	293.498
2955.27	286.632
2956.57	279.729
2957.87	272.782
2959.17	265.324
2960.47	258.836
2961.77	252.283
2963.07	245.297
2964.37	239.148
2965.67	233.089
2966.97	226.562
2968.27	220.58
2969.57	214.934
2970.87	210.054
2972.17	204.558
2973.47	198.917
2974.77	194.064
2976.07	189.583
2977.36	184.595
2978.66	179.483
2979.96	174.334
2981.26	169.228
2982.55	164.012
2983.85	158.72
2985.15	153.145
2986.44	147.508
2987.74	141.688
2989.03	135.946
2990.33	130.418
2991.63	124.953
2992.92	119.507
2994.21	114.994
2995.51	110.131
2996.8	104.468
2998.1	98.6311
2999.39	93.815
3000.69	88.9263
3001.98	84.5759
3003.27	79.8222
3004.57	75.3949
3005.86	71.0405
3007.15	66.8305
3008.44	63.0944
3009.74	59.4034
3011.03	56.2194
3012.32	53.6556
3013.61	50.1869
3014.9	48.3322
3016.19	46.2802
3017.48	44.2538
3018.78	43.1214
3020.07	41.06
3021.36	39.274
3022.65	37.8901
3023.94	36.656
3025.23	35.8316
3026.51	35.1068
3027.8	34.2424
3029.09	33.9628
3030.38	33.5149
3031.67	33.4874
3032.96	34.0745
3034.24	34.5103
3035.53	34.7361
3036.82	35.3884
3038.11	36.2581
3039.39	37.1063
3040.68	38.1862
3041.97	38.5659
3043.25	39.282
3044.54	39.9878
3045.83	40.87
3047.11	41.3147
3048.4	41.5923
3049.68	41.9655
3050.97	42.5284
3052.25	42.9683
3053.54	42.6921
3054.82	42.7637
3056.11	42.5239
3057.39	41.7731
3058.67	41.0267
3059.96	40.0503
3061.24	39.4639
3062.52	38.3747
3063.81	37.5141
3065.09	36.5569
3066.37	35.1486
3067.65	33.307
3068.94	31.3986
3070.22	29.6712
3071.5	28.2385
3072.78	26.3882
3074.06	24.9898
3075.34	23.5169
3076.62	22.1164
3077.9	20.4717
3079.18	19.8359
3080.46	18.0701
3081.74	16.535
3083.02	15.1579
3084.3	13.5189
3085.58	12.4108
3086.86	10.9222
3088.14	9.8477
3089.42	9.08499
3090.69	8.21895
3091.97	7.34767
3093.25	6.99514
3094.53	6.8271
3095.8	6.30918
3097.08	5.8211
3098.36	5.44823
3099.63	4.97641
3100.91	4.47797
3102.19	4.39136
3103.46	4.25089
3104.74	4.19887
3106.01	3.79141
3107.29	3.6776
3108.56	3.23393
3109.84	3.26003
3111.11	2.59163
3112.39	2.23467
3113.66	2.02782
3114.94	2.08556
3116.21	1.75727
3117.48	1.89292
3118.76	1.53487
3120.03	1.59934
3121.3	1.21281
3122.57	1.08012
3123.85	0.961027
3125.12	0.852578
3126.39	0.423711
3127.66	0.11527
3128.93	-0.000293399
3130.21	-0.632247
3131.48	-0.626444
3132.75	-0.492921
3134.02	-0.544691
3135.29	-0.167454
3136.56	-0.401598
3137.83	-0.162616
3139.1	-0.532804
3140.37	-0.464447
3141.64	-0.661458
3142.91	-0.71716
3144.17	-0.925908
3145.44	-1.04588
3146.71	-1.00478
3147.98	-1.35936
3149.25	-1.02804
