#Acq. time (s)=	45
#Accumulations=	2
#Range (cm-¹)=	200...3150
#Windows=	2
#Auto scanning=	Off
#Autofocus=	Off
#Macrospot=	Off
#AutoExposure=	Off
#Spike filter=	Multiple accum.
#Delay time (s)=	0
#Binning=	1
#Readout mode=	Signal
#DeNoise=	Off
#ICS correction=	On
#Dark correction=	Off
#Inst. Process=	Off
#Detector Gain=	Best Dynamic Range
#Detector ADC=	20 kHz       
#Detector temperature (°C)=	-69.85
#Instrument=	LabRAM HR Evol
#Detector=	Synapse
#Objective=	x100
#Grating=	600 gr/mm
#ND Filter=	100%
#Laser (nm)=	532 
#Hole=	100.021
#Range=	Auto
#Laser Pol.=	No
#Raman. Pol.=	No
#Laser Pol. (°)=	-0.0007625
#Raman Pol. (°)=	89.9995
#Collection=	Microscope
#StageXY=	Marzhauser
#StageZ=	Marzhauser
#X (µm)=	8979
#Y (µm)=	-3071.3
#Z (µm)=	-55.05
#Full time(mm:ss)=	3:18
#Project=	
#Sample=	
#Site=	
#Title=	Thy_00_07_31_2x_45s_532 nm_x100_100%_600 gr_mm
#Remark=	
#Date=	28.06.2022 12:22
#Acquired=	28.06.2022 12:22:35
#Base:Fit=	10.08.2022 10:07:56
#Base:Sub=	10.08.2022 10:08:40
#Filter:Polynom=	16.08.2022 10:26:06
#AxisType[0]=Intens
#AxisUnit[0]=Cnt
#AxisType[1]=Spectr
#AxisUnit[1]=1/cm
200.407	0.579406
202.221	1.51989
204.035	2.30386
205.849	3.12513
207.665	3.85181
209.478	4.79666
211.291	5.92206
213.104	7.36908
214.916	9.21878
216.73	10.7544
218.541	11.5669
220.352	12.7375
222.163	13.7574
223.973	13.5755
225.785	14.4338
227.595	14.0183
229.404	14.1248
231.213	14.3937
233.022	14.2543
234.83	14.3505
236.638	13.796
238.448	13.2125
240.255	13.7171
242.062	13.0722
243.868	12.4322
245.675	12.3161
247.48	11.7673
249.286	11.605
251.091	11.1906
252.896	10.9415
254.702	10.5992
256.506	10.0688
258.31	9.12768
260.113	9.96522
261.916	9.52244
263.719	9.74604
265.521	9.34128
267.323	9.0027
269.125	9.78866
270.926	9.95996
272.727	10.6261
274.527	11.4989
276.328	11.7015
278.127	10.9619
279.927	10.819
281.726	11.7211
283.525	12.6382
285.323	12.5205
287.121	13.1779
288.919	13.8075
290.716	14.0624
292.513	15.0803
294.31	15.9553
296.104	17.1218
297.9	17.9288
299.696	18.6978
301.491	19.3571
303.286	20.8689
305.081	21.6556
306.875	21.614
308.669	21.7403
310.463	22.3933
312.256	22.3978
314.047	22.4376
315.839	23.3398
317.631	23.7423
319.423	24.4824
321.215	24.868
323.006	24.3621
324.794	24.4894
326.585	24.0798
328.375	24.0689
330.165	23.958
331.954	22.7867
333.741	22.7359
335.53	22.9733
337.318	22.0523
339.106	21.9157
340.894	21.6993
342.679	21.5976
344.466	21.8608
346.253	21.1989
348.039	21.6981
349.823	22.1775
351.608	20.561
353.393	20.9377
355.176	20.2771
356.961	20.6104
358.745	20.5084
360.529	20.3968
362.31	20.0605
364.093	19.1377
365.876	18.1877
367.657	17.3937
369.439	17.8821
371.221	18.7635
373	18.3808
374.781	17.75
376.56	17.6532
378.34	17.2961
380.12	16.8103
381.898	17.0021
383.677	15.6481
385.456	15.2817
387.233	14.8736
389.011	15.0496
390.787	15.2026
392.565	14.7504
394.34	13.8982
396.117	13.7179
397.894	13.6247
399.668	13.6393
401.444	14.0318
403.217	14.1746
404.993	14.1514
406.766	14.3564
408.54	13.9814
410.312	13.7592
412.086	13.4786
413.858	14.6194
415.631	14.4461
417.402	14.4359
419.174	14.8896
420.944	15.3631
422.716	15.3068
424.486	15.2853
426.257	14.9979
428.025	15.3203
429.794	15.8471
431.564	15.3647
433.332	14.955
435.101	14.3258
436.868	14.4148
438.637	13.4915
440.403	13.7381
442.169	15.7479
443.937	17.0068
445.703	18.134
447.468	19.65
449.234	22.0153
450.999	22.6579
452.765	24.8223
454.528	27.5783
456.292	29.7936
458.057	31.9969
459.819	33.4364
461.582	35.3257
463.344	36.2264
465.107	37.3161
466.868	37.8886
468.629	38.2708
470.392	39.537
472.152	39.3312
473.912	41.2478
475.672	41.8245
477.433	42.2562
479.192	42.1914
480.951	43.027
482.709	44.1516
484.469	44.4886
486.226	44.6968
487.984	44.5532
489.74	44.8849
491.499	44.755
493.255	44.5418
495.011	44.3778
496.767	43.963
498.522	43.2789
500.277	42.8135
502.033	41.9829
503.788	40.4766
505.541	39.9265
507.295	38.4362
509.048	36.0211
510.801	34.139
512.553	32.2469
514.308	30.1104
516.06	27.5515
517.811	25.7781
519.562	23.8383
521.313	22.0518
523.063	20.7474
524.814	20.0466
526.563	20.0044
528.313	19.4883
530.062	18.7062
531.811	16.8337
533.559	16.2738
535.308	15.7294
537.055	14.5473
538.803	13.869
540.55	13.6463
542.297	13.2378
544.043	13.2403
545.789	12.212
547.535	12.459
549.281	12.966
551.026	11.4047
552.771	10.4148
554.515	9.46781
556.259	9.57603
558.003	9.37369
559.747	8.87569
561.49	9.20677
563.233	8.23627
564.975	8.04447
566.717	8.0578
568.459	8.56598
570.2	8.38217
571.942	8.1728
573.68	8.07513
575.421	6.47288
577.161	7.14444
578.901	6.56495
580.64	6.48362
582.379	6.89372
584.118	7.16565
585.855	7.13604
587.593	7.12051
589.331	7.06
591.068	7.30283
592.805	7.43399
594.54	5.92044
596.277	5.33897
598.013	5.2323
599.749	4.47204
601.484	4.63933
603.217	5.06437
604.952	5.37986
606.687	4.64788
608.421	3.33294
610.153	3.48778
611.886	3.45742
613.619	3.6406
615.35	2.34879
617.083	2.1684
618.815	2.31328
620.547	3.06025
622.276	3.11681
624.008	4.59604
625.738	5.61262
627.467	5.6907
629.197	6.17768
630.927	6.35732
632.655	5.95582
634.384	6.72042
636.113	6.24047
637.839	4.33707
639.568	4.34658
641.293	4.67026
643.021	5.90031
644.748	6.09126
646.473	6.87958
648.2	6.92139
649.924	6.67218
651.65	7.87925
653.376	8.22005
655.099	8.81948
656.824	8.67802
658.546	8.31789
660.271	8.04021
661.993	7.60095
663.716	8.69749
665.438	9.23326
667.161	9.37137
668.881	9.88194
670.604	10.3133
672.324	10.8931
674.045	11.8332
675.765	12.3744
677.486	13.0994
679.204	13.1387
680.925	12.5541
682.643	13.1321
684.361	13.8474
686.08	14.9456
687.797	16.0226
689.516	16.5863
691.232	16.8229
692.95	16.7739
694.666	17.9921
696.382	19.1801
698.099	19.5127
699.813	20.8072
701.528	21.344
703.244	22.491
704.958	23.5082
706.673	24.3554
708.387	25.249
710.099	25.2575
711.814	24.4173
713.526	24.634
715.238	25.4065
716.949	25.9267
718.663	26.5041
720.374	27.0234
722.084	28.2026
723.796	29.0454
725.506	31.165
727.216	31.7508
728.925	32.7876
730.636	33.6118
732.345	34.5078
734.053	35.5497
735.761	36.8928
737.471	38.3968
739.178	39.3398
740.885	40.7228
742.592	41.5557
744.298	43.9374
746.006	46.2107
747.712	47.4746
749.417	49.5656
751.122	51.9765
752.827	53.8175
754.532	56.3492
756.236	57.3813
757.942	58.1497
759.645	58.9278
761.348	60.0768
763.051	61.2492
764.753	62.1063
766.456	63.1412
768.158	64.1802
769.859	65.2915
771.56	66.384
773.261	67.2114
774.964	68.1225
776.664	68.4457
778.364	67.8257
780.064	68.2303
781.763	68.1013
783.462	68.5827
785.16	68.7819
786.859	68.5804
788.557	68.6032
790.255	68.2609
791.952	68.6852
793.649	68.7992
795.346	67.7542
797.042	68.304
798.738	67.8563
800.434	68.2138
802.127	67.9937
803.823	67.6641
805.517	67.3304
807.212	67.1513
808.906	66.3427
810.6	66.711
812.293	67.5151
813.987	68.7337
815.68	69.9651
817.372	70.6789
819.064	71.3474
820.754	72.7495
822.446	74.2011
824.137	75.7844
825.828	76.5207
827.519	77.8989
829.209	79.2022
830.897	79.1614
832.587	79.5984
834.276	79.5779
835.966	80.1085
837.654	79.6594
839.341	79.0616
841.029	78.0838
842.717	78.3486
844.404	78.9486
846.091	78.6451
847.776	77.858
849.463	77.8721
851.149	76.5536
852.833	75.1262
854.519	73.8187
856.204	72.8539
857.889	71.6185
859.572	69.8374
861.256	67.6459
862.94	66.3944
864.622	64.7533
866.305	63.4759
867.988	62.1714
869.669	60.682
871.351	59.5232
873.033	58.0324
874.713	55.7882
876.395	54.4496
878.074	52.715
879.755	49.6338
881.435	48.962
883.114	47.2354
884.794	46.8101
886.471	46.1119
888.15	44.9236
889.829	45.0703
891.506	45.3295
893.184	45.4722
894.861	46.2606
896.538	46.3777
898.214	46.2959
899.891	47.0156
901.566	47.4734
903.242	48.3336
904.916	49.5201
906.592	50.8122
908.266	51.7994
909.941	52.3744
911.614	54.3416
913.288	56.4045
914.961	57.1169
916.635	57.5444
918.306	58.4771
919.979	59.9515
921.651	60.3223
923.321	61.1386
924.994	61.2226
926.664	61.6418
928.336	61.4027
930.005	61.0248
931.674	61.2361
933.345	59.6477
935.014	57.9966
936.682	57.6023
938.352	57.031
940.019	56.2149
941.687	54.7324
943.356	53.5778
945.022	52.3898
946.689	51.1712
948.357	48.9232
950.022	47.6624
951.688	46.3378
953.355	44.2633
955.02	42.2784
956.684	40.0766
958.348	37.7342
960.014	35.4463
961.678	32.958
963.341	30.4022
965.004	30.1707
966.669	28.7956
968.331	28.8016
969.993	27.8342
971.655	26.6395
973.316	26.9716
974.979	26.5697
976.64	26.8949
978.3	26.9664
979.961	27.6046
981.62	28.1997
983.28	28.5424
984.941	28.7259
986.6	28.9403
988.259	29.0805
989.917	29.4045
991.575	29.805
993.233	30.1145
994.89	30.6052
996.547	31.1955
998.204	31.4921
999.86	32.608
1001.52	33.7933
1003.17	34.7284
1004.83	35.8308
1006.49	37.1619
1008.14	37.3807
1009.79	37.8265
1011.45	38.2895
1013.1	38.8282
1014.76	39.5155
1016.41	40.0473
1018.06	41.095
1019.72	41.5243
1021.37	41.8991
1023.02	40.8264
1024.67	41.4282
1026.32	41.7252
1027.97	41.1551
1029.62	40.2072
1031.27	39.3217
1032.92	38.599
1034.57	37.8893
1036.22	36.1568
1037.87	35.1948
1039.52	34.5734
1041.17	32.5633
1042.82	32.2432
1044.47	31.5547
1046.11	32.0552
1047.76	33.4365
1049.41	33.5453
1051.06	34.4244
1052.7	33.9176
1054.35	33.486
1055.99	34.1217
1057.64	33.8872
1059.28	33.4637
1060.93	33.4251
1062.57	33.276
1064.22	32.2602
1065.86	32.1662
1067.5	31.688
1069.15	31.3138
1070.79	32.2265
1072.43	31.902
1074.08	33.7657
1075.72	34.498
1077.36	36.0005
1079	37.852
1080.64	39.0373
1082.28	40.0148
1083.92	40.7939
1085.56	41.9556
1087.2	42.5451
1088.84	42.8337
1090.48	43.0921
1092.12	44.593
1093.76	45.4043
1095.39	46.027
1097.03	46.8995
1098.67	47.2973
1100.31	47.0986
1101.94	47.7322
1103.58	47.7413
1105.22	46.6893
1106.85	47.778
1108.49	47.8681
1110.12	47.9666
1111.76	46.6681
1113.39	46.2057
1115.03	45.2342
1116.66	44.7869
1118.29	44.4694
1119.93	43.9175
1121.56	43.3192
1123.19	42.1593
1124.82	42.7883
1126.46	41.5792
1128.09	41.5073
1129.72	41.48
1131.35	39.8206
1132.98	39.4083
1134.61	38.7169
1136.24	37.8872
1137.87	37.3293
1139.5	36.3314
1141.13	35.2579
1142.76	34.5331
1144.39	33.2505
1146.01	32.3006
1147.64	31.1419
1149.27	29.326
1150.9	28.4167
1152.53	27.1335
1154.15	25.487
1155.78	24.6725
1157.4	22.1397
1159.03	20.6699
1160.65	19.3249
1162.28	17.355
1163.9	15.9284
1165.53	14.5486
1167.15	13.3336
1168.78	11.795
1170.4	10.9532
1172.02	9.89746
1173.65	8.6405
1175.27	8.04494
1176.89	7.05421
1178.51	5.86183
1180.14	5.40012
1181.76	5.70056
1183.38	5.8866
1185	5.5568
1186.62	6.19337
1188.24	7.31952
1189.86	8.18314
1191.48	7.76172
1193.1	7.22765
1194.71	8.43767
1196.33	9.71817
1197.95	11.198
1199.57	11.6991
1201.19	11.9468
1202.8	13.9825
1204.42	14.5609
1206.04	16.0467
1207.65	17.1961
1209.27	18.8481
1210.88	21.0752
1212.5	22.4997
1214.12	24.1968
1215.73	26.0487
1217.35	26.2909
1218.96	27.8076
1220.57	30.2982
1222.19	31.8632
1223.8	33.8088
1225.41	35.5266
1227.03	36.5594
1228.64	37.3559
1230.25	38.369
1231.86	40.4422
1233.47	41.002
1235.08	41.7114
1236.69	41.9857
1238.31	42.8736
1239.92	44.1019
1241.52	44.0718
1243.13	43.9529
1244.74	44.4165
1246.35	44.3239
1247.96	43.7714
1249.57	43.6913
1251.18	43.8698
1252.78	43.6027
1254.39	43.9633
1256	44.2355
1257.6	42.8728
1259.21	42.8415
1260.82	43.6846
1262.42	44.1056
1264.03	42.1984
1265.63	42.3268
1267.24	42.414
1268.84	42.1906
1270.45	41.4539
1272.05	41.6446
1273.65	41.376
1275.26	41.7779
1276.86	41.7587
1278.46	41.774
1280.06	41.2488
1281.67	43.1263
1283.27	45.0318
1284.87	45.3801
1286.47	47.4257
1288.07	48.9045
1289.67	49.8424
1291.27	50.5202
1292.87	51.479
1294.47	52.4747
1296.07	54.1839
1297.67	55.0899
1299.27	58.1735
1300.87	60.1041
1302.47	61.5896
1304.06	63.7915
1305.66	65.9041
1307.26	67.6542
1308.85	70.158
1310.45	73.5241
1312.05	76.2038
1313.64	77.3743
1315.24	79.8386
1316.83	81.9989
1318.43	84.3255
1320.02	86.3289
1321.62	87.4419
1323.21	88.7993
1324.8	89.3038
1326.4	91.2749
1327.99	91.8139
1329.59	92.5323
1331.18	92.7904
1332.77	93.771
1334.36	94.2139
1335.95	94.1066
1337.54	93.2726
1339.14	93.2705
1340.73	93.6308
1342.32	93.1421
1343.91	92.127
1345.5	92.2855
1347.09	91.4144
1348.67	90.7712
1350.26	89.5008
1351.85	89.309
1353.44	88.479
1355.03	88.2164
1356.62	86.9714
1358.2	86.4687
1359.79	84.7476
1361.38	84.5821
1362.96	82.7077
1364.55	80.7576
1366.14	79.2978
1367.72	77.4846
1369.31	75.4468
1370.89	73.7038
1372.48	72.699
1374.06	70.6897
1375.64	69.4544
1377.23	68.3266
1378.81	67.692
1380.39	66.8955
1381.98	66.8507
1383.56	66.7104
1385.14	65.4649
1386.72	64.5162
1388.3	64.6222
1389.89	64.4957
1391.47	63.2376
1393.05	62.5129
1394.63	61.6557
1396.21	60.0855
1397.79	59.791
1399.37	58.4873
1400.95	57.4272
1402.52	56.6761
1404.1	56.8682
1405.68	56.5912
1407.26	55.4179
1408.84	55.7163
1410.42	56.3829
1411.99	56.7051
1413.57	56.035
1415.15	56.3389
1416.72	55.9367
1418.3	57.2604
1419.87	57.8253
1421.45	57.6332
1423.02	58.7089
1424.6	59.8811
1426.17	61.3932
1427.75	62.6094
1429.32	64.4346
1430.89	66.7055
1432.47	68.5886
1434.04	69.4271
1435.61	69.8606
1437.18	70.651
1438.76	72.0117
1440.33	74.4256
1441.9	75.0209
1443.47	75.9609
1445.04	76.0709
1446.61	76.0282
1448.18	76.1242
1449.75	76.3023
1451.32	76.3476
1452.89	75.8026
1454.46	75.1219
1456.03	74.1826
1457.6	74.1567
1459.16	73.2704
1460.73	71.5833
1462.3	68.5689
1463.87	65.6981
1465.43	63.4916
1467	61.7384
1468.56	59.4578
1470.13	56.7917
1471.7	53.8397
1473.26	50.729
1474.83	48.3451
1476.39	46.0145
1477.96	43.0184
1479.52	40.4459
1481.08	38.2187
1482.65	36.1352
1484.21	33.8291
1485.77	31.8999
1487.34	29.4659
1488.9	27.4907
1490.46	24.8225
1492.02	23.1755
1493.58	22.3352
1495.15	20.3021
1496.71	19.626
1498.27	18.1293
1499.83	17.0585
1501.39	16.7963
1502.95	16.3614
1504.51	15.7519
1506.07	15.6187
1507.63	15.8377
1509.18	15.2117
1510.74	14.4913
1512.3	14.0904
1513.86	13.258
1515.41	13.4036
1516.97	14.3542
1518.53	13.5333
1520.08	12.9209
1521.64	13.2646
1523.2	12.755
1524.75	12.5429
1526.31	12.9525
1527.86	14.0728
1529.42	14.0368
1530.97	14.0732
1532.52	14.3518
1534.08	15.4476
1535.63	16.1325
1537.19	15.6465
1538.74	15.831
1540.29	16.138
1541.84	17.0943
1543.4	18.2284
1544.95	20.1195
1546.5	21.0515
1548.05	22.2828
1549.6	23.2313
1551.15	25.4242
1552.7	26.8475
1554.25	28.1208
1555.8	30.2323
1557.35	31.496
1558.9	33.8053
1560.45	36.0351
1562	37.3686
1563.54	38.2256
1565.09	39.2216
1566.64	41.0398
1568.19	42.0328
1569.73	43.5666
1571.28	44.5105
1572.83	44.9303
1574.37	46.3144
1575.92	46.6744
1577.47	47.3903
1579.01	48.2558
1580.56	49.3189
1582.1	49.705
1583.64	50.8116
1585.19	51.5833
1586.73	52.121
1588.28	52.4293
1589.82	53.2715
1591.36	54.2351
1592.9	55.7744
1594.45	56.2569
1595.99	56.1893
1597.53	57.0371
1599.07	57.0629
1600.61	56.7008
1602.15	56.9381
1603.69	57.4738
1605.23	58.1523
1606.77	57.6112
1608.31	57.3246
1609.85	56.788
1611.39	56.3518
1612.93	55.3699
1614.47	55.2141
1616.01	55.1597
1617.55	54.6043
1619.08	54.3241
1620.62	54.2216
1622.16	54.2449
1623.7	53.8365
1625.23	54.3627
1626.77	54.8343
1628.3	54.9727
1629.84	53.7051
1631.37	53.8853
1632.91	54.3443
1634.44	53.9392
1635.98	53.9125
1637.51	53.6826
1639.05	52.7148
1640.58	52.1071
1642.11	51.7496
1643.65	52.6276
1645.18	53.1018
1646.71	53.0633
1648.24	52.7629
1649.78	51.9197
1651.31	51.8318
1652.84	51.3477
1654.37	51.6736
1655.9	51.6351
1657.43	52.8309
1658.96	53.048
1660.49	52.9642
1662.02	52.8685
1663.55	52.8583
1665.08	51.6901
1666.61	51.6919
1668.14	51.3696
1669.66	49.7039
1671.19	48.5329
1672.72	47.8967
1674.25	47.1955
1675.77	45.6344
1677.3	43.9907
1678.83	43.4648
1680.35	42.1788
1681.88	40.7005
1683.4	38.8041
1684.93	36.6894
1686.45	34.6761
1687.98	33.5284
1689.5	31.8494
1691.03	30.9053
1692.55	28.744
1694.07	26.8731
1695.6	24.96
1697.12	23.3211
1698.64	22.4167
1700.17	21.5727
1701.69	20.5502
1703.21	18.9059
1704.73	17.499
1706.25	15.8281
1707.77	14.7345
1709.29	13.1578
1710.81	11.335
1712.33	10.2955
1713.85	10.2365
1715.37	8.95013
1716.89	7.93312
1718.41	7.89367
1719.93	7.75901
1721.45	6.70897
1722.97	5.57894
1724.49	5.10637
1726	4.64156
1727.52	5.17982
1729.04	5.61417
1730.55	5.82046
1732.07	5.94667
1733.59	6.08826
1735.1	5.86878
1736.62	5.15364
1738.13	5.7133
1739.65	5.81838
1741.16	5.12026
1742.68	5.92803
1744.19	6.20127
1745.7	6.33356
1747.22	7.02977
1748.73	6.64181
1750.24	6.74116
1751.76	6.59116
1753.27	6.82171
1754.78	7.14413
1756.29	7.07815
1757.8	6.91208
1759.31	7.19616
1760.83	7.06626
1762.34	7.43043
1763.85	7.44841
1765.36	7.02064
1766.87	6.90484
1768.38	6.20574
1769.89	6.32297
1771.39	6.01203
1772.9	6.24031
1774.41	6.10231
1775.92	5.44679
1777.43	4.96341
1778.94	4.05158
1780.44	4.12751
1781.95	3.07431
1783.46	2.84814
1784.96	2.61828
1786.47	2.35219
1787.97	2.41756
1789.48	2.00848
1790.99	1.00494
1792.49	1.31992
1794	1.85699
1795.5	1.94036
1797	2.12371
1798.51	2.54031
1800.01	2.76124
1801.51	2.77104
1803.02	3.26422
1804.52	3.64254
1806.02	3.48788
1807.53	2.97327
1809.03	2.79561
1810.53	2.78577
1812.03	2.51252
1813.53	2.5881
1815.03	2.29146
1816.53	2.15338
1818.03	2.75523
1819.53	2.98279
1821.03	2.80381
1822.53	2.5816
1824.03	2.73875
1825.53	3.33509
1827.03	3.3555
1828.53	3.14363
1830.02	3.29878
1831.52	3.00182
1833.02	2.47626
1834.52	1.82092
1836.01	1.93151
1837.51	1.67425
1839.01	1.38868
1840.5	1.91941
1842	2.0833
1843.49	2.1904
1844.99	2.21446
1846.48	1.98973
1847.98	2.49838
1849.47	2.78306
1850.97	2.56543
1852.46	2.35103
1853.95	2.07684
1855.45	2.0429
1856.94	1.94005
1858.43	2.22658
1859.93	1.94682
1861.42	2.08995
1862.91	2.48917
1864.4	2.30212
1865.89	2.77423
1867.38	3.3505
1868.87	3.64688
1870.36	4.04933
1871.85	4.07506
1873.34	4.01387
1874.83	3.83895
1876.32	3.25988
1877.81	3.43599
1879.3	3.53243
1880.79	2.77986
1882.28	2.57938
1882.52	3.19508
1884.02	3.14211
1885.51	3.53606
1887.01	3.50714
1888.5	3.59526
1889.99	3.5538
1891.49	3.55741
1892.98	3.50567
1894.47	3.11609
1895.97	3.14164
1897.46	3.28175
1898.95	2.62586
1900.44	2.06768
1901.93	1.58072
1903.42	1.68556
1904.91	1.87053
1906.4	2.35621
1907.89	2.44108
1909.38	2.53498
1910.87	2.37578
1912.36	3.00535
1913.85	2.97859
1915.34	2.96791
1916.83	3.41779
1918.32	2.80264
1919.8	2.57402
1921.29	2.70563
1922.78	2.30011
1924.27	1.39808
1925.75	1.59058
1927.24	1.93932
1928.73	2.03401
1930.21	2.71203
1931.7	2.76668
1933.18	2.42165
1934.67	2.99049
1936.15	3.03045
1937.64	3.04334
1939.12	3.51014
1940.61	3.66075
1942.09	3.57306
1943.57	3.33838
1945.06	3.43639
1946.54	3.41528
1948.02	4.00277
1949.51	4.05724
1950.99	4.89931
1952.47	5.26228
1953.95	5.3162
1955.43	6.27445
1956.91	6.58517
1958.4	6.65126
1959.88	6.70012
1961.36	6.51919
1962.84	6.64189
1964.32	6.85924
1965.8	7.24208
1967.27	7.21174
1968.75	6.74587
1970.23	6.93537
1971.71	7.33817
1973.19	7.0724
1974.67	7.78822
1976.14	8.21765
1977.62	8.55894
1979.1	8.32701
1980.58	8.15858
1982.05	7.49209
1983.53	7.08525
1985	7.69696
1986.48	7.967
1987.95	7.48721
1989.43	7.05263
1990.9	6.1946
1992.38	5.05532
1993.85	5.07184
1995.33	5.18768
1996.8	4.467
1998.27	4.70599
1999.75	5.14625
2001.22	4.6638
2002.69	4.28274
2004.16	4.40612
2005.64	4.14979
2007.11	4.03184
2008.58	4.32355
2010.05	4.16748
2011.52	4.27868
2012.99	4.2897
2014.46	4.15573
2015.93	3.81116
2017.4	4.01765
2018.87	4.53172
2020.34	4.89259
2021.81	5.13953
2023.28	4.81848
2024.75	5.07359
2026.22	5.25462
2027.69	5.02626
2029.15	5.27575
2030.62	5.30929
2032.09	5.42403
2033.56	5.88667
2035.02	5.87763
2036.49	5.98083
2037.96	5.80423
2039.42	5.56373
2040.89	5.70927
2042.35	6.01452
2043.82	6.55071
2045.28	6.69959
2046.75	6.61834
2048.21	6.95307
2049.67	6.6334
2051.14	6.80769
2052.6	7.55463
2054.07	7.64122
2055.53	7.05512
2056.99	7.05464
2058.45	7.20593
2059.92	6.87889
2061.38	6.57993
2062.84	6.59848
2064.3	6.87107
2065.76	7.2725
2067.22	7.81258
2068.68	8.35521
2070.14	8.19875
2071.6	9.08143
2073.06	8.82963
2074.52	8.75274
2075.98	8.81214
2077.44	8.89113
2078.9	8.68342
2080.36	8.08578
2081.82	7.88513
2083.27	7.68884
2084.73	8.02358
2086.19	7.59032
2087.65	7.17236
2089.1	6.77843
2090.56	6.95562
2092.02	6.81671
2093.47	6.82942
2094.93	6.75422
2096.38	6.96321
2097.84	6.98209
2099.29	7.22132
2100.75	7.10433
2102.2	7.27475
2103.66	7.01636
2105.11	7.42885
2106.56	7.22691
2108.02	6.47075
2109.47	6.59091
2110.92	6.37388
2112.38	6.61883
2113.83	6.60798
2115.28	6.4671
2116.73	6.60787
2118.18	7.22065
2119.63	7.20972
2121.09	6.91679
2122.54	6.89519
2123.99	6.93236
2125.44	6.51746
2126.89	5.36682
2128.34	5.79532
2129.79	5.69723
2131.23	5.92669
2132.68	5.67541
2134.13	5.9757
2135.58	5.54323
2137.03	5.14118
2138.48	5.36155
2139.92	5.82439
2141.37	4.89589
2142.82	4.09292
2144.27	3.99396
2145.71	3.92787
2147.16	3.53872
2148.6	3.169
2150.05	3.13937
2151.49	2.42265
2152.94	2.63227
2154.38	2.81095
2155.83	3.47622
2157.27	3.81018
2158.72	3.53702
2160.16	3.42184
2161.6	3.62127
2163.05	3.89806
2164.49	3.99073
2165.93	4.08333
2167.38	4.66793
2168.82	4.98054
2170.26	5.01568
2171.7	5.22678
2173.14	5.0683
2174.58	4.59614
2176.03	4.68434
2177.47	4.90529
2178.91	4.93597
2180.35	5.25302
2181.79	5.58697
2183.23	5.63684
2184.67	5.35248
2186.1	5.33887
2187.54	6.24766
2188.98	6.44671
2190.42	5.74881
2191.86	4.88172
2193.3	4.59228
2194.73	4.42936
2196.17	4.25201
2197.61	4.36985
2199.05	4.54945
2200.48	4.9033
2201.92	4.43712
2203.35	4.36805
2204.79	4.26588
2206.22	4.66694
2207.66	5.09821
2209.1	5.30717
2210.53	5.23437
2211.97	5.07135
2213.4	4.26063
2214.83	4.39349
2216.27	4.81913
2217.7	5.13155
2219.13	5.05044
2220.57	5.11581
2222	4.98738
2223.43	5.20002
2224.86	5.37545
2226.29	5.22765
2227.72	6.1141
2229.16	5.53737
2230.59	5.2557
2232.02	5.34012
2233.45	5.73138
2234.88	5.61225
2236.31	5.33087
2237.74	5.16594
2239.17	5.1986
2240.6	4.76709
2242.03	4.25759
2243.45	3.47544
2244.88	2.98229
2246.31	2.66433
2247.74	2.33273
2249.17	2.42995
2250.59	2.17461
2252.02	1.50805
2253.45	1.11528
2254.87	0.417843
2256.3	-0.0625119
2257.73	0.485799
2259.15	0.573141
2260.58	0.204021
2262	0.00940602
2263.43	0.454238
2264.85	0.638987
2266.28	1.26528
2267.7	1.20853
2269.13	1.6913
2270.55	2.09191
2271.97	2.15066
2273.4	2.51355
2274.82	2.73902
2276.24	3.12156
2277.67	3.37714
2279.09	3.77285
2280.51	3.05845
2281.93	3.66537
2283.35	4.04239
2284.77	4.01942
2286.2	4.29244
2287.62	4.75491
2289.04	5.03006
2290.46	5.19152
2291.88	4.68148
2293.3	4.02404
2294.72	4.27293
2296.13	3.92137
2297.55	4.59761
2298.97	4.49621
2300.39	4.2292
2301.81	4.83402
2303.23	5.34594
2304.64	5.45413
2306.06	5.20375
2307.48	4.86637
2308.89	4.7391
2310.31	4.257
2311.73	4.21203
2313.14	4.16294
2314.56	3.88008
2315.98	4.67575
2317.39	4.7737
2318.81	5.05912
2320.22	5.13295
2321.64	4.7505
2323.05	4.79368
2324.46	5.32244
2325.88	5.62208
2327.29	6.38182
2328.7	6.20105
2330.12	6.03515
2331.53	6.00494
2332.94	5.70255
2334.35	5.80834
2335.77	5.95801
2337.18	5.66806
2338.59	5.24928
2340	5.76344
2341.41	5.16925
2342.82	4.82493
2344.23	4.92812
2345.64	4.7875
2347.05	4.98844
2348.46	5.0914
2349.87	4.97212
2351.28	4.57998
2352.69	4.75575
2354.1	4.25258
2355.51	3.58827
2356.91	3.65042
2358.32	3.37521
2359.73	2.7755
2361.14	2.21092
2362.54	1.70284
2363.95	1.69982
2365.36	2.48466
2366.76	2.08285
2368.17	2.33799
2369.58	2.61743
2370.98	3.12975
2372.39	3.00748
2373.79	2.63249
2375.2	2.42393
2376.6	1.81008
2378	1.79625
2379.41	1.92572
2380.81	2.01732
2382.22	2.11663
2383.62	2.55254
2385.02	2.56987
2386.43	2.68413
2387.83	2.24417
2389.23	2.06874
2390.63	1.52498
2392.03	1.68089
2393.44	1.28856
2394.84	1.18475
2396.24	0.52321
2397.64	-0.0404155
2399.04	-0.933402
2400.44	-0.684166
2401.84	-0.851698
2403.24	-0.61332
2404.64	-0.446266
2406.04	-0.258874
2407.44	-1.11926
2408.84	-0.395918
2410.23	0.0940992
2411.63	0.480356
2413.03	1.78692
2414.43	2.25334
2415.83	2.3505
2417.22	2.84049
2418.62	2.66134
2420.02	2.70207
2421.41	3.19501
2422.81	3.46864
2424.21	4.03823
2425.6	3.93232
2427	4.36973
2428.39	3.9434
2429.79	4.1537
2431.18	3.9922
2432.58	4.5424
2433.97	4.76622
2435.36	5.01496
2436.76	4.27622
2438.15	4.33439
2439.54	4.6608
2440.94	4.13199
2442.33	4.59819
2443.72	4.53065
2445.12	4.90943
2446.51	5.0259
2447.9	4.87002
2449.29	4.46165
2450.68	4.09091
2452.07	4.13064
2453.46	4.77689
2454.85	4.21838
2456.24	3.78963
2457.64	4.09452
2459.02	3.6957
2460.41	3.44335
2461.8	2.99899
2463.19	2.32982
2464.58	1.97488
2465.97	1.90562
2467.36	1.88891
2468.75	2.07683
2470.13	2.28029
2471.52	2.66128
2472.91	2.58759
2474.3	2.23017
2475.68	2.15147
2477.07	2.07324
2478.45	2.68893
2479.84	2.89734
2481.23	2.92703
2482.61	2.80123
2484	2.23483
2485.38	1.92802
2486.77	2.02688
2488.15	1.69252
2489.54	1.54322
2490.92	1.17582
2492.3	1.13167
2493.69	1.11466
2495.07	0.338332
2496.45	0.151274
2497.84	-0.127176
2499.22	0.31127
2500.6	-0.115658
2501.98	0.505599
2503.36	-0.0139258
2504.75	-0.587163
2506.13	-0.902974
2507.51	-0.443104
2508.89	-0.208005
2510.27	-0.331496
2511.65	-0.0261955
2513.03	-0.560869
2514.41	-0.344966
2515.79	-0.74207
2517.17	-0.262639
2518.55	0.119822
2519.93	0.320645
2521.3	0.932336
2522.68	1.15676
2524.06	1.3374
2525.44	1.58907
2526.82	1.95063
2528.19	1.54996
2529.57	1.93903
2530.95	2.07012
2532.32	2.07433
2533.7	2.04799
2535.08	2.89702
2536.45	3.05514
2537.83	3.09088
2539.2	3.39446
2540.58	3.08379
2541.95	2.89261
2543.33	3.02173
2544.7	3.69575
2546.08	4.30999
2547.45	4.29022
2548.82	4.43393
2550.2	4.08538
2551.57	4.19042
2552.94	3.89661
2554.32	3.65854
2555.69	3.71422
2557.06	3.29585
2558.43	3.36384
2559.8	3.38458
2561.18	4.00866
2562.55	3.37176
2563.92	3.17703
2565.29	3.02445
2566.66	3.29281
2568.03	3.56078
2569.4	3.16321
2570.77	2.92673
2572.14	2.50989
2573.51	2.60073
2574.88	2.71833
2576.25	3.14881
2577.61	3.22142
2578.98	3.4427
2580.35	3.34725
2581.72	3.64346
2583.09	3.81982
2584.45	4.12719
2585.82	4.36234
2587.19	3.93333
2588.55	3.97601
2589.92	4.51371
2591.29	4.51488
2592.65	4.56972
2594.02	4.09147
2595.38	3.74313
2596.75	3.67124
2598.11	3.82939
2599.48	3.71866
2600.84	3.68063
2602.21	4.30757
2603.57	4.65475
2604.93	4.44909
2606.3	4.08274
2607.66	4.12273
2609.02	3.64516
2610.39	4.07954
2611.75	3.83946
2613.11	4.18231
2614.47	4.16406
2615.83	3.81215
2617.19	3.73759
2618.56	4.06542
2619.92	4.13799
2621.28	4.20164
2622.64	4.35475
2624	4.46815
2625.36	4.14185
2626.72	4.3948
2628.08	4.43347
2629.44	4.83153
2630.8	4.29926
2632.15	4.14678
2633.51	4.48117
2634.87	5.27641
2636.23	5.64813
2637.59	5.66476
2638.94	6.05975
2640.3	6.5997
2641.66	6.98429
2643.02	7.24175
2644.37	8.00862
2645.73	8.08964
2647.09	7.77327
2648.44	7.84153
2649.8	7.88764
2651.15	7.82781
2652.51	8.08886
2653.86	7.89001
2655.22	8.1757
2656.57	7.85656
2657.93	8.13404
2659.28	8.02468
2660.63	7.97916
2661.99	8.08703
2663.34	7.92802
2664.69	7.94226
2666.05	7.67624
2667.4	7.82746
2668.75	8.16196
2670.1	8.27182
2671.45	7.83703
2672.81	7.38926
2674.16	7.36071
2675.51	7.48528
2676.86	6.95907
2678.21	7.12029
2679.56	6.98799
2680.91	7.01886
2682.26	6.76183
2683.61	5.92019
2684.96	5.83571
2686.31	5.93877
2687.66	5.29525
2689	5.12872
2690.35	5.10642
2691.7	5.02881
2693.05	4.62385
2694.4	5.01573
2695.74	5.74083
2697.09	6.27604
2698.44	6.2072
2699.79	6.85306
2701.13	7.55329
2702.48	7.52734
2703.83	7.71226
2705.17	7.69168
2706.52	7.95732
2707.86	7.96154
2709.21	8.21669
2710.55	8.70131
2711.9	8.85628
2713.24	8.43597
2714.58	8.548
2715.93	8.91764
2717.27	8.68979
2718.62	9.31302
2719.96	9.14778
2721.3	9.24665
2722.65	9.2959
2723.99	9.13542
2725.33	9.81112
2726.67	9.81245
2728.01	9.81421
2729.35	9.59413
2730.7	9.90496
2732.04	9.53201
2733.38	9.53375
2734.72	9.7731
2736.06	9.78906
2737.4	9.53549
2738.74	9.68493
2740.08	9.67974
2741.42	9.64876
2742.76	9.45306
2744.1	9.45913
2745.43	10.1774
2746.77	9.86024
2748.11	10.0661
2749.45	9.79768
2750.79	9.43547
2752.12	9.40405
2753.46	8.97187
2754.8	8.65138
2756.14	8.67198
2757.47	8.74654
2758.81	8.61733
2760.14	8.40391
2761.48	8.57056
2762.81	8.45637
2764.15	8.28234
2765.49	8.22175
2766.82	8.20911
2768.16	7.90525
2769.49	7.68332
2770.82	7.39671
2772.16	7.15157
2773.49	7.20921
2774.82	7.28628
2776.16	7.25755
2777.49	7.35278
2778.82	6.74761
2780.16	6.56441
2781.49	6.77826
2782.82	6.18383
2784.15	5.64792
2785.48	5.34046
2786.82	4.92446
2788.15	5.20474
2789.48	5.16053
2790.81	5.3051
2792.14	5.34695
2793.47	5.55436
2794.8	5.95174
2796.13	6.57432
2797.46	6.99729
2798.79	7.05403
2800.12	7.4284
2801.44	7.696
2802.77	8.59103
2804.1	9.41162
2805.43	9.78238
2806.76	9.90394
2808.08	9.85167
2809.41	10.6193
2810.74	10.5846
2812.07	10.0063
2813.39	9.75328
2814.72	10.4873
2816.05	10.4157
2817.37	10.5774
2818.7	10.4466
2820.02	11.1205
2821.35	11.8951
2822.67	12.4066
2824	13.7819
2825.32	15.3171
2826.65	16.8556
2827.97	18.741
2829.3	20.6751
2830.62	22.9138
2831.94	24.7318
2833.26	26.5252
2834.59	28.1922
2835.91	29.8956
2837.23	32.5722
2838.56	35.5878
2839.88	38.4623
2841.2	41.0832
2842.52	43.4768
2843.84	46.4993
2845.16	49.7244
2846.48	53.4293
2847.8	57.6039
2849.12	60.8505
2850.45	65.0922
2851.77	69.2332
2853.08	73.7109
2854.4	78.6397
2855.72	83.8234
2857.04	88.408
2858.36	93.2469
2859.68	98.9926
2861	103.986
2862.32	108.577
2863.63	112.437
2864.95	117.306
2866.27	121.857
2867.59	126.859
2868.9	131.754
2870.22	135.808
2871.54	139.916
2872.85	144.602
2874.17	148.964
2875.48	153.468
2876.8	157.414
2878.11	161.755
2879.43	167.088
2880.74	171.684
2882.06	175.332
2883.37	179.644
2884.69	183.484
2886	187.986
2887.31	192.229
2888.63	196.815
2889.94	201.567
2891.25	205.698
2892.57	209.41
2893.88	213.135
2895.19	216.943
2896.5	220.479
2897.82	223.523
2899.13	226.549
2900.44	230.071
2901.75	233.924
2903.06	237.935
2904.37	240.829
2905.68	244.242
2906.99	247.394
2908.3	250.903
2909.61	254.689
2910.92	258.383
2912.23	261.719
2913.54	265.334
2914.85	268.001
2916.16	271.118
2917.46	273.495
2918.77	276.706
2920.08	279.629
2921.39	281.095
2922.7	282.72
2924	283.776
2925.31	284.915
2926.62	284.92
2927.92	284.916
2929.23	284.714
2930.54	284.79
2931.84	283.813
2933.15	281.915
2934.45	279.656
2935.76	276.891
2937.06	274.925
2938.37	272.408
2939.67	269.45
2940.98	266.393
2942.28	262.715
2943.58	258.818
2944.89	254.974
2946.19	250.618
2947.49	246.08
2948.8	241.697
2950.1	236.543
2951.4	232.028
2952.7	227.646
2954.01	223.377
2955.31	218.44
2956.61	213.241
2957.91	208.153
2959.21	202.759
2960.51	197.679
2961.81	192.343
2963.11	187.521
2964.41	183.502
2965.71	179.273
2967.01	174.492
2968.31	169.699
2969.61	165.157
2970.91	161.293
2972.21	157.161
2973.51	152.931
2974.81	148.55
2976.1	144.627
2977.4	141.005
2978.7	137.003
2980	132.437
2981.29	128.409
2982.59	124.621
2983.89	120.455
2985.18	115.704
2986.48	111.396
2987.78	107.295
2989.07	102.522
2990.37	98.3292
2991.66	94.2912
2992.96	90.1394
2994.25	85.4613
2995.55	80.5678
2996.84	75.9342
2998.14	71.933
2999.43	67.8532
3000.73	63.3443
3002.02	59.9813
3003.31	56.0739
3004.61	52.6055
3005.9	48.4745
3007.19	44.5043
3008.48	40.7108
3009.77	38.0447
3011.07	35.0283
3012.36	32.6326
3013.65	29.9946
3014.94	27.7303
3016.23	25.9001
3017.52	23.8071
3018.81	22.4125
3020.1	19.9048
3021.4	17.6926
3022.68	15.5606
3023.97	13.5321
3025.26	12.7376
3026.55	11.6508
3027.84	10.5855
3029.13	10.0058
3030.42	8.84358
3031.71	8.44116
3033	7.98941
3034.28	7.74516
3035.57	7.28931
3036.86	7.12344
3038.15	7.13831
3039.43	7.87059
3040.72	7.93907
3042.01	8.10689
3043.29	7.93444
3044.58	8.55467
3045.87	8.62847
3047.15	8.93723
3048.44	9.15621
3049.72	9.87182
3051.01	10.3701
3052.29	10.5473
3053.58	10.9339
3054.86	11.481
3056.15	12.1265
3057.43	11.8005
3058.71	11.565
3060	11.7701
3061.28	11.8574
3062.56	11.7357
3063.84	11.1134
3065.13	10.6117
3066.41	10.7022
3067.69	10.4733
3068.97	9.9535
3070.26	9.07158
3071.54	8.53081
3072.82	8.19825
3074.1	8.50556
3075.38	7.80854
3076.66	7.62571
3077.94	6.65074
3079.22	6.19287
3080.5	5.4558
3081.78	4.55083
3083.06	3.89975
3084.34	2.2167
3085.62	1.2961
3086.9	0.946732
3088.18	0.92901
3089.45	0.744268
3090.73	0.0322425
3092.01	-0.116972
3093.29	-0.114641
3094.56	-0.44155
3095.84	-0.724596
3097.12	-0.731708
3098.4	-0.85193
3099.67	-0.784622
3100.95	-0.524144
3102.22	-0.527967
3103.5	-0.700963
3104.78	-0.727322
3106.05	-0.447768
3107.33	0.0616937
3108.6	0.726025
3109.88	0.871995
3111.15	1.72127
3112.43	2.17078
3113.7	2.57903
3114.97	2.95359
3116.25	3.5434
3117.52	4.14538
3118.79	4.66859
3120.07	5.01902
3121.34	5.23696
3122.61	5.64112
3123.88	6.14569
3125.16	6.29994
3126.43	7.00242
3127.7	7.40324
3128.97	7.72129
3130.24	8.287
3131.51	8.97737
3132.79	9.21445
3134.06	9.67106
3135.33	10.0083
3136.6	10.7253
3137.87	11.1001
3139.14	11.3537
3140.41	11.6881
3141.67	11.6335
3142.94	11.6918
3144.21	11.5956
3145.48	11.3998
3146.75	11.1756
3148.02	10.9384
3149.29	10.0097
