#Acq. time (s)=	45
#Accumulations=	2
#Range (cm-¹)=	200...3150
#Windows=	2
#Auto scanning=	Off
#Autofocus=	Off
#Macrospot=	Off
#AutoExposure=	Off
#Spike filter=	Multiple accum.
#Delay time (s)=	0
#Binning=	1
#Readout mode=	Signal
#DeNoise=	Off
#ICS correction=	On
#Dark correction=	Off
#Inst. Process=	Off
#Detector Gain=	Best Dynamic Range
#Detector ADC=	20 kHz       
#Detector temperature (°C)=	-69.85
#Instrument=	LabRAM HR Evol
#Detector=	Synapse
#Objective=	x100
#Grating=	600 gr/mm
#ND Filter=	100%
#Laser (nm)=	532 
#Hole=	100.021
#Range=	Auto
#Laser Pol.=	No
#Raman. Pol.=	No
#Laser Pol. (°)=	-0.0007625
#Raman Pol. (°)=	89.9995
#Collection=	Microscope
#StageXY=	Marzhauser
#StageZ=	Marzhauser
#X (µm)=	9001.5
#Y (µm)=	-3061.6
#Z (µm)=	-55.2
#Full time(mm:ss)=	3:19
#Project=	
#Sample=	
#Site=	
#Title=	Thy_00_07_25_2x_45s_532 nm_x100_100%_600 gr_mm
#Remark=	
#Date=	28.06.2022 11:57
#Acquired=	28.06.2022 11:57:38
#Base:Fit=	10.08.2022 10:07:56
#Base:Sub=	10.08.2022 10:08:40
#Filter:Polynom=	16.08.2022 10:26:06
#AxisType[0]=Intens
#AxisUnit[0]=Cnt
#AxisType[1]=Spectr
#AxisUnit[1]=1/cm
200.407	38.8667
202.221	40.6732
204.035	41.4694
205.849	41.5288
207.665	41.0298
209.478	41.1761
211.291	40.9219
213.104	40.4489
214.916	39.9024
216.73	39.4708
218.541	39.189
220.352	38.6681
222.163	38.4734
223.973	36.8122
225.785	35.7672
227.595	34.9553
229.404	34.3388
231.213	34.3277
233.022	34.1093
234.83	34.5169
236.638	33.1713
238.448	32.1168
240.255	30.5688
242.062	30.2406
243.868	29.1583
245.675	28.6372
247.48	26.3749
249.286	24.1693
251.091	22.1713
252.896	20.9761
254.702	20.5924
256.506	19.9799
258.31	19.073
260.113	18.2416
261.916	17.3452
263.719	17.0658
265.521	16.587
267.323	14.5731
269.125	13.3442
270.926	12.6882
272.727	12.1285
274.527	10.8933
276.328	9.41765
278.127	8.44125
279.927	7.23648
281.726	6.78456
283.525	5.92093
285.323	5.30374
287.121	4.7001
288.919	3.5125
290.716	3.90992
292.513	4.86005
294.31	5.0791
296.104	5.71041
297.9	6.62561
299.696	6.21283
301.491	6.6985
303.286	7.44164
305.081	8.38519
306.875	9.52751
308.669	9.84623
310.463	10.3496
312.256	10.8586
314.047	11.213
315.839	11.8784
317.631	12.5075
319.423	13.816
321.215	15.1193
323.006	15.3142
324.794	15.1366
326.585	14.7827
328.375	15.8385
330.165	15.9488
331.954	16.865
333.741	16.6891
335.53	16.6164
337.318	15.7652
339.106	15.5863
340.894	15.9533
342.679	15.6312
344.466	15.8283
346.253	14.6793
348.039	14.1122
349.823	14.0265
351.608	13.492
353.393	12.6048
355.176	11.2893
356.961	11.2543
358.745	11.0153
360.529	9.93852
362.31	8.73584
364.093	7.63962
365.876	6.96215
367.657	7.42376
369.439	7.00767
371.221	6.1729
373	6.0104
374.781	6.13744
376.56	6.19351
378.34	6.02166
380.12	6.30565
381.898	6.08097
383.677	5.51802
385.456	6.09757
387.233	6.20813
389.011	6.67419
390.787	7.10409
392.565	6.66282
394.34	6.08233
396.117	6.03389
397.894	5.42686
399.668	5.18819
401.444	4.26013
403.217	3.85483
404.993	4.23219
406.766	5.2683
408.54	6.43881
410.312	6.29159
412.086	5.46916
413.858	5.686
415.631	6.55307
417.402	7.32169
419.174	6.91954
420.944	7.05944
422.716	6.29599
424.486	5.8215
426.257	5.70465
428.025	5.53616
429.794	6.51109
431.564	5.62149
433.332	5.27381
435.101	4.66754
436.868	4.02777
438.637	3.63959
440.403	3.71023
442.169	4.79867
443.937	5.34164
445.703	6.02928
447.468	5.79201
449.234	5.68413
450.999	5.72283
452.765	6.07729
454.528	7.1451
456.292	8.44608
458.057	8.94929
459.819	10.0846
461.582	12.4122
463.344	12.8594
465.107	13.4517
466.868	14.7119
468.629	15.3703
470.392	16.3138
472.152	17.6084
473.912	18.517
475.672	19.3973
477.433	20.9367
479.192	21.207
480.951	21.893
482.709	22.9988
484.469	24.721
486.226	25.4535
487.984	26.557
489.74	27.253
491.499	28.4658
493.255	29.3318
495.011	28.9896
496.767	29.0682
498.522	28.9033
500.277	29.1877
502.033	30.0868
503.788	29.9349
505.541	29.6983
507.295	28.6755
509.048	28.0686
510.801	27.9591
512.553	27.5677
514.308	26.0809
516.06	25.4254
517.811	24.3396
519.562	22.2855
521.313	21.5628
523.063	19.9986
524.814	19.949
526.563	19.9918
528.313	19.5286
530.062	18.5391
531.811	15.6411
533.559	14.2989
535.308	13.2737
537.055	12.6465
538.803	12.056
540.55	12.4974
542.297	12.8823
544.043	11.962
545.789	12.0826
547.535	11.7119
549.281	11.5888
551.026	10.6438
552.771	10.8208
554.515	10.8004
556.259	11.005
558.003	10.7032
559.747	10.5365
561.49	10.7003
563.233	11.1309
564.975	11.0913
566.717	11.0291
568.459	10.4759
570.2	10.4925
571.942	10.4814
573.68	10.1468
575.421	9.64172
577.161	8.62904
578.901	8.0472
580.64	7.68017
582.379	7.37507
584.118	7.95269
585.855	7.89907
587.593	7.2653
589.331	7.0845
591.068	7.27075
592.805	6.94419
594.54	5.98405
596.277	5.76164
598.013	4.53305
599.749	3.82622
601.484	3.18776
603.217	3.79965
604.952	3.23446
606.687	2.60008
608.421	2.68587
610.153	2.16494
611.886	2.47281
613.619	1.38235
615.35	0.0577048
617.083	-0.408589
618.815	-0.417127
620.547	0.521758
622.276	0.657866
624.008	1.88482
625.738	1.55905
627.467	2.02711
629.197	2.90044
630.927	3.2169
632.655	4.86492
634.384	6.04571
636.113	6.64523
637.839	7.73013
639.568	8.74631
641.293	9.05358
643.021	9.92027
644.748	8.90417
646.473	10.5883
648.2	12.0351
649.924	12.5602
651.65	13.419
653.376	14.4798
655.099	14.998
656.824	16.1205
658.546	17.3749
660.271	18.0346
661.993	18.2156
663.716	19.3589
665.438	19.7299
667.161	20.3186
668.881	21.456
670.604	22.3936
672.324	23.1664
674.045	22.9217
675.765	24.1658
677.486	24.9808
679.204	24.8786
680.925	25.5447
682.643	26.3802
684.361	27.0059
686.08	28.4845
687.797	28.9019
689.516	29.5913
691.232	30.0859
692.95	31.1685
694.666	32.151
696.382	31.9495
698.099	32.6498
699.813	32.6318
701.528	33.0705
703.244	33.9549
704.958	33.9664
706.673	34.7394
708.387	36.2662
710.099	36.9047
711.814	37.1177
713.526	38.5578
715.238	39.8249
716.949	40.6123
718.663	41.6907
720.374	42.5655
722.084	43.2122
723.796	44.2528
725.506	44.1544
727.216	45.0537
728.925	46.8373
730.636	46.9255
732.345	49.326
734.053	50.2207
735.761	52.0895
737.471	54.5387
739.178	56.7018
740.885	58.322
742.592	59.3784
744.298	61.194
746.006	62.8329
747.712	65.055
749.417	66.9402
751.122	68.5986
752.827	71.3054
754.532	74.3057
756.236	76.4636
757.942	78.476
759.645	79.2863
761.348	80.9686
763.051	81.7987
764.753	82.2673
766.456	82.9013
768.158	83.3066
769.859	84.8703
771.56	85.3945
773.261	85.9198
774.964	86.5435
776.664	87.5281
778.364	87.7935
780.064	87.4541
781.763	86.8194
783.462	88.0402
785.16	87.224
786.859	87.2091
788.557	86.584
790.255	86.215
791.952	86.633
793.649	86.5695
795.346	85.3727
797.042	85.5018
798.738	85.3223
800.434	85.0719
802.127	84.6166
803.823	84.5053
805.517	84.6232
807.212	83.5127
808.906	82.7818
810.6	82.2891
812.293	82.9287
813.987	83.3616
815.68	83.5873
817.372	85.2048
819.064	86.6335
820.754	87.6916
822.446	88.3197
824.137	89.2959
825.828	89.9251
827.519	90.002
829.209	91.1981
830.897	92.8507
832.587	94.2054
834.276	95.0314
835.966	95.8925
837.654	96.3685
839.341	96.0895
841.029	95.539
842.717	94.5857
844.404	93.7443
846.091	93.0172
847.776	92.9785
849.463	92.8792
851.149	91.6851
852.833	91.4802
854.519	90.6938
856.204	89.1774
857.889	87.9048
859.572	87.0219
861.256	85.5333
862.94	84.2361
864.622	82.9523
866.305	81.8911
867.988	81.6552
869.669	79.2274
871.351	78.3656
873.033	77.0629
874.713	75.9936
876.395	74.9721
878.074	73.4763
879.755	71.6048
881.435	70.5534
883.114	68.9667
884.794	68.3567
886.471	66.842
888.15	65.3816
889.829	63.7376
891.506	62.3855
893.184	62.4985
894.861	62.3342
896.538	62.5769
898.214	63.001
899.891	63.0617
901.566	63.4479
903.242	63.6285
904.916	63.652
906.592	64.6935
908.266	65.7126
909.941	66.5415
911.614	66.7476
913.288	67.5529
914.961	68.2913
916.635	68.212
918.306	68.9533
919.979	68.8633
921.651	69.4286
923.321	69.3796
924.994	69.649
926.664	69.0307
928.336	68.5673
930.005	68.9096
931.674	67.7663
933.345	66.2602
935.014	64.629
936.682	64.3888
938.352	62.6694
940.019	61.5191
941.687	61.2334
943.356	60.9046
945.022	60.6904
946.689	60.5094
948.357	59.5824
950.022	58.7871
951.688	57.7769
953.355	57.097
955.02	56.5848
956.684	54.7368
958.348	52.0947
960.014	49.8615
961.678	47.7293
963.341	46.9423
965.004	46.8342
966.669	47.3411
968.331	47.2185
969.993	46.1054
971.655	46.5476
973.316	46.8172
974.979	48.0326
976.64	48.7656
978.3	48.8601
979.961	48.9522
981.62	49.2942
983.28	50.0819
984.941	50.1438
986.6	50.1008
988.259	51.5115
989.917	52.3218
991.575	52.0941
993.233	52.2332
994.89	52.6566
996.547	53.3789
998.204	53.9572
999.86	54.3988
1001.52	55.1363
1003.17	55.6195
1004.83	55.7496
1006.49	55.6222
1008.14	55.038
1009.79	55.1821
1011.45	55.9261
1013.1	55.9295
1014.76	53.9728
1016.41	54.0146
1018.06	54.7214
1019.72	54.0282
1021.37	53.2991
1023.02	53.4911
1024.67	53.3775
1026.32	52.8957
1027.97	52.0396
1029.62	50.8522
1031.27	49.0231
1032.92	47.3457
1034.57	46.4456
1036.22	45.0467
1037.87	42.8151
1039.52	40.7965
1041.17	38.8212
1042.82	39.1943
1044.47	40.4457
1046.11	41.1988
1047.76	41.9948
1049.41	41.5379
1051.06	40.0887
1052.7	39.8766
1054.35	40.6871
1055.99	40.9246
1057.64	40.898
1059.28	40.575
1060.93	40.1709
1062.57	39.8807
1064.22	39.8691
1065.86	40.1609
1067.5	39.3664
1069.15	39.7651
1070.79	41.0103
1072.43	41.2878
1074.08	41.1124
1075.72	42.2826
1077.36	43.0148
1079	43.9236
1080.64	44.302
1082.28	45.0411
1083.92	45.0281
1085.56	46.2345
1087.2	46.0898
1088.84	46.2753
1090.48	46.5186
1092.12	47.68
1093.76	47.7317
1095.39	47.2454
1097.03	47.3462
1098.67	47.587
1100.31	46.9897
1101.94	45.4445
1103.58	45.8547
1105.22	45.8494
1106.85	45.2385
1108.49	44.3482
1110.12	43.2722
1111.76	42.0153
1113.39	40.4558
1115.03	40.0372
1116.66	38.6487
1118.29	37.519
1119.93	36.6211
1121.56	36.0404
1123.19	35.6808
1124.82	35.6401
1126.46	35.1093
1128.09	33.2686
1129.72	32.9396
1131.35	30.9316
1132.98	29.7147
1134.61	29.0228
1136.24	28.41
1137.87	27.8044
1139.5	26.395
1141.13	25.5248
1142.76	24.4214
1144.39	23.8305
1146.01	22.7196
1147.64	22.0296
1149.27	20.8543
1150.9	20.4673
1152.53	19.8151
1154.15	18.1589
1155.78	16.0902
1157.4	15.1638
1159.03	13.6126
1160.65	12.7005
1162.28	11.0275
1163.9	10.2129
1165.53	9.16223
1167.15	9.53437
1168.78	8.89383
1170.4	8.8608
1172.02	9.61609
1173.65	10.0963
1175.27	10.6464
1176.89	11.1197
1178.51	11.1269
1180.14	11.2121
1181.76	11.475
1183.38	12.2334
1185	13.5214
1186.62	13.5264
1188.24	14.1991
1189.86	13.9709
1191.48	15.6168
1193.1	15.9759
1194.71	16.7327
1196.33	17.6055
1197.95	17.7681
1199.57	20.391
1201.19	21.7789
1202.8	22.9585
1204.42	24.4556
1206.04	25.2599
1207.65	27.0425
1209.27	28.1889
1210.88	30.6958
1212.5	32.6579
1214.12	35.1821
1215.73	37.1729
1217.35	39.1249
1218.96	40.5596
1220.57	41.3798
1222.19	43.1146
1223.8	44.8569
1225.41	45.845
1227.03	46.7888
1228.64	48.2429
1230.25	48.1563
1231.86	48.3954
1233.47	48.2374
1235.08	47.1939
1236.69	47.3586
1238.31	47.4621
1239.92	47.8382
1241.52	48.5148
1243.13	48.4271
1244.74	49.4202
1246.35	49.4755
1247.96	50.0344
1249.57	49.8268
1251.18	50.374
1252.78	51.0749
1254.39	49.9731
1256	48.9931
1257.6	48.3704
1259.21	47.1288
1260.82	47.1193
1262.42	46.9031
1264.03	46.533
1265.63	45.6047
1267.24	44.8562
1268.84	44.4452
1270.45	43.955
1272.05	44.3841
1273.65	44.0112
1275.26	44.3666
1276.86	44.7338
1278.46	45.2684
1280.06	46.5138
1281.67	46.7716
1283.27	47.5384
1284.87	48.6304
1286.47	49.1004
1288.07	50.1359
1289.67	50.8259
1291.27	52.7967
1292.87	53.9615
1294.47	53.9225
1296.07	54.1694
1297.67	54.8445
1299.27	56.7113
1300.87	59.1274
1302.47	60.2805
1304.06	61.273
1305.66	62.6698
1307.26	64.1971
1308.85	64.8121
1310.45	65.5927
1312.05	67.4313
1313.64	68.6899
1315.24	69.8426
1316.83	70.9686
1318.43	71.3848
1320.02	72.4331
1321.62	73.4618
1323.21	73.7906
1324.8	74.7307
1326.4	74.5542
1327.99	74.4528
1329.59	74.7403
1331.18	74.5706
1332.77	74.6622
1334.36	74.4083
1335.95	74.1431
1337.54	75.2527
1339.14	74.6625
1340.73	74.1861
1342.32	73.1048
1343.91	71.9481
1345.5	71.7115
1347.09	71.6222
1348.67	71.036
1350.26	70.2227
1351.85	68.8127
1353.44	67.7855
1355.03	66.2326
1356.62	64.3141
1358.2	63.0279
1359.79	62.0529
1361.38	61.0414
1362.96	60.1856
1364.55	58.4998
1366.14	57.1524
1367.72	56.4416
1369.31	54.8845
1370.89	54.276
1372.48	53.0414
1374.06	51.4686
1375.64	51.1565
1377.23	50.4526
1378.81	50.6061
1380.39	49.0603
1381.98	47.4496
1383.56	46.5997
1385.14	46.1806
1386.72	45.7718
1388.3	45.1067
1389.89	45.3402
1391.47	44.867
1393.05	43.493
1394.63	42.5605
1396.21	41.9608
1397.79	41.6782
1399.37	41.2968
1400.95	41.2982
1402.52	40.1419
1404.1	39.2835
1405.68	38.5074
1407.26	38.823
1408.84	39.7297
1410.42	40.753
1411.99	42.0821
1413.57	42.4977
1415.15	43.4411
1416.72	44.805
1418.3	45.4879
1419.87	46.3462
1421.45	48.6653
1423.02	50.7588
1424.6	52.71
1426.17	54.3013
1427.75	55.5399
1429.32	57.2983
1430.89	59.2167
1432.47	62.2
1434.04	64.6149
1435.61	67.1582
1437.18	70.0008
1438.76	72.6401
1440.33	73.8873
1441.9	75.7289
1443.47	76.742
1445.04	77.8936
1446.61	78.8981
1448.18	79.0122
1449.75	80.4053
1451.32	81.1057
1452.89	80.9064
1454.46	80.8635
1456.03	80.5389
1457.6	79.8949
1459.16	77.8274
1460.73	76.9465
1462.3	75.0284
1463.87	73.9106
1465.43	72.2184
1467	68.9587
1468.56	66.1754
1470.13	63.1857
1471.7	59.5905
1473.26	56.0446
1474.83	51.7982
1476.39	48.774
1477.96	45.8538
1479.52	42.8516
1481.08	39.1203
1482.65	35.6747
1484.21	33.0586
1485.77	31.3305
1487.34	28.5252
1488.9	25.681
1490.46	23.3591
1492.02	21.9126
1493.58	20.4392
1495.15	18.4519
1496.71	17.3196
1498.27	16.1797
1499.83	15.3492
1501.39	13.9021
1502.95	13.645
1504.51	13.005
1506.07	12.7773
1507.63	12.6924
1509.18	12.2796
1510.74	12.6861
1512.3	12.1665
1513.86	11.8215
1515.41	12.2625
1516.97	12.7413
1518.53	13.1111
1520.08	14.4062
1521.64	15.1412
1523.2	15.7988
1524.75	16.3959
1526.31	17.7676
1527.86	19.0002
1529.42	19.8559
1530.97	20.0778
1532.52	20.9838
1534.08	22.6375
1535.63	23.4872
1537.19	24.07
1538.74	25.764
1540.29	25.8765
1541.84	26.2648
1543.4	26.8512
1544.95	27.1851
1546.5	29.0532
1548.05	30.3254
1549.6	31.2694
1551.15	32.3777
1552.7	33.5129
1554.25	35.2482
1555.8	37.1084
1557.35	37.8996
1558.9	38.9258
1560.45	39.6151
1562	40.9839
1563.54	42.4141
1565.09	43.9938
1566.64	45.1665
1568.19	46.9789
1569.73	47.9879
1571.28	49.0061
1572.83	49.6643
1574.37	50.7492
1575.92	51.7428
1577.47	52.5219
1579.01	54.1296
1580.56	55.4075
1582.1	55.8111
1583.64	56.5844
1585.19	57.1474
1586.73	58.4983
1588.28	59.904
1589.82	60.986
1591.36	62.4543
1592.9	63.4749
1594.45	63.4385
1595.99	63.6469
1597.53	63.9483
1599.07	64.6866
1600.61	64.1025
1602.15	63.6651
1603.69	64.5989
1605.23	63.6048
1606.77	63.173
1608.31	62.7151
1609.85	63.6946
1611.39	63.718
1612.93	62.8527
1614.47	61.8266
1616.01	61.5417
1617.55	60.551
1619.08	60.5104
1620.62	60.6728
1622.16	60.5366
1623.7	61.1958
1625.23	61.3425
1626.77	61.8251
1628.3	62.5154
1629.84	63.9133
1631.37	65.1631
1632.91	66.954
1634.44	67.2498
1635.98	68.6309
1637.51	69.9788
1639.05	72.0216
1640.58	73.5754
1642.11	75.1171
1643.65	76.6429
1645.18	78.2468
1646.71	79.2057
1648.24	81.4049
1649.78	82.4267
1651.31	84.3043
1652.84	85.4802
1654.37	86.3061
1655.9	86.9664
1657.43	86.4718
1658.96	86.5522
1660.49	86.9745
1662.02	87.6932
1663.55	87.299
1665.08	86.8328
1666.61	86.0817
1668.14	85.008
1669.66	82.8183
1671.19	80.8986
1672.72	79.329
1674.25	77.4186
1675.77	74.5445
1677.3	71.1608
1678.83	68.6365
1680.35	65.9048
1681.88	61.9552
1683.4	59.2157
1684.93	56.6733
1686.45	53.8686
1687.98	49.7059
1689.5	46.252
1691.03	43.1061
1692.55	40.086
1694.07	37.4687
1695.6	35.0649
1697.12	32.7166
1698.64	31.3013
1700.17	29.5208
1701.69	27.6583
1703.21	26.0223
1704.73	24.5725
1706.25	23.0672
1707.77	21.8775
1709.29	21.7642
1710.81	21.2981
1712.33	20.5041
1713.85	19.6258
1715.37	18.899
1716.89	18.0289
1718.41	17.5296
1719.93	16.8972
1721.45	15.1315
1722.97	14.5013
1724.49	14.3504
1726	13.134
1727.52	12.3725
1729.04	11.3992
1730.55	11.1902
1732.07	11.0939
1733.59	10.1974
1735.1	10.8421
1736.62	10.8913
1738.13	10.4281
1739.65	9.99257
1741.16	9.66864
1742.68	8.71804
1744.19	7.88714
1745.7	6.81363
1747.22	6.49408
1748.73	6.03235
1750.24	5.43248
1751.76	4.64368
1753.27	4.18683
1754.78	3.55315
1756.29	2.97849
1757.8	2.47773
1759.31	2.31568
1760.83	2.60335
1762.34	1.78744
1763.85	1.68516
1765.36	1.49912
1766.87	1.4989
1768.38	1.5495
1769.89	2.22136
1771.39	1.76001
1772.9	1.92802
1774.41	2.02535
1775.92	1.58461
1777.43	1.82947
1778.94	2.1535
1780.44	2.18062
1781.95	2.75684
1783.46	3.09253
1784.96	2.83093
1786.47	2.28156
1787.97	2.09685
1789.48	1.74952
1790.99	1.65097
1792.49	0.882591
1794	0.619627
1795.5	0.122304
1797	0.0449358
1798.51	0.564155
1800.01	1.07518
1801.51	0.969352
1803.02	1.39007
1804.52	1.51005
1806.02	1.57614
1807.53	1.53458
1809.03	1.22195
1810.53	1.94137
1812.03	2.03493
1813.53	2.28133
1815.03	2.49427
1816.53	2.31747
1818.03	2.4295
1819.53	3.07968
1821.03	3.39744
1822.53	3.31253
1824.03	3.42976
1825.53	3.45334
1827.03	2.88482
1828.53	2.37113
1830.02	2.12925
1831.52	2.18099
1833.02	1.98702
1834.52	2.18106
1836.01	2.3722
1837.51	1.648
1839.01	1.95289
1840.5	1.72118
1842	1.75886
1843.49	1.83095
1844.99	1.99057
1846.48	1.85483
1847.98	2.08968
1849.47	1.94648
1850.97	1.46945
1852.46	1.73397
1853.95	1.45361
1855.45	1.30125
1856.94	1.35221
1858.43	1.53362
1859.93	1.60585
1861.42	1.55353
1862.91	1.6635
1864.4	1.36708
1865.89	1.56909
1867.38	1.32592
1868.87	1.66397
1870.36	1.90385
1871.85	2.25242
1873.34	2.60855
1874.83	2.56675
1876.32	2.49975
1877.81	2.8068
1879.3	2.42891
1880.79	2.48344
1882.28	3.19051
1882.52	3.16416
1884.02	3.53836
1885.51	3.75038
1887.01	3.73487
1888.5	3.89201
1889.99	4.55767
1891.49	4.66116
1892.98	4.7069
1894.47	3.97032
1895.97	4.07012
1897.46	3.96424
1898.95	3.73414
1900.44	3.56678
1901.93	4.31172
1903.42	5.27691
1904.91	5.48423
1906.4	5.84401
1907.89	6.22305
1909.38	6.47731
1910.87	6.16095
1912.36	6.09662
1913.85	6.05695
1915.34	5.52868
1916.83	5.52003
1918.32	6.32733
1919.8	6.03722
1921.29	6.73161
1922.78	7.24042
1924.27	7.25397
1925.75	7.60134
1927.24	7.42304
1928.73	7.66513
1930.21	7.28707
1931.7	7.47485
1933.18	6.99533
1934.67	6.45394
1936.15	6.66016
1937.64	6.11853
1939.12	5.64573
1940.61	5.25516
1942.09	4.89362
1943.57	5.49838
1945.06	5.04761
1946.54	4.81769
1948.02	4.51832
1949.51	4.32422
1950.99	3.78273
1952.47	3.6287
1953.95	3.7619
1955.43	4.41068
1956.91	3.92664
1958.4	3.84417
1959.88	3.63392
1961.36	3.28275
1962.84	3.46926
1964.32	3.35059
1965.8	2.73381
1967.27	2.48329
1968.75	2.16307
1970.23	2.33785
1971.71	2.09874
1973.19	2.71083
1974.67	3.49258
1976.14	3.65747
1977.62	3.24867
1979.1	2.9708
1980.58	3.0794
1982.05	2.8065
1983.53	2.82221
1985	2.59828
1986.48	2.5414
1987.95	2.95888
1989.43	3.19182
1990.9	4.36342
1992.38	5.20685
1993.85	5.22674
1995.33	5.49712
1996.8	4.92021
1998.27	4.65263
1999.75	4.80391
2001.22	4.98947
2002.69	5.11149
2004.16	4.97265
2005.64	5.38309
2007.11	5.61952
2008.58	5.52088
2010.05	5.77697
2011.52	5.80192
2012.99	5.81803
2014.46	5.89842
2015.93	6.09004
2017.4	6.85502
2018.87	6.5261
2020.34	7.17242
2021.81	7.92291
2023.28	7.90815
2024.75	8.25596
2026.22	8.7078
2027.69	9.12488
2029.15	8.88663
2030.62	8.49135
2032.09	8.68106
2033.56	8.57203
2035.02	8.52359
2036.49	8.28247
2037.96	7.61249
2039.42	7.5471
2040.89	7.5189
2042.35	7.73864
2043.82	7.83199
2045.28	8.41778
2046.75	8.77998
2048.21	8.5366
2049.67	7.59848
2051.14	7.78387
2052.6	7.91742
2054.07	7.52425
2055.53	7.55258
2056.99	7.10165
2058.45	6.67379
2059.92	5.88395
2061.38	5.93249
2062.84	5.8417
2064.3	5.86846
2065.76	5.33364
2067.22	4.729
2068.68	4.05911
2070.14	4.33253
2071.6	4.81768
2073.06	4.82928
2074.52	4.88146
2075.98	4.86826
2077.44	5.01676
2078.9	5.28014
2080.36	5.25577
2081.82	5.11144
2083.27	5.53068
2084.73	6.03726
2086.19	6.44401
2087.65	7.22923
2089.1	7.98751
2090.56	9.05633
2092.02	9.8599
2093.47	11.4513
2094.93	11.8681
2096.38	11.8429
2097.84	12.4261
2099.29	12.9707
2100.75	13.7194
2102.2	13.9545
2103.66	14.6861
2105.11	14.4338
2106.56	13.948
2108.02	13.6749
2109.47	14.0502
2110.92	14.0217
2112.38	14.1471
2113.83	13.7566
2115.28	13.2043
2116.73	12.6538
2118.18	12.4636
2119.63	11.4523
2121.09	10.1151
2122.54	9.31648
2123.99	8.60387
2125.44	7.562
2126.89	6.99133
2128.34	6.8258
2129.79	5.71113
2131.23	5.19455
2132.68	5.0582
2134.13	4.63766
2135.58	4.55745
2137.03	4.28135
2138.48	3.79604
2139.92	2.9465
2141.37	2.80138
2142.82	2.73494
2144.27	2.27408
2145.71	2.02543
2147.16	1.78361
2148.6	1.58814
2150.05	1.93518
2151.49	1.71503
2152.94	1.83977
2154.38	2.48525
2155.83	3.01316
2157.27	3.50126
2158.72	3.7493
2160.16	4.44946
2161.6	4.40423
2163.05	5.60006
2164.49	6.05619
2165.93	6.54668
2167.38	6.15075
2168.82	7.30506
2170.26	7.60261
2171.7	8.28394
2173.14	8.60125
2174.58	8.42756
2176.03	8.53718
2177.47	8.22083
2178.91	8.49241
2180.35	8.672
2181.79	8.98014
2183.23	8.55204
2184.67	8.83471
2186.1	8.82285
2187.54	9.10077
2188.98	8.69855
2190.42	8.37654
2191.86	7.90388
2193.3	7.66108
2194.73	7.9499
2196.17	8.13331
2197.61	8.56875
2199.05	9.50699
2200.48	9.13883
2201.92	8.47546
2203.35	8.98716
2204.79	9.25201
2206.22	9.34474
2207.66	9.32551
2209.1	8.68376
2210.53	8.43553
2211.97	7.94229
2213.4	7.63398
2214.83	7.1412
2216.27	7.21325
2217.7	7.96655
2219.13	7.87045
2220.57	7.73627
2222	7.73239
2223.43	7.30465
2224.86	7.74823
2226.29	7.773
2227.72	7.2695
2229.16	7.22942
2230.59	7.14775
2232.02	7.52333
2233.45	7.45006
2234.88	7.93223
2236.31	7.59701
2237.74	7.31368
2239.17	6.96952
2240.6	6.95187
2242.03	6.58188
2243.45	6.71224
2244.88	6.45862
2246.31	6.39271
2247.74	6.39903
2249.17	5.97765
2250.59	6.00376
2252.02	5.68498
2253.45	5.84187
2254.87	5.42191
2256.3	5.70493
2257.73	5.91656
2259.15	6.14046
2260.58	5.8845
2262	5.70463
2263.43	5.73594
2264.85	6.25277
2266.28	6.36525
2267.7	6.69009
2269.13	6.62822
2270.55	6.42321
2271.97	5.76244
2273.4	6.21121
2274.82	7.07129
2276.24	6.48217
2277.67	6.50806
2279.09	5.97449
2280.51	6.00313
2281.93	6.08731
2283.35	5.3275
2284.77	5.78213
2286.2	5.87933
2287.62	6.34402
2289.04	6.32997
2290.46	5.72542
2291.88	5.19932
2293.3	4.67881
2294.72	4.57244
2296.13	5.13488
2297.55	5.31447
2298.97	5.42724
2300.39	6.12137
2301.81	6.40428
2303.23	6.75984
2304.64	6.84252
2306.06	6.428
2307.48	6.0146
2308.89	6.12666
2310.31	6.44698
2311.73	6.93657
2313.14	7.56417
2314.56	7.88907
2315.98	8.29497
2317.39	8.64293
2318.81	8.72284
2320.22	8.85151
2321.64	8.70293
2323.05	9.28163
2324.46	9.31246
2325.88	9.5688
2327.29	9.94917
2328.7	10.246
2330.12	10.1045
2331.53	10.463
2332.94	9.92238
2334.35	10.2669
2335.77	10.1206
2337.18	9.20078
2338.59	9.03654
2340	8.09346
2341.41	7.75672
2342.82	7.79639
2344.23	7.02585
2345.64	6.447
2347.05	5.33336
2348.46	5.0842
2349.87	4.32848
2351.28	3.5
2352.69	3.09642
2354.1	2.5781
2355.51	2.95939
2356.91	2.05329
2358.32	1.74029
2359.73	0.874351
2361.14	0.43127
2362.54	0.311077
2363.95	0.27514
2365.36	0.114589
2366.76	0.232051
2368.17	0.168421
2369.58	0.526189
2370.98	0.329003
2372.39	0.261218
2373.79	-0.197673
2375.2	-0.720677
2376.6	-1.23971
2378	-0.977344
2379.41	-0.374641
2380.81	-0.148458
2382.22	-0.0817104
2383.62	0.282438
2385.02	0.73194
2386.43	0.904596
2387.83	1.27847
2389.23	1.01488
2390.63	0.92471
2392.03	0.562605
2393.44	0.869421
2394.84	0.296304
2396.24	0.744272
2397.64	0.767291
2399.04	1.38739
2400.44	1.30733
2401.84	2.06631
2403.24	1.99886
2404.64	2.43234
2406.04	3.46139
2407.44	3.95669
2408.84	4.77856
2410.23	4.78388
2411.63	5.04204
2413.03	5.31974
2414.43	5.80288
2415.83	6.71861
2417.22	6.88627
2418.62	7.11463
2420.02	7.26905
2421.41	7.89533
2422.81	8.93904
2424.21	9.0962
2425.6	9.64131
2427	9.69471
2428.39	10.0615
2429.79	10.2203
2431.18	10.9696
2432.58	10.7878
2433.97	10.324
2435.36	9.73299
2436.76	10.4357
2438.15	10.43
2439.54	10.2708
2440.94	9.17131
2442.33	8.74236
2443.72	8.28034
2445.12	7.69971
2446.51	7.84337
2447.9	7.43322
2449.29	6.93595
2450.68	6.3488
2452.07	5.91348
2453.46	5.65538
2454.85	4.90079
2456.24	4.37555
2457.64	3.33306
2459.02	2.22908
2460.41	1.73806
2461.8	1.09848
2463.19	0.706074
2464.58	0.332574
2465.97	0.54979
2467.36	0.392954
2468.75	0.64634
2470.13	0.711478
2471.52	1.22695
2472.91	1.30092
2474.3	1.29938
2475.68	1.32821
2477.07	0.635021
2478.45	-0.366881
2479.84	-1.23965
2481.23	-1.26533
2482.61	-0.169924
2484	0.13669
2485.38	-0.368622
2486.77	-0.179043
2488.15	0.193659
2489.54	0.459101
2490.92	1.01946
2492.3	1.34359
2493.69	0.823369
2495.07	0.656669
2496.45	0.901248
2497.84	1.2565
2499.22	1.23844
2500.6	1.06041
2501.98	0.524108
2503.36	0.60613
2504.75	0.840121
2506.13	0.906554
2507.51	0.745376
2508.89	0.792409
2510.27	0.424401
2511.65	0.610805
2513.03	0.521042
2514.41	0.590066
2515.79	1.0542
2517.17	0.806897
2518.55	1.12162
2519.93	1.32116
2521.3	1.51738
2522.68	1.40928
2524.06	1.54991
2525.44	2.32894
2526.82	2.68326
2528.19	3.11717
2529.57	3.28987
2530.95	3.35979
2532.32	3.60657
2533.7	3.76361
2535.08	4.57929
2536.45	4.45248
2537.83	5.07689
2539.2	5.16685
2540.58	5.10507
2541.95	4.53026
2543.33	4.08042
2544.7	3.62774
2546.08	3.70588
2547.45	3.34742
2548.82	4.43874
2550.2	5.24812
2551.57	5.80469
2552.94	5.00398
2554.32	4.84685
2555.69	4.98239
2557.06	4.93552
2558.43	5.24405
2559.8	5.55955
2561.18	5.37014
2562.55	5.2147
2563.92	5.76306
2565.29	6.33132
2566.66	6.13579
2568.03	6.30415
2569.4	6.27352
2570.77	6.38161
2572.14	6.57012
2573.51	6.14778
2574.88	5.94634
2576.25	6.42744
2577.61	6.79644
2578.98	6.90749
2580.35	7.12396
2581.72	6.89532
2583.09	6.93058
2584.45	6.98278
2585.82	7.25056
2587.19	7.25027
2588.55	7.84422
2589.92	8.03765
2591.29	8.27493
2592.65	8.46762
2594.02	8.54813
2595.38	8.40802
2596.75	8.17651
2598.11	8.45505
2599.48	8.14234
2600.84	8.11871
2602.21	8.16224
2603.57	8.00938
2604.93	7.38444
2606.3	7.17595
2607.66	6.85373
2609.02	6.00977
2610.39	5.34873
2611.75	5.12189
2613.11	5.11156
2614.47	5.35732
2615.83	4.90736
2617.19	5.27553
2618.56	5.18894
2619.92	4.59262
2621.28	4.22597
2622.64	4.83995
2624	4.92705
2625.36	5.38502
2626.72	5.22432
2628.08	5.20301
2629.44	4.87288
2630.8	4.76544
2632.15	5.18617
2633.51	4.92585
2634.87	4.43464
2636.23	4.54018
2637.59	3.95976
2638.94	3.77506
2640.3	4.15465
2641.66	4.44984
2643.02	4.88859
2644.37	5.00244
2645.73	5.46379
2647.09	4.66294
2648.44	4.67118
2649.8	4.39548
2651.15	4.63671
2652.51	5.74363
2653.86	6.02315
2655.22	5.83301
2656.57	5.67307
2657.93	5.70207
2659.28	5.75244
2660.63	5.72674
2661.99	5.59739
2663.34	5.26235
2664.69	5.29876
2666.05	5.03139
2667.4	4.49273
2668.75	4.38125
2670.1	3.86239
2671.45	3.80337
2672.81	3.91874
2674.16	4.2263
2675.51	4.30665
2676.86	3.63803
2678.21	3.76815
2679.56	3.92992
2680.91	4.31148
2682.26	4.95161
2683.61	4.60442
2684.96	4.51661
2686.31	4.52368
2687.66	4.21984
2689	4.35692
2690.35	5.01589
2691.7	4.82439
2693.05	5.20487
2694.4	5.39733
2695.74	5.70239
2697.09	5.7371
2698.44	5.75499
2699.79	6.83386
2701.13	7.02803
2702.48	7.27337
2703.83	8.12479
2705.17	8.55538
2706.52	9.56066
2707.86	10.6984
2709.21	11.2025
2710.55	11.4472
2711.9	12.1948
2713.24	12.8832
2714.58	12.6856
2715.93	13.6089
2717.27	14.1434
2718.62	14.5544
2719.96	15.0012
2721.3	15.1719
2722.65	15.2296
2723.99	15.2823
2725.33	15.9417
2726.67	16.2321
2728.01	15.7643
2729.35	15.6132
2730.7	15.699
2732.04	15.7957
2733.38	15.5497
2734.72	15.5837
2736.06	15.1796
2737.4	14.9023
2738.74	15.2089
2740.08	14.7873
2741.42	15.0187
2742.76	14.4065
2744.1	13.5581
2745.43	12.7849
2746.77	12.3655
2748.11	11.7691
2749.45	10.9249
2750.79	9.55375
2752.12	8.85834
2753.46	8.75482
2754.8	8.25903
2756.14	8.09347
2757.47	7.69746
2758.81	7.3409
2760.14	7.74616
2761.48	7.42052
2762.81	6.81427
2764.15	6.55481
2765.49	6.04565
2766.82	5.95409
2768.16	5.20018
2769.49	4.3355
2770.82	3.7502
2772.16	3.41825
2773.49	3.40401
2774.82	3.00094
2776.16	2.13551
2777.49	2.04773
2778.82	2.09878
2780.16	1.90677
2781.49	2.20004
2782.82	2.31609
2784.15	2.49636
2785.48	2.62661
2786.82	2.51397
2788.15	2.56397
2789.48	2.44028
2790.81	2.58394
2792.14	2.82572
2793.47	2.80091
2794.8	2.05782
2796.13	2.45396
2797.46	2.21905
2798.79	2.05105
2800.12	2.15255
2801.44	1.89779
2802.77	1.82155
2804.1	1.61562
2805.43	1.7176
2806.76	1.6177
2808.08	1.7459
2809.41	1.18306
2810.74	1.13888
2812.07	1.41149
2813.39	1.63889
2814.72	2.20876
2816.05	3.16966
2817.37	4.19137
2818.7	5.54832
2820.02	6.93245
2821.35	8.45248
2822.67	10.1541
2824	11.9134
2825.32	14.365
2826.65	16.245
2827.97	17.4077
2829.3	19.2091
2830.62	21.2036
2831.94	23.5276
2833.26	25.3962
2834.59	27.6327
2835.91	30.452
2837.23	33.2907
2838.56	36.6743
2839.88	40.0783
2841.2	44.2184
2842.52	48.5677
2843.84	53.4726
2845.16	58.2533
2846.48	63.5516
2847.8	68.6986
2849.12	73.9823
2850.45	79.3709
2851.77	84.9901
2853.08	90.8223
2854.4	97.2447
2855.72	103.174
2857.04	109.249
2858.36	115.777
2859.68	122.109
2861	128.427
2862.32	135.264
2863.63	140.387
2864.95	145.851
2866.27	151.141
2867.59	155.882
2868.9	160.618
2870.22	166.193
2871.54	171.645
2872.85	177.003
2874.17	181.095
2875.48	185.713
2876.8	190.473
2878.11	194.671
2879.43	199.091
2880.74	203.685
2882.06	207.313
2883.37	210.902
2884.69	215.182
2886	218.939
2887.31	222.947
2888.63	226.653
2889.94	230.292
2891.25	234.039
2892.57	237.7
2893.88	241.82
2895.19	245.953
2896.5	249.006
2897.82	252.836
2899.13	256.508
2900.44	261.335
2901.75	265.944
2903.06	270.19
2904.37	275.006
2905.68	279.993
2906.99	286.01
2908.3	291.064
2909.61	296.656
2910.92	302.624
2912.23	309.108
2913.54	315.497
2914.85	321.913
2916.16	328.459
2917.46	334.496
2918.77	339.767
2920.08	344.512
2921.39	348.683
2922.7	352.77
2924	356.291
2925.31	358.032
2926.62	359.871
2927.92	360.562
2929.23	359.961
2930.54	359.937
2931.84	359.378
2933.15	358.024
2934.45	356.59
2935.76	354.722
2937.06	350.502
2938.37	346.787
2939.67	342.365
2940.98	338.262
2942.28	333.182
2943.58	327.436
2944.89	321.931
2946.19	315.775
2947.49	309.899
2948.8	304.436
2950.1	298.584
2951.4	291.961
2952.7	285.8
2954.01	279.645
2955.31	272.936
2956.61	265.912
2957.91	259.194
2959.21	252.131
2960.51	244.629
2961.81	237.507
2963.11	231.51
2964.41	225.279
2965.71	219.111
2967.01	212.459
2968.31	206.249
2969.61	200.436
2970.91	195.555
2972.21	190.547
2973.51	185.492
2974.81	181.312
2976.1	176.928
2977.4	173.075
2978.7	168.248
2980	162.442
2981.29	157.307
2982.59	151.342
2983.89	145.99
2985.18	140.629
2986.48	134.785
2987.78	128.745
2989.07	122.832
2990.37	116.58
2991.66	111.041
2992.96	105.398
2994.25	99.2634
2995.55	93.8853
2996.84	88.0834
2998.14	82.6843
2999.43	77.7329
3000.73	72.2933
3002.02	67.2519
3003.31	63.2616
3004.61	58.3505
3005.9	53.5687
3007.19	48.8638
3008.48	45.0805
3009.77	41.6835
3011.07	38.649
3012.36	35.4101
3013.65	32.0782
3014.94	28.7932
3016.23	25.9993
3017.52	23.5815
3018.81	20.6532
3020.1	17.9161
3021.4	15.9628
3022.68	14.2139
3023.97	12.2996
3025.26	11.3893
3026.55	9.95763
3027.84	8.19049
3029.13	6.77181
3030.42	5.75947
3031.71	5.04805
3033	5.04088
3034.28	5.45699
3035.57	6.0984
3036.86	6.4149
3038.15	6.91486
3039.43	7.68334
3040.72	7.65633
3042.01	8.28755
3043.29	8.68927
3044.58	9.24186
3045.87	10.0649
3047.15	10.5793
3048.44	11.1441
3049.72	11.5648
3051.01	11.6239
3052.29	12.1472
3053.58	12.681
3054.86	12.8067
3056.15	12.6744
3057.43	12.8084
3058.71	12.715
3060	13.2691
3061.28	12.8805
3062.56	12.9435
3063.84	12.6464
3065.13	11.9157
3066.41	11.8179
3067.69	11.3351
3068.97	10.0479
3070.26	9.76054
3071.54	9.22588
3072.82	9.06731
3074.1	8.29427
3075.38	7.82615
3076.66	6.40703
3077.94	5.64981
3079.22	5.31978
3080.5	4.80041
3081.78	3.73513
3083.06	2.70188
3084.34	1.88322
3085.62	0.869119
3086.9	-0.205357
3088.18	-0.71169
3089.45	-0.845039
3090.73	-1.81647
3092.01	-1.97347
3093.29	-1.54895
3094.56	-0.849791
3095.84	-0.500636
3097.12	-0.130984
3098.4	0.0152306
3099.67	0.128927
3100.95	0.232166
3102.22	0.506402
3103.5	0.830945
3104.78	0.553158
3106.05	1.19071
3107.33	1.42607
3108.6	1.07463
3109.88	1.34765
3111.15	2.0117
3112.43	2.6441
3113.7	3.36965
3114.97	3.7695
3116.25	4.27693
3117.52	4.28955
3118.79	4.60397
3120.07	5.19217
3121.34	6.14698
3122.61	6.76521
3123.88	6.92848
3125.16	7.12001
3126.43	7.8301
3127.7	8.68091
3128.97	9.34738
3130.24	10.059
3131.51	10.1976
3132.79	10.5645
3134.06	11.6822
3135.33	12.1373
3136.6	12.8448
3137.87	13.6624
3139.14	14.484
3140.41	14.9341
3141.67	15.9102
3142.94	16.7614
3144.21	17.5084
3145.48	18.6554
3146.75	19.9099
3148.02	21.3216
3149.29	22.7219
