#Acq. time (s)=	45
#Accumulations=	2
#Range (cm-¹)=	200...3150
#Windows=	2
#Auto scanning=	Off
#Autofocus=	Off
#Macrospot=	Off
#AutoExposure=	Off
#Spike filter=	Multiple accum.
#Delay time (s)=	0
#Binning=	1
#Readout mode=	Signal
#DeNoise=	Off
#ICS correction=	On
#Dark correction=	Off
#Inst. Process=	Off
#Detector Gain=	Best Dynamic Range
#Detector ADC=	20 kHz       
#Detector temperature (°C)=	-69.85
#Instrument=	LabRAM HR Evol
#Detector=	Synapse
#Objective=	x100
#Grating=	600 gr/mm
#ND Filter=	100%
#Laser (nm)=	532 
#Hole=	100.021
#Range=	Auto
#Laser Pol.=	No
#Raman. Pol.=	No
#Laser Pol. (°)=	-0.0007625
#Raman Pol. (°)=	89.9995
#Collection=	Microscope
#StageXY=	Marzhauser
#StageZ=	Marzhauser
#X (µm)=	4732.8
#Y (µm)=	-7720.3
#Z (µm)=	584.8
#Full time(mm:ss)=	3:18
#Project=	
#Sample=	
#Site=	
#Title=	Thy_30_10_37_2x_45s_532 nm_x100_100%_600 gr_mm
#Remark=	
#Date=	30.06.2022 14:06
#Acquired=	30.06.2022 14:06:23
#Base:Fit=	10.08.2022 09:58:11
#Base:Sub=	10.08.2022 09:58:44
#Filter:Polynom=	16.08.2022 10:22:53
#AxisType[0]=Intens
#AxisUnit[0]=Cnt
#AxisType[1]=Spectr
#AxisUnit[1]=1/cm
200.533	0.365339
202.348	1.5481
204.162	2.79569
205.976	2.16965
207.792	1.98179
209.605	2.09938
211.418	2.23505
213.23	2.57649
215.044	2.70668
216.856	3.29192
218.667	4.45237
220.478	5.67371
222.289	6.89954
224.102	8.2669
225.912	9.75957
227.721	10.3677
229.531	10.9808
231.34	11.349
233.148	12.0186
234.956	12.1388
236.766	12.8002
238.574	12.8242
240.381	12.7549
242.188	13.5906
243.994	14.8745
245.801	16.1997
247.606	16.4291
249.412	16.922
251.217	17.076
253.024	17.7962
254.828	19.326
256.632	19.7126
258.436	19.6468
260.239	20.4268
262.042	20.9668
263.845	22.6831
265.647	22.9283
267.449	22.6566
269.25	22.3927
271.052	22.5869
272.852	22.8797
274.653	22.8315
276.453	23.1728
278.253	23.4035
280.052	23.4378
281.852	23.2238
283.65	22.5731
285.449	22.8693
287.247	22.8394
289.044	22.6815
290.842	22.5699
292.639	22.2639
294.436	22.0502
296.232	22.6568
298.028	22.2495
299.821	21.6471
301.617	21.4631
303.412	21.7929
305.206	21.9057
307	21.8939
308.794	22.0294
310.588	22.0674
312.381	21.9081
314.172	22.0634
315.964	22.289
317.756	21.8037
319.548	21.7636
321.34	21.2771
323.131	21.232
324.921	20.4325
326.71	20.5649
328.5	20.6995
330.29	21.5256
332.079	22.1081
333.868	22.8671
335.654	23.0016
337.443	22.8176
339.231	23.5923
341.018	24.5594
342.804	25.4263
344.591	25.8044
346.377	25.26
348.163	24.9616
349.947	25.4608
351.733	25.326
353.518	25.3302
355.303	23.7728
357.085	23.1978
358.869	23.0599
360.653	23.4842
362.435	23.5238
364.218	23.0763
366.001	22.7377
367.781	22.3756
369.563	21.7791
371.345	21.8955
373.124	21.7193
374.905	22.3498
376.686	22.1858
378.464	21.2739
380.244	21.4332
382.022	21.1584
383.801	20.0989
385.58	19.9738
387.357	19.7442
389.135	19.4052
390.911	19.8593
392.689	19.4424
394.466	19.2247
396.241	19.0951
398.018	19.4528
399.792	19.6885
401.568	19.7087
403.341	19.5817
405.117	19.2875
406.889	18.5834
408.664	17.9222
410.436	17.2971
412.21	17.3882
413.981	17.4008
415.755	17.964
417.525	18.0193
419.298	18.3701
421.068	18.5691
422.84	18.9411
424.609	19.3714
426.38	19.533
428.149	19.8945
429.919	20.3458
431.688	19.5579
433.455	19.3838
435.225	19.0379
436.992	18.4544
438.76	18.2391
440.527	18.2327
442.293	17.761
444.06	16.8813
445.826	17.5149
447.593	16.9788
449.357	16.7827
451.122	16.804
452.888	16.8129
454.651	17.0404
456.415	17.3333
458.18	17.0907
459.942	17.7072
461.705	17.9061
463.469	17.8335
465.23	17.8465
466.991	18.0587
468.752	18.9618
470.515	19.273
472.275	18.9015
474.035	19.597
475.797	20.274
477.556	20.7614
479.315	21.2045
481.073	21.5426
482.834	22.0954
484.592	22.1664
486.349	22.3999
488.106	22.9892
489.863	22.8367
491.622	22.1769
493.378	22.3082
495.134	22.8237
496.889	23.1554
498.645	23.5987
500.401	23.7276
502.156	23.4702
503.91	23.5024
505.664	23.3601
507.417	22.8298
509.171	22.3602
510.923	21.8694
512.678	22.3258
514.43	21.7017
516.182	21.4233
517.933	21.411
519.684	21.2492
521.435	21.454
523.186	20.2828
524.936	19.0886
526.686	18.3682
528.435	17.9508
530.184	16.7285
531.933	15.3927
533.682	15.3695
535.43	14.417
537.18	14.0389
538.927	13.8951
540.674	13.7652
542.421	13.3359
544.167	13.0744
545.913	12.2162
547.659	11.9112
549.403	11.9721
551.148	11.4459
552.893	11.7639
554.637	12.1076
556.381	12.5239
558.125	12.6309
559.868	12.5194
561.611	13.363
563.354	13.759
565.097	13.779
566.839	13.6642
568.581	13.4631
570.322	12.9211
572.063	12.5436
573.802	12.5744
575.542	12.0147
577.283	11.3291
579.022	11.2575
580.762	11.735
582.501	11.2346
584.24	10.6238
585.976	9.79813
587.714	9.13532
589.452	8.80543
591.19	8.62891
592.927	8.01414
594.663	8.00346
596.398	7.97591
598.134	7.78111
599.87	7.78665
601.605	7.61616
603.338	8.13159
605.073	8.73875
606.808	8.72468
608.542	8.50427
610.274	7.59488
612.007	8.1596
613.74	8.10419
615.473	8.75945
617.204	8.46573
618.936	8.70408
620.668	10.1319
622.397	10.5969
624.128	11.9076
625.859	13.2271
627.588	13.3703
629.318	14.0321
631.048	13.952
632.775	14.2194
634.505	15.0629
636.233	15.6819
637.96	16.075
639.688	16.5256
641.416	16.199
643.142	16.6842
644.869	17.4836
646.594	18.2287
648.32	18.1829
650.045	18.0016
651.771	17.7926
653.496	17.0767
655.219	17.4614
656.944	17.6767
658.667	18.1523
660.391	18.9333
662.113	19.1064
663.837	19.671
665.558	20.2167
667.281	20.4103
669.002	20.18
670.724	21.1369
672.444	21.9203
674.166	22.5212
675.885	23.2127
677.606	23.8734
679.325	24.5842
681.045	25.0881
682.763	25.5227
684.483	26.8094
686.2	27.646
687.917	28.3554
689.636	29.1944
691.352	29.8094
693.07	30.8433
694.786	31.6561
696.501	31.8467
698.219	33.1956
699.933	33.318
701.65	34.1894
703.364	33.9199
705.078	34.3058
706.793	35.3169
708.506	35.932
710.219	36.6347
711.934	37.173
713.646	37.4067
715.358	37.59
717.071	37.6021
718.782	38.2917
720.493	38.995
722.204	38.5421
723.916	38.4968
725.626	38.0228
727.336	38.4747
729.045	39.5984
730.756	40.8565
732.464	41.3939
734.173	40.9593
735.881	41.3302
737.59	41.6612
739.297	42.345
741.004	43.8467
742.711	44.2777
744.417	45.0667
746.125	46.177
747.831	47.0513
749.537	48.8517
751.242	49.6177
752.946	50.8977
754.651	52.44
756.357	54.2574
758.061	55.7657
759.764	57.075
761.467	58.2932
763.17	59.1667
764.872	61.046
766.575	61.8638
768.276	63.2068
769.978	63.5502
771.679	63.4579
773.382	64.727
775.083	65.6746
776.783	66.4281
778.483	66.8564
780.182	66.9841
781.882	67.5089
783.581	67.8867
785.279	68.2984
786.978	68.871
788.676	68.8627
790.373	69.9674
792.071	70.2069
793.768	70.6136
795.464	70.9389
797.161	71.7191
798.857	71.8013
800.552	71.7151
802.248	72.2033
803.941	72.6597
805.636	73.5784
807.33	72.316
809.024	72.3383
810.718	72.1366
812.412	72.8663
814.105	72.5751
815.798	72.0927
817.49	71.2366
819.183	70.7141
820.873	71.0748
822.564	70.8032
824.256	71.1199
825.947	70.8336
827.637	70.1314
829.328	69.9751
831.016	70.516
832.705	70.9231
834.395	71.4361
836.084	70.3859
837.772	70.93
839.459	71.3264
841.147	70.8433
842.835	70.5754
844.522	69.8234
846.209	68.8181
847.894	67.934
849.581	66.964
851.267	65.2652
852.953	64.7687
854.637	63.4365
856.322	62.4485
858.007	61.824
859.689	60.655
861.374	59.4402
863.058	57.761
864.739	56.5134
866.423	55.9692
868.106	54.9524
869.787	53.6253
871.469	52.575
873.151	50.5881
874.831	49.0129
876.512	47.8289
878.193	47.6592
879.872	47.0305
881.553	46.7241
883.231	46.2604
884.911	46.0844
886.591	46.1447
888.268	45.8027
889.947	45.1748
891.623	43.6752
893.302	43.8464
894.978	43.8577
896.656	43.537
898.331	42.8363
900.008	42.9334
901.683	42.8579
903.359	41.8954
905.033	41.5137
906.709	40.5931
908.383	41.0902
910.058	40.036
911.731	40.5109
913.405	41.771
915.078	42.1306
916.752	42.1391
918.423	41.9427
920.096	41.7191
921.768	42.1263
923.438	42.2442
925.111	41.5156
926.781	41.44
928.452	41.0963
930.122	40.505
931.791	39.8723
933.462	39.0659
935.13	38.8552
936.799	38.1857
938.468	37.0575
940.136	36.2199
941.803	34.5643
943.472	33.4708
945.139	32.0919
946.805	31.1745
948.473	30.5658
950.139	30.5328
951.804	29.6127
953.471	28.4208
955.136	28.7524
956.801	27.7989
958.465	27.3007
960.131	27.0139
961.794	27.2047
963.458	27.2416
965.12	27.3322
966.785	26.5353
968.447	26.0793
970.109	25.7889
971.771	24.7701
973.432	23.8316
975.095	23.2325
976.756	22.6785
978.417	21.8543
980.077	21.5916
981.737	21.1568
983.396	20.1599
985.057	19.1573
986.716	18.6894
988.375	18.4503
990.033	18.7159
991.691	19.1913
993.349	18.7377
995.006	19.3031
996.663	18.9857
998.32	18.0999
999.976	17.95
1001.63	17.8094
1003.29	17.6115
1004.95	16.7988
1006.6	16.994
1008.26	16.4091
1009.91	16.0621
1011.56	15.9681
1013.22	15.7231
1014.87	15.01
1016.53	14.8581
1018.18	14.8042
1019.83	14.5546
1021.48	14.2898
1023.14	13.9221
1024.79	13.5586
1026.44	13.9504
1028.09	14.2086
1029.74	14.5805
1031.39	13.8846
1033.04	14.008
1034.69	13.8296
1036.34	13.5059
1037.99	13.3314
1039.64	12.6435
1041.29	12.1782
1042.94	12.3545
1044.58	12.7928
1046.23	12.031
1047.88	11.3206
1049.52	10.5085
1051.17	10.3478
1052.82	9.99256
1054.46	9.39338
1056.11	9.5235
1057.75	9.58283
1059.4	9.54545
1061.04	9.44557
1062.69	9.87811
1064.33	8.87171
1065.98	8.61561
1067.62	9.08125
1069.26	8.6046
1070.9	8.06128
1072.55	7.97572
1074.19	7.80101
1075.83	7.60325
1077.47	7.36775
1079.11	7.18179
1080.76	7.48248
1082.4	7.5938
1084.04	7.22598
1085.68	6.84184
1087.32	6.33024
1088.95	6.81665
1090.59	6.58265
1092.23	6.61159
1093.87	7.38057
1095.51	7.56898
1097.15	6.50006
1098.78	7.576
1100.42	7.44369
1102.06	7.30437
1103.69	6.85302
1105.33	7.03139
1106.97	6.48172
1108.6	6.6668
1110.24	6.04161
1111.87	5.70072
1113.51	4.94164
1115.14	5.53794
1116.77	5.80604
1118.41	5.28771
1120.04	5.02462
1121.67	5.04394
1123.31	5.309
1124.94	5.36898
1126.57	4.97349
1128.2	4.54886
1129.83	4.50895
1131.47	3.88936
1133.1	4.44573
1134.72	4.29135
1136.36	4.9048
1137.98	5.05325
1139.62	4.26503
1141.24	3.63722
1142.87	3.46281
1144.5	3.08465
1146.13	2.35872
1147.76	2.29008
1149.38	1.79352
1151.01	0.830674
1152.64	1.38473
1154.27	1.82736
1155.89	2.74379
1157.52	2.58056
1159.14	2.61087
1160.77	2.21389
1162.39	2.1332
1164.02	1.71546
1165.64	1.13652
1167.27	0.951081
1168.89	1.0563
1170.51	1.96841
1172.14	2.23166
1173.76	1.97754
1175.38	2.42035
1177	1.52191
1178.63	1.01509
1180.25	0.947218
1181.87	0.389652
1183.49	0.259367
1185.11	0.530335
1186.73	1.42503
1188.35	1.08962
1189.97	1.68252
1191.59	0.811932
1193.21	1.35729
1194.83	1.66612
1196.45	1.42696
1198.07	1.92657
1199.68	1.82969
1201.3	2.11166
1202.92	3.23165
1204.53	3.27257
1206.15	3.70453
1207.77	3.57441
1209.38	4.01801
1211	4.25066
1212.62	4.71017
1214.23	5.37449
1215.84	5.37801
1217.46	5.33252
1219.07	4.97546
1220.69	4.466
1222.3	4.84118
1223.91	6.48336
1225.53	7.02527
1227.14	8.66887
1228.75	9.34985
1230.36	9.88853
1231.97	10.6662
1233.59	11.8451
1235.2	12.1123
1236.81	12.4037
1238.42	12.6968
1240.03	14.1011
1241.64	14.7291
1243.25	15.8938
1244.85	17.0093
1246.46	18.147
1248.07	18.7544
1249.68	19.4085
1251.29	19.6759
1252.9	19.5669
1254.5	19.1777
1256.11	19.8482
1257.72	20.5861
1259.32	21.9344
1260.93	22.4435
1262.54	23.9429
1264.14	25.0217
1265.75	25.9292
1267.35	26.5695
1268.96	26.6064
1270.56	26.7774
1272.16	27.0673
1273.77	27.8033
1275.37	28.1265
1276.97	28.3698
1278.57	28.9969
1280.18	28.4785
1281.78	28.6339
1283.38	29.0732
1284.98	29.1026
1286.58	29.934
1288.18	29.5309
1289.78	30.1194
1291.38	29.8948
1292.99	30.169
1294.58	29.8931
1296.18	30.2479
1297.78	30.1293
1299.38	31.4478
1300.98	31.6602
1302.58	32.1569
1304.17	32.9117
1305.77	32.7749
1307.37	33.1788
1308.97	32.3574
1310.56	33.0181
1312.16	33.2712
1313.76	33.4911
1315.35	33.6099
1316.95	34.1257
1318.54	34.2084
1320.14	35.4269
1321.73	35.2304
1323.32	35.5873
1324.92	35.9679
1326.51	35.3574
1328.1	34.6171
1329.7	34.5418
1331.29	34.4991
1332.88	34.0516
1334.47	34.0437
1336.07	34.4378
1337.66	34.4037
1339.25	34.1621
1340.84	32.8099
1342.43	32.3815
1344.02	31.7423
1345.61	31.093
1347.2	30.5482
1348.79	28.9458
1350.37	28.1848
1351.96	28.0358
1353.55	27.7956
1355.14	27.6894
1356.73	26.9426
1358.31	26.9051
1359.9	27.3397
1361.49	27.8016
1363.07	27.4538
1364.66	27.6034
1366.25	26.9072
1367.83	25.6929
1369.42	25.182
1371	24.1299
1372.59	24.2357
1374.17	23.5665
1375.75	23.8433
1377.34	23.4367
1378.92	23.4414
1380.5	22.5706
1382.09	22.4408
1383.67	22.1465
1385.25	22.3472
1386.83	21.9971
1388.42	21.6306
1390	21.3817
1391.58	20.8283
1393.16	20.5003
1394.74	20.4609
1396.32	19.9615
1397.9	19.9266
1399.48	20.5233
1401.06	20.0085
1402.64	19.3041
1404.21	18.6696
1405.79	18.5278
1407.37	18.4802
1408.95	18.1944
1410.53	17.4247
1412.1	16.7422
1413.68	16.7554
1415.26	16.7814
1416.83	16.53
1418.41	16.9796
1419.98	16.9666
1421.56	18.1049
1423.13	18.5102
1424.71	19.1995
1426.28	20.1182
1427.86	21.1517
1429.43	22.5437
1431	24.0642
1432.58	25.425
1434.15	26.4419
1435.72	27.2387
1437.29	29.1848
1438.87	30.0239
1440.44	30.3183
1442.01	30.0361
1443.58	30.5161
1445.15	29.7896
1446.72	29.7237
1448.29	30.3592
1449.86	31.497
1451.43	32.3667
1453	31.8106
1454.57	31.7713
1456.14	31.1826
1457.71	30.5352
1459.27	29.9177
1460.84	29.6921
1462.41	28.8126
1463.98	28.3747
1465.54	26.8712
1467.11	26.2071
1468.67	25.2455
1470.24	23.9616
1471.81	22.9316
1473.37	21.7197
1474.94	20.1514
1476.5	20.1098
1478.07	18.745
1479.63	17.4952
1481.19	16.0378
1482.76	14.8166
1484.32	13.4716
1485.88	11.6677
1487.45	10.0715
1489.01	9.00749
1490.57	7.93147
1492.13	7.58268
1493.69	7.09647
1495.26	6.17163
1496.82	6.07588
1498.38	5.32315
1499.94	4.78897
1501.5	4.60028
1503.06	4.67105
1504.62	5.34172
1506.17	5.39795
1507.73	5.10466
1509.29	5.53914
1510.85	5.6606
1512.41	5.14706
1513.97	4.85353
1515.52	5.23616
1517.08	4.61749
1518.64	4.3482
1520.19	3.81094
1521.75	3.82468
1523.31	4.34237
1524.86	5.61978
1526.42	6.38803
1527.97	7.43223
1529.52	7.18487
1531.08	7.12081
1532.63	7.85226
1534.19	8.20142
1535.74	8.91924
1537.29	9.69948
1538.85	10.8345
1540.4	11.451
1541.95	12.6296
1543.5	13.329
1545.06	14.004
1546.61	14.5476
1548.16	14.7466
1549.71	16.3202
1551.26	17.2873
1552.81	18.2525
1554.36	19.8042
1555.91	20.3464
1557.46	21.1249
1559.01	21.2951
1560.56	21.585
1562.11	22.2372
1563.65	22.7483
1565.2	23.6446
1566.75	24.6213
1568.29	26.1988
1569.84	28.113
1571.39	29.1996
1572.94	29.9731
1574.48	31.048
1576.03	31.8291
1577.57	33.1142
1579.12	33.6846
1580.66	33.6295
1582.21	34.3594
1583.75	33.7622
1585.3	33.2448
1586.84	32.8889
1588.38	32.5158
1589.93	32.178
1591.47	32.4371
1593.01	33.0272
1594.55	32.8271
1596.1	32.6408
1597.64	32.105
1599.18	32.1072
1600.72	32.5801
1602.26	32.1261
1603.8	31.7249
1605.34	31.1078
1606.88	31.0864
1608.42	30.7794
1609.96	30.1946
1611.5	29.9095
1613.04	29.7693
1614.58	29.3844
1616.12	29.996
1617.65	29.566
1619.19	29.6038
1620.73	28.8641
1622.27	28.5208
1623.8	28.4192
1625.34	28.0249
1626.87	28.2802
1628.41	27.922
1629.95	28.1828
1631.48	29.1228
1633.02	28.789
1634.55	28.4232
1636.09	28.3378
1637.62	28.857
1639.15	29.2484
1640.69	29.5139
1642.22	30.6582
1643.76	31.595
1645.29	32.4896
1646.82	32.6192
1648.35	32.7594
1649.88	32.8663
1651.42	33.1771
1652.95	33.0269
1654.48	33.2673
1656.01	32.379
1657.54	32.1252
1659.07	31.8362
1660.6	31.341
1662.13	31.4813
1663.66	31.1948
1665.19	31.123
1666.72	31.2949
1668.24	30.4413
1669.77	30.1173
1671.3	29.3855
1672.83	27.9871
1674.35	27.6584
1675.88	27.2038
1677.41	26.8343
1678.93	25.5851
1680.46	24.9115
1681.99	24.4021
1683.51	24.7282
1685.04	23.4262
1686.56	22.5016
1688.09	21.4953
1689.61	20.265
1691.13	19.9562
1692.66	19.3557
1694.18	18.4074
1695.71	16.8974
1697.23	15.3839
1698.75	14.5603
1700.27	13.954
1701.8	13.1583
1703.32	12.1276
1704.84	11.0243
1706.36	10.2348
1707.88	9.78742
1709.4	8.08986
1710.92	7.82293
1712.44	7.15943
1713.96	6.60049
1715.48	6.10657
1717	5.97401
1718.52	5.46466
1720.04	5.51692
1721.56	5.71055
1723.07	5.72781
1724.59	5.38777
1726.11	4.89867
1727.63	4.03343
1729.14	3.54855
1730.66	3.26305
1732.18	2.54069
1733.69	2.34881
1735.21	2.48014
1736.72	2.67489
1738.24	3.00263
1739.75	2.76805
1741.27	2.98626
1742.78	2.81444
1744.3	2.47616
1745.81	2.65031
1747.32	2.70387
1748.84	2.3879
1750.35	2.70177
1751.86	2.46146
1753.37	2.41664
1754.89	2.43852
1756.4	2.64307
1757.91	2.61795
1759.42	2.95618
1760.93	2.34542
1762.44	2.08261
1763.95	1.91972
1765.46	2.34284
1766.97	2.56939
1768.48	2.72448
1769.99	3.2288
1771.5	2.57557
1773.01	3.00899
1774.52	3.07302
1776.03	2.92306
1777.53	2.62348
1779.04	2.12048
1780.55	2.26833
1782.06	2.81996
1783.56	3.33053
1785.07	3.2098
1786.57	3.64891
1788.08	3.61503
1789.59	3.83611
1791.09	4.1267
1792.6	4.31609
1794.1	4.36471
1795.6	4.89674
1797.11	4.86244
1798.61	4.7723
1800.12	4.69348
1801.62	4.56682
1803.12	4.63257
1804.63	5.35041
1806.13	5.94604
1807.63	6.56883
1809.13	7.49104
1810.63	7.78287
1812.14	7.83773
1813.64	8.0474
1815.14	7.78793
1816.64	7.66215
1818.14	7.69032
1819.64	7.58348
1821.14	7.37319
1822.64	7.55762
1824.14	7.35351
1825.63	7.39957
1827.13	7.2877
1828.63	7.62849
1830.13	7.33799
1831.63	7.06971
1833.12	7.71062
1834.62	8.20009
1836.12	7.99639
1837.62	8.47678
1839.11	8.64486
1840.61	9.05962
1842.1	9.39042
1843.6	10.3548
1845.09	10.4563
1846.59	10.1728
1848.08	10.4862
1849.58	10.4154
1851.07	10.2452
1852.57	10.221
1854.06	10.3437
1855.55	10.4102
1857.04	10.453
1858.54	10.0683
1860.03	9.57929
1861.52	9.06229
1863.01	8.65652
1864.5	8.29484
1866	7.90852
1867.49	7.95081
1868.98	7.76179
1870.47	7.64314
1871.96	7.16528
1873.45	7.05528
1874.94	6.65355
1876.43	6.46628
1877.92	6.29823
1879.41	6.40622
1880.89	6.41141
1882.38	5.9699
1882.48	5.71812
1883.97	5.26317
1885.47	4.9105
1886.96	4.32421
1888.46	3.96704
1889.95	3.71003
1891.44	3.42173
1892.94	3.51806
1894.43	3.413
1895.92	3.40993
1897.41	3.33457
1898.9	3.59045
1900.4	4.00287
1901.89	4.82546
1903.38	5.13084
1904.87	5.84034
1906.36	6.34041
1907.85	7.10196
1909.34	7.82122
1910.83	8.72492
1912.32	9.2268
1913.81	9.86753
1915.29	10.2547
1916.78	11.1259
1918.27	11.0179
1919.76	11.5612
1921.25	11.9957
1922.74	12.6697
1924.22	12.5384
1925.71	13.1566
1927.2	13.5661
1928.68	13.6055
1930.17	13.2243
1931.65	13.3962
1933.14	13.3896
1934.63	13.46
1936.11	13.1882
1937.59	13.3423
1939.08	13.4777
1940.56	13.724
1942.05	13.1618
1943.53	13.0027
1945.01	12.5219
1946.5	12.7104
1947.98	12.157
1949.46	12.0053
1950.94	11.757
1952.43	11.7634
1953.91	11.5013
1955.39	10.7604
1956.87	10.2823
1958.35	9.92629
1959.83	9.57191
1961.31	9.32753
1962.79	9.23897
1964.27	9.54557
1965.75	8.98817
1967.23	9.37601
1968.71	8.80496
1970.19	8.77053
1971.67	8.53596
1973.14	8.28428
1974.62	8.54558
1976.1	8.41539
1977.58	8.82833
1979.05	8.89925
1980.53	9.27996
1982.01	9.76808
1983.48	9.559
1984.96	9.94763
1986.43	9.83719
1987.91	10.5623
1989.38	11.0814
1990.86	11.3931
1992.33	11.6157
1993.81	12.2994
1995.28	12.6666
1996.76	13.0982
1998.23	12.937
1999.7	13.028
2001.18	12.8926
2002.65	12.6949
2004.12	12.2753
2005.59	12.4915
2007.06	12.4514
2008.54	12.3919
2010.01	12.4892
2011.48	13.0626
2012.95	13.2452
2014.42	13.0245
2015.89	12.57
2017.36	12.6575
2018.83	12.9686
2020.3	13.0789
2021.77	12.6579
2023.24	12.5125
2024.71	13.1727
2026.17	12.954
2027.64	13.01
2029.11	13.1953
2030.58	13.726
2032.04	14.0167
2033.51	14.1195
2034.98	14.0107
2036.45	13.9663
2037.91	14.0278
2039.38	13.7581
2040.84	14.0939
2042.31	13.7219
2043.77	13.8486
2045.24	13.6717
2046.7	14.1594
2048.17	14.6864
2049.63	14.909
2051.1	15.0804
2052.56	14.9363
2054.02	14.8679
2055.48	14.9834
2056.95	15.2133
2058.41	15.2735
2059.87	15.0193
2061.33	15.5753
2062.8	15.1966
2064.26	15.2414
2065.72	15.5371
2067.18	15.5734
2068.64	15.4599
2070.1	15.1599
2071.56	15.111
2073.02	14.7023
2074.48	15.0533
2075.94	15.0261
2077.4	15.4639
2078.86	15.6678
2080.31	16.0743
2081.77	16.0018
2083.23	16.4175
2084.69	16.5932
2086.14	16.7503
2087.6	17.0321
2089.06	17.346
2090.52	17.6011
2091.97	18.7777
2093.43	18.895
2094.88	18.9804
2096.34	19.2847
2097.79	19.8476
2099.25	19.2692
2100.7	19.4377
2102.16	19.7954
2103.61	19.7132
2105.07	19.3513
2106.52	19.4242
2107.97	19.9559
2109.43	19.857
2110.88	19.7359
2112.33	20.039
2113.78	20.1039
2115.24	20.2982
2116.69	20.5388
2118.14	20.7479
2119.59	21.0498
2121.04	21.3016
2122.49	21.5499
2123.94	21.6715
2125.39	22.1611
2126.84	22.7562
2128.29	23.5365
2129.74	23.9395
2131.19	24.3589
2132.64	25.2834
2134.09	26.1407
2135.54	26.6878
2136.98	27.0349
2138.43	27.4188
2139.88	28.2802
2141.33	28.8216
2142.77	29.6533
2144.22	30.5782
2145.67	31.2846
2147.11	32.2282
2148.56	32.5935
2150.01	33.6573
2151.45	34.2235
2152.9	35.4158
2154.34	36.4822
2155.79	37.7529
2157.23	38.5286
2158.67	39.046
2160.12	39.7855
2161.56	39.9047
2163	40.3105
2164.45	41.4255
2165.89	41.3298
2167.33	41.3642
2168.78	41.1159
2170.22	41.2321
2171.66	40.7803
2173.1	41.0816
2174.54	41.0087
2175.98	41.0728
2177.42	41.2246
2178.86	41.1711
2180.3	40.6967
2181.74	39.6885
2183.18	38.9963
2184.62	38.4775
2186.06	37.5901
2187.5	36.9114
2188.94	36.0533
2190.38	35.4774
2191.82	34.7934
2193.25	34.7657
2194.69	34.2301
2196.13	34.3105
2197.57	33.8021
2199	33.4721
2200.44	32.975
2201.88	32.3096
2203.31	31.6955
2204.75	31.0667
2206.18	29.7494
2207.62	28.5433
2209.05	27.3344
2210.49	26.8786
2211.92	26.3129
2213.36	25.7288
2214.79	25.1473
2216.22	24.7446
2217.66	24.5915
2219.09	24.1886
2220.52	23.5211
2221.96	23.3139
2223.39	22.8715
2224.82	23.3328
2226.25	22.5458
2227.68	22.2053
2229.11	21.4569
2230.55	20.851
2231.98	21.1321
2233.41	20.5961
2234.84	20.9641
2236.27	20.9391
2237.7	20.2483
2239.12	20.5513
2240.55	19.9118
2241.98	19.4921
2243.41	19.3058
2244.84	19.1563
2246.27	18.9592
2247.7	18.9064
2249.12	18.4289
2250.55	18.3035
2251.98	18.0084
2253.41	17.1522
2254.83	16.7495
2256.26	16.046
2257.68	16.0028
2259.11	15.8402
2260.54	16.1821
2261.96	16.326
2263.39	16.1279
2264.81	16.3751
2266.24	15.968
2267.66	15.7633
2269.08	15.201
2270.51	14.9643
2271.93	14.8918
2273.35	14.4689
2274.78	13.9395
2276.2	13.0091
2277.62	12.2339
2279.04	12.1605
2280.47	11.9293
2281.89	11.6898
2283.31	11.2671
2284.73	11.6447
2286.15	11.4287
2287.57	11.8821
2288.99	11.5477
2290.41	11.0924
2291.83	10.5611
2293.25	10.5178
2294.67	10.7664
2296.09	11.0945
2297.51	10.6224
2298.93	11.5689
2300.35	11.6828
2301.76	12.068
2303.18	12.6
2304.6	12.4269
2306.02	12.9365
2307.44	12.9758
2308.85	13.5384
2310.27	13.9752
2311.69	13.7967
2313.1	14.2261
2314.52	14.9532
2315.93	15.1664
2317.35	15.5291
2318.76	15.3358
2320.18	15.6197
2321.59	15.416
2323.01	14.7477
2324.42	14.1954
2325.83	14.0503
2327.25	13.9466
2328.66	14.068
2330.07	13.9316
2331.49	14.1836
2332.9	13.5596
2334.31	13.5274
2335.72	13.5152
2337.13	13.315
2338.55	12.9388
2339.96	12.8997
2341.37	12.4877
2342.78	11.8422
2344.19	11.0861
2345.6	10.2313
2347.01	9.39457
2348.42	9.32988
2349.83	9.03401
2351.24	8.46228
2352.65	7.97055
2354.05	7.83886
2355.46	7.7418
2356.87	7.09413
2358.28	7.07229
2359.69	6.78465
2361.09	6.73463
2362.5	6.5507
2363.91	6.80144
2365.31	6.74554
2366.72	6.80531
2368.13	6.44707
2369.53	6.29295
2370.94	6.15713
2372.34	6.05701
2373.75	5.95213
2375.15	5.68809
2376.56	6.0742
2377.96	6.43857
2379.37	6.64409
2380.77	6.92015
2382.17	7.1539
2383.58	7.35108
2384.98	6.90054
2386.38	6.72999
2387.79	6.55937
2389.19	6.43296
2390.59	6.78534
2391.99	7.06198
2393.39	6.94475
2394.8	7.04698
2396.2	7.22242
2397.6	7.32002
2399	7.24003
2400.4	7.24859
2401.8	7.70282
2403.2	7.56795
2404.6	7.61829
2406	7.78667
2407.4	7.84916
2408.79	8.09875
2410.19	8.41244
2411.59	8.03516
2412.99	7.69479
2414.39	7.87391
2415.78	7.50811
2417.18	7.6497
2418.58	8.03328
2419.98	7.54922
2421.37	7.44693
2422.77	7.54975
2424.16	7.82165
2425.56	7.96842
2426.96	8.26628
2428.35	8.66538
2429.74	8.78266
2431.14	8.53139
2432.53	8.82532
2433.93	8.95811
2435.32	9.14825
2436.72	9.10294
2438.11	8.80478
2439.5	8.74103
2440.9	9.0493
2442.29	8.35637
2443.68	8.37888
2445.07	7.94704
2446.47	8.25651
2447.86	8.4108
2449.25	8.27733
2450.64	8.28496
2452.03	7.48747
2453.42	7.69109
2454.81	7.4108
2456.2	7.818
2457.59	7.63391
2458.98	7.61082
2460.37	7.883
2461.76	7.7476
2463.15	7.64417
2464.54	7.33672
2465.93	6.70436
2467.32	6.21504
2468.7	6.25905
2470.09	6.13097
2471.48	6.39939
2472.87	6.29076
2474.25	6.2389
2475.64	6.14432
2477.03	5.89208
2478.41	6.0406
2479.8	5.699
2481.18	5.2515
2482.57	5.19659
2483.95	4.98675
2485.34	4.92357
2486.72	5.14071
2488.11	5.26696
2489.49	5.10406
2490.88	5.40882
2492.26	5.47304
2493.65	5.59107
2495.03	5.39596
2496.41	5.80631
2497.79	5.75397
2499.18	5.47741
2500.56	5.39402
2501.94	5.45201
2503.32	4.77522
2504.7	4.2165
2506.09	3.61889
2507.47	3.19628
2508.85	3.03777
2510.23	2.58668
2511.61	2.48908
2512.99	2.7567
2514.37	2.36882
2515.75	2.83852
2517.13	2.76112
2518.51	2.50145
2519.89	2.7767
2521.26	2.63509
2522.64	2.54336
2524.02	2.19107
2525.4	1.9921
2526.78	1.56941
2528.15	1.32826
2529.53	0.851083
2530.91	0.569011
2532.28	0.0487903
2533.66	-0.330543
2535.04	-0.294055
2536.41	-0.633374
2537.79	-0.869759
2539.16	-1.2547
2540.54	-0.970412
2541.91	-1.07421
2543.29	-1.14077
2544.66	-1.30052
2546.04	-0.864951
2547.41	-0.900523
2548.78	-0.896089
2550.16	-0.907712
2551.53	-1.01947
2552.9	-1.45555
2554.27	-1.18534
2555.65	-0.735011
2557.02	-0.242296
2558.39	-0.202317
2559.76	-0.324108
2561.13	-0.331001
2562.51	-0.422783
2563.88	-0.514441
2565.25	-0.432175
2566.62	-0.805682
2567.99	-0.737377
2569.36	-0.409261
2570.73	-0.268257
2572.1	0.319694
2573.47	0.399495
2574.84	0.448945
2576.2	0.793497
2577.57	1.10049
2578.94	1.36662
2580.31	1.75764
2581.68	2.05079
2583.05	1.96848
2584.41	2.46148
2585.78	2.71877
2587.15	3.02787
2588.51	3.17273
2589.88	3.01376
2591.24	2.83969
2592.61	2.75323
2593.98	2.7754
2595.34	2.51898
2596.71	2.27467
2598.07	2.30426
2599.44	2.63859
2600.8	2.66732
2602.16	2.71318
2603.53	2.29214
2604.89	1.91888
2606.26	1.88531
2607.62	2.06604
2608.98	1.99399
2610.34	1.58861
2611.71	1.82991
2613.07	1.93941
2614.43	1.98847
2615.79	1.50679
2617.15	1.44449
2618.52	1.30079
2619.88	1.0886
2621.24	1.37673
2622.6	1.63753
2623.96	1.83706
2625.32	1.66344
2626.68	1.24254
2628.04	0.821804
2629.4	0.65801
2630.75	0.701352
2632.11	0.962456
2633.47	0.508031
2634.83	0.673805
2636.19	0.718366
2637.55	0.677479
2638.9	0.917253
2640.26	1.03329
2641.62	0.376191
2642.98	0.698674
2644.33	0.998097
2645.69	0.719646
2647.04	0.694232
2648.4	0.879533
2649.76	1.02744
2651.11	0.909437
2652.47	1.07526
2653.82	1.37694
2655.18	1.54748
2656.53	1.56335
2657.88	2.05182
2659.24	1.77499
2660.59	1.97818
2661.95	1.91764
2663.3	1.769
2664.65	1.77804
2666	1.76197
2667.36	2.47007
2668.71	2.2072
2670.06	1.94521
2671.41	2.30871
2672.76	2.51417
2674.12	2.49188
2675.47	2.71075
2676.82	2.72811
2678.17	2.97964
2679.52	3.46468
2680.87	3.43208
2682.22	3.02496
2683.57	3.19845
2684.92	3.55803
2686.27	3.74844
2687.62	3.62446
2688.97	3.81982
2690.31	3.68051
2691.66	3.63136
2693.01	3.69841
2694.36	3.59743
2695.71	3.26292
2697.05	3.37876
2698.4	3.53201
2699.75	3.48693
2701.09	3.44318
2702.44	4.22041
2703.78	4.18919
2705.13	4.04629
2706.48	4.23967
2707.82	3.99547
2709.17	3.91081
2710.51	3.81671
2711.86	3.34941
2713.2	3.41015
2714.54	3.52582
2715.89	3.58421
2717.23	3.46533
2718.57	3.52209
2719.92	3.65242
2721.26	3.97947
2722.6	3.7008
2723.95	3.50426
2725.29	3.28238
2726.63	2.99895
2727.97	3.03025
2729.31	2.79064
2730.65	2.70767
2732	2.55441
2733.34	2.82296
2734.68	3.14477
2736.02	2.55888
2737.36	2.55579
2738.7	3.01028
2740.04	2.88146
2741.38	2.55708
2742.72	2.29518
2744.05	2.1324
2745.39	1.89198
2746.73	1.59642
2748.07	1.48764
2749.41	0.90086
2750.75	1.11393
2752.08	1.17747
2753.42	1.25945
2754.76	0.935076
2756.09	0.752451
2757.43	0.457801
2758.77	0.255655
2760.1	0.736608
2761.44	0.724289
2762.78	0.564614
2764.11	0.976167
2765.44	0.767032
2766.78	0.841125
2768.11	0.856205
2769.45	0.852172
2770.78	0.489424
2772.12	0.304973
2773.45	0.820952
2774.78	0.78892
2776.12	0.729346
2777.45	0.668106
2778.78	0.781911
2780.12	0.751941
2781.45	0.834942
2782.78	1.2424
2784.11	1.53309
2785.44	1.30755
2786.78	1.53603
2788.11	1.22238
2789.44	1.18513
2790.77	1.10068
2792.1	1.15364
2793.43	1.19825
2794.76	1.10614
2796.09	1.13717
2797.42	0.760728
2798.75	0.775456
2800.08	0.863553
2801.4	0.485793
2802.73	0.246567
2804.06	0.304107
2805.39	0.572612
2806.72	0.0213294
2808.05	-0.595432
2809.37	-1.00284
2810.7	-1.37303
2812.03	-1.27766
2813.35	-1.19863
2814.68	-0.605383
2816.01	-0.718556
2817.33	0.00863911
2818.66	0.180278
2819.98	-0.0376897
2821.31	-0.0748216
2822.63	0.0193332
2823.96	0.513875
2825.28	1.33243
2826.61	2.37697
2827.93	2.62045
2829.25	3.53615
2830.58	4.10264
2831.9	4.34831
2833.23	5.47322
2834.55	6.41659
2835.87	7.30144
2837.19	8.55551
2838.52	9.83884
2839.84	11.1849
2841.16	12.5821
2842.48	13.685
2843.8	15.2779
2845.12	16.7017
2846.44	18.2044
2847.77	20.5778
2849.08	22.251
2850.4	23.6279
2851.73	24.7864
2853.05	26.2358
2854.36	27.7077
2855.68	29.6146
2857	30.7844
2858.32	32.224
2859.64	33.6575
2860.96	35.1529
2862.28	36.3195
2863.59	36.9119
2864.91	37.6587
2866.23	38.6414
2867.55	39.99
2868.86	41.5255
2870.18	42.0223
2871.5	42.5076
2872.81	43.0203
2874.13	43.9616
2875.44	44.9648
2876.76	46.1166
2878.07	47.2073
2879.39	47.5839
2880.7	48.262
2882.02	48.6168
2883.33	49.2448
2884.65	49.724
2885.96	49.7996
2887.28	50.1934
2888.59	50.9268
2889.9	51.9376
2891.21	52.662
2892.53	53.1205
2893.84	53.2676
2895.15	53.9397
2896.46	54.3847
2897.78	55.1056
2899.09	56.7671
2900.4	58.5078
2901.71	59.9229
2903.02	61.5038
2904.33	63.2383
2905.64	65.3059
2906.95	67.0646
2908.26	68.2992
2909.57	70.2592
2910.88	72.1554
2912.19	74.0581
2913.5	76.1905
2914.81	77.5992
2916.12	79.7244
2917.43	81.41
2918.73	83.4001
2920.04	85.3744
2921.35	86.8808
2922.66	87.7644
2923.96	88.9958
2925.27	90.1141
2926.58	90.8373
2927.88	91.4788
2929.19	91.6035
2930.5	92.4477
2931.8	92.8703
2933.11	93.4482
2934.41	93.2545
2935.72	92.8935
2937.02	93.0877
2938.33	93.1749
2939.63	92.5644
2940.94	91.6295
2942.24	90.9159
2943.54	90.1253
2944.85	88.3776
2946.15	87.5867
2947.45	86.0168
2948.76	84.7072
2950.06	83.4324
2951.36	81.8514
2952.66	80.7562
2953.97	79.6331
2955.27	77.8407
2956.57	76.2572
2957.87	74.7928
2959.17	73.4491
2960.47	72.1024
2961.77	70.9885
2963.07	69.4273
2964.37	68.4421
2965.67	67.0366
2966.97	65.0049
2968.27	63.5096
2969.57	62.4551
2970.87	60.7996
2972.17	58.6256
2973.47	56.8901
2974.77	55.3164
2976.07	54.3339
2977.36	52.83
2978.66	51.4545
2979.96	50.1608
2981.26	49.0314
2982.55	47.3199
2983.85	45.8486
2985.15	44.1614
2986.44	42.1142
2987.74	40.2278
2989.03	38.5674
2990.33	36.978
2991.63	35.4643
2992.92	33.8858
2994.21	32.2972
2995.51	31.0562
2996.8	29.9511
2998.1	28.9167
2999.39	27.6479
3000.69	26.4486
3001.98	25.0071
3003.27	23.6992
3004.57	22.7911
3005.86	21.9742
3007.15	21.2027
3008.44	20.2902
3009.74	19.1042
3011.03	19.0859
3012.32	18.3451
3013.61	17.8451
3014.9	17.6564
3016.19	16.9193
3017.48	16.7099
3018.78	16.1094
3020.07	15.721
3021.36	15.4234
3022.65	14.7769
3023.94	14.2091
3025.23	13.7681
3026.51	13.4908
3027.8	12.9826
3029.09	13.1237
3030.38	12.7792
3031.67	12.4047
3032.96	12.8331
3034.24	12.6632
3035.53	12.1771
3036.82	11.8157
3038.11	11.9298
3039.39	12.3727
3040.68	12.4226
3041.97	12.2197
3043.25	12.2015
3044.54	12.2094
3045.83	12.0425
3047.11	11.7353
3048.4	11.6145
3049.68	11.4338
3050.97	11.0773
3052.25	11.034
3053.54	10.8764
3054.82	11.1118
3056.11	11.1763
3057.39	10.6767
3058.67	10.7425
3059.96	10.5411
3061.24	10.7547
3062.52	10.416
3063.81	10.1731
3065.09	9.76756
3066.37	9.82576
3067.65	9.54251
3068.94	9.45621
3070.22	8.8974
3071.5	8.93513
3072.78	8.92353
3074.06	8.80067
3075.34	8.50356
3076.62	8.11649
3077.9	8.14856
3079.18	8.72767
3080.46	8.15906
3081.74	8.12111
3083.02	7.44613
3084.3	7.08078
3085.58	6.55198
3086.86	6.04896
3088.14	5.56365
3089.42	5.56024
3090.69	5.50854
3091.97	5.43503
3093.25	5.49091
3094.53	5.04134
3095.8	4.85217
3097.08	4.95331
3098.36	4.28943
3099.63	4.06582
3100.91	4.26558
3102.19	4.40776
3103.46	4.35686
3104.74	3.97673
3106.01	3.90336
3107.29	3.17713
3108.56	2.68768
3109.84	2.49708
3111.11	2.5615
3112.39	2.53943
3113.66	2.62419
3114.94	2.76174
3116.21	2.30932
3117.48	2.42227
3118.76	2.46401
3120.03	2.18248
3121.3	1.92144
3122.57	2.16302
3123.85	1.88148
3125.12	1.92454
3126.39	1.74299
3127.66	1.49257
3128.93	1.67907
3130.21	1.88803
3131.48	1.72658
3132.75	1.93924
3134.02	2.35499
3135.29	2.78163
3136.56	2.59933
3137.83	2.67679
3139.1	2.90438
3140.37	3.08285
3141.64	3.1411
3142.91	2.84595
3144.17	2.60141
3145.44	2.57302
3146.71	3.01546
3147.98	3.3501
3149.25	3.82289
