#Acq. time (s)=	45
#Accumulations=	2
#Range (cm-¹)=	200...3150
#Windows=	2
#Auto scanning=	Off
#Autofocus=	Off
#Macrospot=	Off
#AutoExposure=	Off
#Spike filter=	Multiple accum.
#Delay time (s)=	0
#Binning=	1
#Readout mode=	Signal
#DeNoise=	Off
#ICS correction=	On
#Dark correction=	Off
#Inst. Process=	Off
#Detector Gain=	Best Dynamic Range
#Detector ADC=	20 kHz       
#Detector temperature (°C)=	-69.85
#Instrument=	LabRAM HR Evol
#Detector=	Synapse
#Objective=	x100
#Grating=	600 gr/mm
#ND Filter=	100%
#Laser (nm)=	532 
#Hole=	100.021
#Range=	Auto
#Laser Pol.=	No
#Raman. Pol.=	No
#Laser Pol. (°)=	-0.0007625
#Raman Pol. (°)=	89.9995
#Collection=	Microscope
#StageXY=	Marzhauser
#StageZ=	Marzhauser
#X (µm)=	4721.1
#Y (µm)=	-7700.7
#Z (µm)=	584.45
#Full time(mm:ss)=	3:18
#Project=	
#Sample=	
#Site=	
#Title=	Thy_30_10_47_2x_45s_532 nm_x100_100%_600 gr_mm
#Remark=	
#Date=	30.06.2022 14:46
#Acquired=	30.06.2022 14:46:41
#Base:Fit=	10.08.2022 09:58:11
#Base:Sub=	10.08.2022 09:58:44
#Filter:Polynom=	16.08.2022 10:22:53
#AxisType[0]=Intens
#AxisUnit[0]=Cnt
#AxisType[1]=Spectr
#AxisUnit[1]=1/cm
200.533	-5.37044
202.348	0.267607
204.162	3.59509
205.976	6.37074
207.792	8.39051
209.605	9.82854
211.418	11.6572
213.23	12.0606
215.044	13.2638
216.856	15.1933
218.667	15.1888
220.478	15.6222
222.289	16.8399
224.102	18.246
225.912	19.7612
227.721	22.0466
229.531	23.5115
231.34	24.1988
233.148	25.9981
234.956	27.3411
236.766	29.3426
238.574	30.0779
240.381	30.287
242.188	31.0386
243.994	32.928
245.801	33.8792
247.606	34.9387
249.412	35.9703
251.217	36.6489
253.024	38.0381
254.828	40.2712
256.632	41.2202
258.436	41.4812
260.239	42.3065
262.042	43.8245
263.845	45.3616
265.647	46.279
267.449	48.5459
269.25	50.1702
271.052	51.0372
272.852	52.2281
274.653	52.8605
276.453	52.4763
278.253	52.7335
280.052	53.1964
281.852	54.2475
283.65	53.9452
285.449	52.5658
287.247	50.5205
289.044	50.4449
290.842	50.1475
292.639	48.835
294.436	48.5095
296.232	46.6072
298.028	45.8675
299.821	45.2774
301.617	44.4409
303.412	42.7612
305.206	42.2925
307	41.3794
308.794	39.7257
310.588	39.609
312.381	38.8214
314.172	37.8374
315.964	37.154
317.756	36.7163
319.548	34.3999
321.34	33.3349
323.131	31.9787
324.921	30.4168
326.71	28.6919
328.5	27.0964
330.29	26.4972
332.079	26.3368
333.868	25.7283
335.654	24.3631
337.443	24.4968
339.231	23.2292
341.018	21.4593
342.804	20.236
344.591	20.5767
346.377	18.832
348.163	17.7579
349.947	16.8252
351.733	17.4819
353.518	17.4138
355.303	15.6766
357.085	14.6429
358.869	13.8552
360.653	12.7888
362.435	12.976
364.218	11.879
366.001	11.354
367.781	10.8481
369.563	9.07446
371.345	7.72046
373.124	7.15891
374.905	7.12901
376.686	6.40152
378.464	6.27012
380.244	5.00512
382.022	5.0913
383.801	4.19647
385.58	4.05996
387.357	4.83738
389.135	4.374
390.911	4.14972
392.689	4.9657
394.466	4.21078
396.241	5.79137
398.018	5.88555
399.792	5.02343
401.568	3.00091
403.341	3.27061
405.117	2.55991
406.889	1.53597
408.664	1.16943
410.436	2.48787
412.21	2.96364
413.981	2.90595
415.755	2.31915
417.525	3.40484
419.298	3.21462
421.068	2.69045
422.84	3.24396
424.609	3.55031
426.38	3.80714
428.149	3.24005
429.919	3.7795
431.688	4.81278
433.455	5.95761
435.225	4.44753
436.992	4.84774
438.76	4.33858
440.527	4.48478
442.293	2.61835
444.06	1.34545
445.826	0.888682
447.593	1.50651
449.357	1.65893
451.122	1.91217
452.888	2.24454
454.651	2.46953
456.415	1.98486
458.18	2.44483
459.942	3.58424
461.705	4.17334
463.469	4.86863
465.23	5.01887
466.991	6.25556
468.752	8.15062
470.515	8.39427
472.275	9.16341
474.035	10.8363
475.797	10.9904
477.556	11.9225
479.315	13.1232
481.073	13.7444
482.834	15.3633
484.592	16.4298
486.349	16.2782
488.106	16.0258
489.863	17.2951
491.622	19.1014
493.378	19.6757
495.134	20.3138
496.889	21.7592
498.645	21.0087
500.401	20.9047
502.156	20.3872
503.91	20.809
505.664	22.0067
507.417	21.5579
509.171	21.6491
510.923	21.7605
512.678	21.7212
514.43	22.2223
516.182	22.7085
517.933	23.2555
519.684	22.4261
521.435	21.2388
523.186	19.8948
524.936	20.1606
526.686	19.3553
528.435	18.5905
530.184	17.2572
531.933	18.4051
533.682	19.0567
535.43	18.3676
537.18	18.2132
538.927	18.3614
540.674	19.1452
542.421	19.7097
544.167	20.3287
545.913	20.8372
547.659	21.0513
549.403	20.3855
551.148	20.3636
552.893	19.9887
554.637	20.604
556.381	21.03
558.125	20.3311
559.868	22.097
561.611	21.9369
563.354	21.4733
565.097	21.6872
566.839	21.2588
568.581	21.0296
570.322	21.6128
572.063	20.1792
573.802	19.0529
575.542	17.97
577.283	16.7922
579.022	15.418
580.762	14.8417
582.501	14.2602
584.24	13.1229
585.976	12.2474
587.714	12.5483
589.452	11.5782
591.19	11.344
592.927	11.6825
594.663	11.3004
596.398	11.5089
598.134	11.1983
599.87	11.9083
601.605	11.7693
603.338	12.4715
605.073	11.9313
606.808	11.1334
608.542	12.3519
610.274	12.9699
612.007	13.2846
613.74	13.0726
615.473	13.7767
617.204	14.5069
618.936	16.9037
620.668	16.7467
622.397	16.202
624.128	17.39
625.859	18.9687
627.588	19.335
629.318	19.1925
631.048	18.5627
632.775	17.9661
634.505	17.5827
636.233	17.4819
637.96	18.473
639.688	19.0254
641.416	20.3721
643.142	19.394
644.869	19.6616
646.594	20.7476
648.32	20.0613
650.045	20.383
651.771	20.5498
653.496	20.9527
655.219	19.9426
656.944	21.3777
658.667	21.4486
660.391	21.1288
662.113	21.8256
663.837	21.2992
665.558	22.087
667.281	22.4358
669.002	22.6884
670.724	21.9896
672.444	23.0943
674.166	22.7507
675.885	23.7147
677.606	24.6647
679.325	24.7509
681.045	24.7056
682.763	25.8037
684.483	25.9668
686.2	27.0892
687.917	28.3278
689.636	28.4169
691.352	28.7152
693.07	29.6616
694.786	31.0166
696.501	30.7731
698.219	32.0486
699.933	31.7381
701.65	32.6325
703.364	33.7733
705.078	34.9803
706.793	32.9588
708.506	33.7906
710.219	33.4198
711.934	34.2916
713.646	33.1443
715.358	33.0038
717.071	32.6966
718.782	32.8105
720.493	33.817
722.204	34.4091
723.916	35.5396
725.626	36.4399
727.336	37.6521
729.045	37.4356
730.756	38.9815
732.464	39.4153
734.173	39.0549
735.881	39.217
737.59	39.5968
739.297	40.6732
741.004	41.7686
742.711	44.509
744.417	44.2268
746.125	44.8675
747.831	45.9779
749.537	46.5285
751.242	48.9045
752.946	51.0835
754.651	51.8342
756.357	52.9223
758.061	54.6598
759.764	55.8168
761.467	57.9607
763.17	58.5705
764.872	60.0409
766.575	62.3866
768.276	64.381
769.978	65.8574
771.679	67.2932
773.382	69.4416
775.083	70.4283
776.783	72.9398
778.483	73.8012
780.182	75.5682
781.882	76.2523
783.581	77.9543
785.279	79.7392
786.978	80.7553
788.676	82.7293
790.373	83.5572
792.071	83.9515
793.768	86.0998
795.464	87.5291
797.161	89.4006
798.857	89.3251
800.552	90.2917
802.248	91.106
803.941	92.5942
805.636	93.8713
807.33	94.1841
809.024	94.8401
810.718	94.5564
812.412	93.313
814.105	93.0323
815.798	93.644
817.49	94.6221
819.183	95.9002
820.873	96.9027
822.564	96.5814
824.256	97.9953
825.947	98.5076
827.637	97.8074
829.328	96.7422
831.016	97.4606
832.705	97.2732
834.395	96.9645
836.084	97.9532
837.772	96.7091
839.459	94.3409
841.147	95.146
842.835	95.213
844.522	95.1301
846.209	94.2898
847.894	92.4757
849.581	92.8773
851.267	92.0213
852.953	91.1434
854.637	89.9782
856.322	88.7069
858.007	87.9126
859.689	86.4027
861.374	85.3204
863.058	83.195
864.739	82.6978
866.423	81.0555
868.106	80.5978
869.787	79.2674
871.469	76.6931
873.151	76.8001
874.831	75.3525
876.512	73.8797
878.193	72.3533
879.872	70.8607
881.553	68.4204
883.231	67.1377
884.911	66.1317
886.591	65.4012
888.268	64.3659
889.947	63.5998
891.623	61.9454
893.302	60.6098
894.978	60.4063
896.656	59.8098
898.331	60.1776
900.008	60.2977
901.683	60.5887
903.359	59.2293
905.033	57.9185
906.709	57.2744
908.383	58.6898
910.058	57.642
911.731	56.4114
913.405	55.5906
915.078	56.6125
916.752	55.4597
918.423	54.746
920.096	54.6703
921.768	53.5728
923.438	53.3914
925.111	54.1034
926.781	52.2192
928.452	51.2209
930.122	49.7743
931.791	47.0224
933.462	47.1734
935.13	46.7106
936.799	46.0572
938.468	44.5696
940.136	43.5156
941.803	41.9853
943.472	39.7357
945.139	37.1633
946.805	35.6099
948.473	34.0721
950.139	33.0197
951.804	31.728
953.471	30.6234
955.136	30.2593
956.801	28.6733
958.465	27.3288
960.131	26.5312
961.794	25.0804
963.458	24.7165
965.12	24.8416
966.785	24.4875
968.447	25.0012
970.109	23.5534
971.771	22.5114
973.432	21.8336
975.095	21.278
976.756	21.2837
978.417	21.7393
980.077	21.0501
981.737	21.0618
983.396	20.9803
985.057	20.4812
986.716	18.8153
988.375	18.3837
990.033	17.8897
991.691	18.196
993.349	17.1364
995.006	17.0864
996.663	16.658
998.32	16.0524
999.976	14.6634
1001.63	14.2196
1003.29	14.0892
1004.95	12.7288
1006.6	11.5821
1008.26	11.4658
1009.91	10.9315
1011.56	11.3178
1013.22	11.5337
1014.87	10.2618
1016.53	11.2939
1018.18	9.56726
1019.83	8.04144
1021.48	7.75017
1023.14	7.25739
1024.79	6.95234
1026.44	5.85804
1028.09	7.30049
1029.74	8.51724
1031.39	9.14523
1033.04	10.9594
1034.69	11.3239
1036.34	11.9335
1037.99	11.2937
1039.64	12.0322
1041.29	13.1513
1042.94	13.1161
1044.58	13.1829
1046.23	13.5612
1047.88	13.3326
1049.52	13.866
1051.17	14.2866
1052.82	13.6443
1054.46	14.2939
1056.11	14.563
1057.75	15.5261
1059.4	15.6877
1061.04	16.0506
1062.69	14.7341
1064.33	14.1334
1065.98	13.4081
1067.62	12.772
1069.26	12.6759
1070.9	12.6072
1072.55	12.9407
1074.19	13.4461
1075.83	12.1642
1077.47	11.0423
1079.11	10.3307
1080.76	10.5939
1082.4	11.7078
1084.04	11.9825
1085.68	11.9938
1087.32	11.3685
1088.95	13.0836
1090.59	13.0653
1092.23	12.9985
1093.87	13.0389
1095.51	13.076
1097.15	11.0838
1098.78	11.2994
1100.42	11.3844
1102.06	13.1229
1103.69	12.9931
1105.33	14.0067
1106.97	13.2291
1108.6	12.8734
1110.24	14.5498
1111.87	13.9058
1113.51	14.9794
1115.14	13.6293
1116.77	13.2645
1118.41	12.5232
1120.04	12.2472
1121.67	13.925
1123.31	12.4914
1124.94	11.7922
1126.57	11.4848
1128.2	11.5047
1129.83	11.843
1131.47	11.5759
1133.1	10.8096
1134.72	10.2901
1136.36	9.07008
1137.98	8.86145
1139.62	7.89119
1141.24	7.42173
1142.87	5.6328
1144.5	4.55491
1146.13	3.61733
1147.76	3.25407
1149.38	2.8872
1151.01	3.01527
1152.64	2.47051
1154.27	1.30544
1155.89	-0.0261965
1157.52	-1.42511
1159.14	-1.49302
1160.77	0.0584386
1162.39	0.209391
1164.02	-0.627386
1165.64	-1.42985
1167.27	-1.02462
1168.89	-0.879634
1170.51	0.598051
1172.14	0.420331
1173.76	1.54501
1175.38	1.72546
1177	1.93928
1178.63	1.62647
1180.25	3.25936
1181.87	3.81598
1183.49	4.25381
1185.11	4.0118
1186.73	4.87865
1188.35	4.63479
1189.97	6.2806
1191.59	8.79521
1193.21	10.9466
1194.83	12.6522
1196.45	13.7633
1198.07	15.616
1199.68	16.0764
1201.3	17.4898
1202.92	19.1413
1204.53	19.2975
1206.15	20.2123
1207.77	21.5053
1209.38	23.2338
1211	24.6211
1212.62	25.7135
1214.23	27.3162
1215.84	29.1808
1217.46	30.8801
1219.07	31.8908
1220.69	32.7063
1222.3	34.9554
1223.91	36.0415
1225.53	37.7165
1227.14	38.8799
1228.75	40.8839
1230.36	41.7457
1231.97	43.3323
1233.59	44.836
1235.2	45.6899
1236.81	47.9179
1238.42	49.3524
1240.03	51.8202
1241.64	53.4281
1243.25	54.3542
1244.85	55.9715
1246.46	57.4286
1248.07	57.8704
1249.68	58.2803
1251.29	59.6426
1252.9	59.9422
1254.5	59.3294
1256.11	59.1612
1257.72	59.9304
1259.32	61.2444
1260.93	62.5584
1262.54	63.3235
1264.14	62.7306
1265.75	63.4789
1267.35	64.9779
1268.96	66.4178
1270.56	67.0961
1272.16	68.9041
1273.77	69.4218
1275.37	67.4999
1276.97	67.9508
1278.57	68.0648
1280.18	68.1697
1281.78	69.1016
1283.38	69.9581
1284.98	69.8304
1286.58	71.6742
1288.18	71.9734
1289.78	72.4588
1291.38	73.9189
1292.99	73.7818
1294.58	74.7843
1296.18	75.6898
1297.78	76.2726
1299.38	76.9955
1300.98	77.9176
1302.58	79.7229
1304.17	81.993
1305.77	83.3378
1307.37	83.7593
1308.97	84.0284
1310.56	85.4085
1312.16	87.2907
1313.76	86.8814
1315.35	88.4509
1316.95	89.5055
1318.54	89.5159
1320.14	90.5164
1321.73	90.107
1323.32	88.8954
1324.92	88.1639
1326.51	87.2531
1328.1	85.9839
1329.7	86.3878
1331.29	85.936
1332.88	85.103
1334.47	84.3785
1336.07	84.4054
1337.66	84.5445
1339.25	83.9776
1340.84	83.5545
1342.43	83.1272
1344.02	82.4904
1345.61	83.6898
1347.2	84.016
1348.79	83.5231
1350.37	82.4837
1351.96	81.6518
1353.55	79.9675
1355.14	77.1158
1356.73	76.2148
1358.31	75.6043
1359.9	73.8954
1361.49	73.4357
1363.07	72.3163
1364.66	71.3072
1366.25	71.7649
1367.83	69.1793
1369.42	68.3145
1371	68.3794
1372.59	66.4762
1374.17	65.4799
1375.75	64.4563
1377.34	65.0305
1378.92	64.6055
1380.5	64.2832
1382.09	64.5095
1383.67	63.8601
1385.25	63.4171
1386.83	62.4466
1388.42	63.0101
1390	63.1863
1391.58	62.3814
1393.16	61.3259
1394.74	62.1732
1396.32	60.7374
1397.9	60.4677
1399.48	59.6667
1401.06	58.6526
1402.64	57.483
1404.21	58.029
1405.79	56.6815
1407.37	55.9297
1408.95	57.0194
1410.53	57.827
1412.1	58.4782
1413.68	60.959
1415.26	62.8887
1416.83	64.8372
1418.41	66.7718
1419.98	70.1303
1421.56	72.4359
1423.13	74.7679
1424.71	77.614
1426.28	81.1014
1427.86	83.5064
1429.43	85.8416
1431	89.3221
1432.58	91.8262
1434.15	94.5043
1435.72	98.9915
1437.29	101.939
1438.87	104.196
1440.44	107.187
1442.01	109.062
1443.58	111.155
1445.15	113.703
1446.72	114.534
1448.29	115.701
1449.86	116.632
1451.43	116.298
1453	116.789
1454.57	118.013
1456.14	118.924
1457.71	117.897
1459.27	117.555
1460.84	116.692
1462.41	116.092
1463.98	114.753
1465.54	112.464
1467.11	110.881
1468.67	107.655
1470.24	104.829
1471.81	101.889
1473.37	99.7157
1474.94	97.3801
1476.5	95.4879
1478.07	92.0955
1479.63	88.4384
1481.19	85.4471
1482.76	82.4391
1484.32	79.5023
1485.88	78.0829
1487.45	76.4095
1489.01	74.3493
1490.57	72.3848
1492.13	71.9268
1493.69	70.2389
1495.26	69.1025
1496.82	68.7347
1498.38	69.8608
1499.94	69.8913
1501.5	69.364
1503.06	69.5478
1504.62	69.8686
1506.17	69.1356
1507.73	69.7549
1509.29	69.6714
1510.85	69.9946
1512.41	70.6906
1513.97	72.0673
1515.52	72.0496
1517.08	74.1694
1518.64	75.4161
1520.19	75.6224
1521.75	76.6763
1523.31	78.2716
1524.86	78.1454
1526.42	78.1058
1527.97	78.8236
1529.52	80.249
1531.08	81.5236
1532.63	82.1769
1534.19	83.7558
1535.74	84.1734
1537.29	85.8768
1538.85	86.1896
1540.4	86.2544
1541.95	88.0441
1543.5	89.9742
1545.06	91.1963
1546.61	91.8046
1548.16	93.5737
1549.71	95.7684
1551.26	98.3475
1552.81	99.8116
1554.36	100.546
1555.91	100.751
1557.46	101.739
1559.01	103.19
1560.56	104.751
1562.11	105.812
1563.65	107.751
1565.2	110.364
1566.75	111.945
1568.29	113.103
1569.84	115.639
1571.39	117.384
1572.94	118.695
1574.48	120.405
1576.03	122.171
1577.57	121.298
1579.12	121.498
1580.66	123.419
1582.21	125.069
1583.75	126.937
1585.3	128.566
1586.84	129.348
1588.38	130.921
1589.93	131.691
1591.47	132.339
1593.01	132.897
1594.55	133.822
1596.1	134.733
1597.64	136.548
1599.18	137.443
1600.72	138.339
1602.26	138.307
1603.8	138.27
1605.34	138.594
1606.88	138.847
1608.42	137.732
1609.96	138.336
1611.5	140.133
1613.04	140.303
1614.58	139.02
1616.12	138.257
1617.65	138.614
1619.19	139.509
1620.73	139.223
1622.27	139.713
1623.8	140.852
1625.34	142.256
1626.87	143.606
1628.41	144.287
1629.95	143.687
1631.48	144.81
1633.02	146.62
1634.55	149.313
1636.09	150.098
1637.62	151.654
1639.15	152.642
1640.69	155.226
1642.22	156.666
1643.76	157.211
1645.29	158.48
1646.82	160.101
1648.35	161.045
1649.88	161.081
1651.42	162.46
1652.95	163.616
1654.48	164.442
1656.01	167.079
1657.54	168.18
1659.07	168.509
1660.6	168.621
1662.13	168.643
1663.66	167.742
1665.19	167.109
1666.72	167.427
1668.24	167.664
1669.77	168.646
1671.3	168.61
1672.83	168.474
1674.35	167.722
1675.88	165.882
1677.41	164.33
1678.93	161.445
1680.46	158.041
1681.99	156.359
1683.51	154.078
1685.04	151.722
1686.56	150.816
1688.09	148.311
1689.61	145.35
1691.13	141.529
1692.66	139.863
1694.18	138.314
1695.71	136.108
1697.23	135.295
1698.75	133.866
1700.27	133.083
1701.8	131.643
1703.32	129.793
1704.84	129.09
1706.36	126.618
1707.88	125.911
1709.4	124.821
1710.92	123.955
1712.44	122.761
1713.96	121.729
1715.48	121.644
1717	121.365
1718.52	121.028
1720.04	119.737
1721.56	119.488
1723.07	118.412
1724.59	118.37
1726.11	117.146
1727.63	118.07
1729.14	117.435
1730.66	116.949
1732.18	116.307
1733.69	115.13
1735.21	113.756
1736.72	112.544
1738.24	112.33
1739.75	110.907
1741.27	111.3
1742.78	110.838
1744.3	109.699
1745.81	108.602
1747.32	106.899
1748.84	105.133
1750.35	103.771
1751.86	101.966
1753.37	100.426
1754.89	98.4344
1756.4	97.6837
1757.91	98.1728
1759.42	97.3126
1760.93	96.468
1762.44	95.6111
1763.95	94.5078
1765.46	92.6752
1766.97	90.9696
1768.48	89.9487
1769.99	89.2932
1771.5	88.0202
1773.01	87.2562
1774.52	86.1045
1776.03	86.1315
1777.53	84.9191
1779.04	83.8706
1780.55	83.0496
1782.06	80.86
1783.56	80.1728
1785.07	78.6592
1786.57	77.6089
1788.08	76.7519
1789.59	75.1315
1791.09	74.4971
1792.6	72.4434
1794.1	70.788
1795.6	69.1911
1797.11	68.5754
1798.61	66.4668
1800.12	65.6563
1801.62	64.6145
1803.12	64.4355
1804.63	62.9066
1806.13	61.8747
1807.63	60.864
1809.13	58.9714
1810.63	57.4403
1812.14	56.3739
1813.64	55.095
1815.14	53.3954
1816.64	52.9805
1818.14	51.6217
1819.64	50.6772
1821.14	50.0145
1822.64	49.0127
1824.14	48.1783
1825.63	47.3437
1827.13	46.8456
1828.63	45.864
1830.13	44.315
1831.63	44.3747
1833.12	42.7717
1834.62	41.1832
1836.12	39.9317
1837.62	39.7491
1839.11	38.1432
1840.61	37.6033
1842.1	36.4756
1843.6	35.8009
1845.09	34.6367
1846.59	33.4498
1848.08	31.9922
1849.58	30.7351
1851.07	29.5464
1852.57	28.0188
1854.06	26.5514
1855.55	25.1942
1857.04	23.8394
1858.54	21.9472
1860.03	20.1492
1861.52	20.1819
1863.01	18.1415
1864.5	16.7277
1866	14.8748
1867.49	14.2811
1868.98	13.8885
1870.47	13.0633
1871.96	12.5272
1873.45	12.2606
1874.94	12.3009
1876.43	12.7234
1877.92	11.9679
1879.41	10.9334
1880.89	11.0851
1882.38	10.859
1882.48	11.0767
1883.97	11.3701
1885.47	11.7906
1886.96	11.6492
1888.46	12.1386
1889.95	11.7155
1891.44	11.2413
1892.94	10.9878
1894.43	11.0474
1895.92	11.0737
1897.41	10.4247
1898.9	10.239
1900.4	10.0689
1901.89	9.47736
1903.38	9.12135
1904.87	10.0194
1906.36	8.96504
1907.85	9.60646
1909.34	9.51915
1910.83	9.7962
1912.32	8.93179
1913.81	8.91738
1915.29	8.05722
1916.78	7.26518
1918.27	6.46983
1919.76	5.99585
1921.25	5.32007
1922.74	5.12622
1924.22	5.63792
1925.71	5.86408
1927.2	5.20439
1928.68	6.28288
1930.17	5.82005
1931.65	5.62017
1933.14	5.61209
1934.63	4.47147
1936.11	3.6444
1937.59	4.47264
1939.08	4.87347
1940.56	5.63076
1942.05	5.57237
1943.53	5.5177
1945.01	6.95089
1946.5	6.62059
1947.98	5.89478
1949.46	6.00285
1950.94	4.99497
1952.43	5.83545
1953.91	6.16035
1955.39	6.13214
1956.87	6.50803
1958.35	5.89493
1959.83	6.31668
1961.31	5.4017
1962.79	4.39724
1964.27	3.10698
1965.75	3.31589
1967.23	3.96256
1968.71	3.03074
1970.19	2.5214
1971.67	2.10832
1973.14	2.59499
1974.62	2.39839
1976.1	1.67578
1977.58	2.0187
1979.05	2.00631
1980.53	-0.0312154
1982.01	0.00355266
1983.48	-0.0997845
1984.96	-0.0344803
1986.43	-0.870376
1987.91	-1.025
1989.38	-1.4717
1990.86	-1.39397
1992.33	-0.267332
1993.81	0.0243723
1995.28	0.700106
1996.76	1.22645
1998.23	2.31898
1999.7	3.84091
2001.18	4.10462
2002.65	5.91411
2004.12	5.19107
2005.59	5.56818
2007.06	6.4722
2008.54	6.83709
2010.01	8.49
2011.48	9.13586
2012.95	10.3654
2014.42	11.4448
2015.89	12.0164
2017.36	13.0689
2018.83	14.4127
2020.3	14.7198
2021.77	15.7758
2023.24	17.3839
2024.71	17.6124
2026.17	18.6433
2027.64	18.2932
2029.11	18.2143
2030.58	18.9358
2032.04	19.8487
2033.51	21.0266
2034.98	19.9934
2036.45	19.9829
2037.91	21.1846
2039.38	22.0565
2040.84	22.3593
2042.31	21.6588
2043.77	21.7379
2045.24	21.8017
2046.7	22.147
2048.17	21.8484
2049.63	20.8988
2051.1	20.8109
2052.56	19.2309
2054.02	18.9284
2055.48	19.4395
2056.95	19.4346
2058.41	18.5363
2059.87	17.9789
2061.33	19.0384
2062.8	18.705
2064.26	19.1657
2065.72	19.6987
2067.18	20.0356
2068.64	19.9311
2070.1	19.9343
2071.56	20.9991
2073.02	21.369
2074.48	21.2865
2075.94	22.833
2077.4	23.1212
2078.86	24.1518
2080.31	25.3288
2081.77	25.3805
2083.23	25.7829
2084.69	27.3271
2086.14	28.8072
2087.6	28.7392
2089.06	29.3852
2090.52	30.6408
2091.97	30.7096
2093.43	30.9758
2094.88	31.2787
2096.34	31.3376
2097.79	30.6879
2099.25	31.4107
2100.7	32.15
2102.16	33.1749
2103.61	34.5512
2105.07	35.4479
2106.52	36.011
2107.97	36.2934
2109.43	37.3911
2110.88	38.1551
2112.33	38.9595
2113.78	39.362
2115.24	40.3581
2116.69	41.2212
2118.14	42.6425
2119.59	44.3691
2121.04	45.6489
2122.49	45.5952
2123.94	47.3964
2125.39	48.1232
2126.84	49.9445
2128.29	51.2091
2129.74	53.1528
2131.19	54.5232
2132.64	56.2614
2134.09	58.3896
2135.54	58.5202
2136.98	59.6431
2138.43	61.2131
2139.88	61.591
2141.33	62.7081
2142.77	64.9335
2144.22	66.6649
2145.67	67.6186
2147.11	68.9425
2148.56	70.0413
2150.01	70.3337
2151.45	70.5821
2152.9	71.7724
2154.34	73.0407
2155.79	72.9629
2157.23	74.6105
2158.67	74.3559
2160.12	75.0648
2161.56	76.4966
2163	77.079
2164.45	77.2612
2165.89	78.6853
2167.33	79.0865
2168.78	79.7001
2170.22	79.6372
2171.66	80.1312
2173.1	80.347
2174.54	79.9529
2175.98	80.3114
2177.42	81.5674
2178.86	82.0854
2180.3	81.6811
2181.74	81.3002
2183.18	81.216
2184.62	81.213
2186.06	80.9832
2187.5	81.1543
2188.94	81.4558
2190.38	81.2986
2191.82	81.4212
2193.25	81.1905
2194.69	79.7908
2196.13	79.7897
2197.57	78.5509
2199	77.5312
2200.44	76.8017
2201.88	75.7279
2203.31	73.8284
2204.75	71.5944
2206.18	69.7488
2207.62	68.143
2209.05	67.1581
2210.49	65.8492
2211.92	64.83
2213.36	63.5931
2214.79	62.5896
2216.22	59.7802
2217.66	58.8578
2219.09	56.8965
2220.52	56.3301
2221.96	55.1638
2223.39	54.2419
2224.82	53.52
2226.25	51.3951
2227.68	48.7336
2229.11	48.5139
2230.55	47.2569
2231.98	46.8946
2233.41	45.8827
2234.84	44.0582
2236.27	43.4699
2237.7	43.4528
2239.12	41.11
2240.55	39.5788
2241.98	37.8382
2243.41	37.4423
2244.84	36.4196
2246.27	36.3252
2247.7	36.046
2249.12	35.827
2250.55	35.5536
2251.98	35.2148
2253.41	34.6054
2254.83	34.4969
2256.26	33.7839
2257.68	33.6114
2259.11	33.2426
2260.54	33.4599
2261.96	32.7416
2263.39	32.29
2264.81	32.5699
2266.24	32.0261
2267.66	32.2196
2269.08	32.0033
2270.51	31.8814
2271.93	31.5288
2273.35	31.2247
2274.78	31.2678
2276.2	31.8066
2277.62	32.9282
2279.04	32.9787
2280.47	32.5309
2281.89	32.5481
2283.31	32.9412
2284.73	32.616
2286.15	32.7015
2287.57	31.6096
2288.99	32.586
2290.41	31.2141
2291.83	30.5637
2293.25	28.9748
2294.67	27.8047
2296.09	27.0896
2297.51	26.9523
2298.93	27.8492
2300.35	28.9938
2301.76	28.8996
2303.18	27.707
2304.6	27.4566
2306.02	27.1653
2307.44	27.0485
2308.85	25.9844
2310.27	25.1189
2311.69	25.5632
2313.1	25.9888
2314.52	26.6171
2315.93	26.4928
2317.35	27.2285
2318.76	26.3813
2320.18	26.5368
2321.59	25.9441
2323.01	25.365
2324.42	24.4099
2325.83	24.0171
2327.25	23.4474
2328.66	24.1564
2330.07	23.7029
2331.49	23.5011
2332.9	23.1069
2334.31	23.7878
2335.72	24.4761
2337.13	23.5942
2338.55	23.6826
2339.96	22.9368
2341.37	22.7965
2342.78	22.7178
2344.19	22.9428
2345.6	23.3882
2347.01	23.3251
2348.42	22.6208
2349.83	21.9744
2351.24	21.7098
2352.65	21.1889
2354.05	21.1474
2355.46	19.8951
2356.87	18.8693
2358.28	17.9556
2359.69	17.9584
2361.09	17.012
2362.5	16.6909
2363.91	16.7795
2365.31	17.083
2366.72	17.9113
2368.13	18.1876
2369.53	18.1535
2370.94	16.9856
2372.34	16.3499
2373.75	16.2174
2375.15	16.2875
2376.56	15.9589
2377.96	15.9029
2379.37	16.5655
2380.77	16.5615
2382.17	15.9509
2383.58	15.6071
2384.98	15.1147
2386.38	14.6651
2387.79	14.3826
2389.19	13.1179
2390.59	13.0735
2391.99	12.9847
2393.39	13.4019
2394.8	13.3252
2396.2	14.1192
2397.6	14.6431
2399	15.7438
2400.4	14.9423
2401.8	15.3514
2403.2	15.1798
2404.6	15.3522
2406	15.1085
2407.4	14.7553
2408.79	15.7107
2410.19	15.8859
2411.59	16.5655
2412.99	16.5875
2414.39	17.3874
2415.78	18.9758
2417.18	18.9399
2418.58	18.4757
2419.98	18.4084
2421.37	17.3183
2422.77	17.5532
2424.16	16.9544
2425.56	16.7898
2426.96	16.7948
2428.35	15.3845
2429.74	16.2032
2431.14	16.2869
2432.53	16.3714
2433.93	15.6634
2435.32	15.5747
2436.72	15.4385
2438.11	14.5749
2439.5	14.5256
2440.9	13.527
2442.29	12.8148
2443.68	12.1373
2445.07	10.8905
2446.47	10.8804
2447.86	10.7669
2449.25	9.86354
2450.64	9.70229
2452.03	9.36796
2453.42	9.22253
2454.81	9.43221
2456.2	9.72983
2457.59	9.20804
2458.98	9.03352
2460.37	8.96706
2461.76	8.93258
2463.15	9.33926
2464.54	9.42526
2465.93	8.28094
2467.32	7.51775
2468.7	7.43346
2470.09	5.66164
2471.48	5.25436
2472.87	4.24668
2474.25	4.14101
2475.64	4.13941
2477.03	3.90579
2478.41	4.42837
2479.8	3.88569
2481.18	4.27689
2482.57	4.09355
2483.95	4.423
2485.34	3.99473
2486.72	3.25075
2488.11	2.59413
2489.49	2.56394
2490.88	2.92494
2492.26	3.57992
2493.65	3.80581
2495.03	4.94562
2496.41	4.32934
2497.79	4.08809
2499.18	6.06476
2500.56	5.66112
2501.94	5.44472
2503.32	4.55381
2504.7	4.7795
2506.09	4.69644
2507.47	4.77478
2508.85	4.0884
2510.23	3.47821
2511.61	3.98582
2512.99	5.33741
2514.37	5.78287
2515.75	6.40281
2517.13	6.7458
2518.51	6.91112
2519.89	6.66456
2521.26	5.88177
2522.64	5.93418
2524.02	6.88229
2525.4	6.60523
2526.78	7.04744
2528.15	7.0941
2529.53	6.80881
2530.91	6.25119
2532.28	5.86155
2533.66	5.35767
2535.04	4.8964
2536.41	5.90699
2537.79	5.64512
2539.16	4.51513
2540.54	4.31927
2541.91	3.79837
2543.29	4.43449
2544.66	4.13088
2546.04	4.92479
2547.41	5.09821
2548.78	5.19291
2550.16	5.69775
2551.53	5.99583
2552.9	6.61972
2554.27	7.6877
2555.65	7.84501
2557.02	8.22279
2558.39	7.64754
2559.76	7.70774
2561.13	8.41576
2562.51	8.31338
2563.88	7.76412
2565.25	7.34665
2566.62	6.85174
2567.99	6.76684
2569.36	6.49628
2570.73	5.89388
2572.1	5.44411
2573.47	5.47647
2574.84	4.84933
2576.2	4.08936
2577.57	3.23576
2578.94	4.69014
2580.31	4.82444
2581.68	4.6784
2583.05	4.54358
2584.41	4.56265
2585.78	4.21314
2587.15	3.41684
2588.51	3.62222
2589.88	3.84293
2591.24	4.88649
2592.61	5.64163
2593.98	5.49751
2595.34	5.79966
2596.71	5.21908
2598.07	5.65895
2599.44	5.36041
2600.8	5.37281
2602.16	5.31718
2603.53	5.12003
2604.89	5.2514
2606.26	4.86367
2607.62	4.79198
2608.98	4.75589
2610.34	5.35138
2611.71	5.79115
2613.07	5.29864
2614.43	5.81517
2615.79	6.13175
2617.15	6.22183
2618.52	5.88678
2619.88	5.90285
2621.24	5.93005
2622.6	5.50192
2623.96	4.60524
2625.32	4.14566
2626.68	2.84781
2628.04	3.15191
2629.4	2.68251
2630.75	1.49094
2632.11	1.21232
2633.47	0.69662
2634.83	-0.0981363
2636.19	0.0352652
2637.55	-0.525403
2638.9	-0.812595
2640.26	-1.30545
2641.62	-2.1403
2642.98	-2.18072
2644.33	-2.12036
2645.69	-1.86031
2647.04	-1.16167
2648.4	-1.52596
2649.76	-1.48717
2651.11	-1.30003
2652.47	-1.33668
2653.82	-1.98313
2655.18	-1.83491
2656.53	-0.767349
2657.88	-0.316075
2659.24	0.204236
2660.59	-0.293428
2661.95	-0.757252
2663.3	0.0506525
2664.65	0.647559
2666	1.41365
2667.36	0.627665
2668.71	1.09628
2670.06	1.42224
2671.41	2.13104
2672.76	3.43295
2674.12	3.21377
2675.47	3.71017
2676.82	3.80112
2678.17	4.72612
2679.52	4.11617
2680.87	4.43013
2682.22	5.28185
2683.57	5.73803
2684.92	5.36867
2686.27	5.80023
2687.62	5.95771
2688.97	6.80497
2690.31	6.05697
2691.66	6.18145
2693.01	5.92165
2694.36	5.69801
2695.71	5.57157
2697.05	5.35846
2698.4	5.62577
2699.75	5.39569
2701.09	5.4569
2702.44	5.40716
2703.78	4.8016
2705.13	3.84897
2706.48	4.09747
2707.82	4.10925
2709.17	4.60443
2710.51	5.68283
2711.86	6.64043
2713.2	6.27008
2714.54	6.60046
2715.89	7.10807
2717.23	6.60714
2718.57	7.5656
2719.92	7.7059
2721.26	7.30699
2722.6	8.00093
2723.95	8.66827
2725.29	8.24665
2726.63	8.47831
2727.97	8.75523
2729.31	9.74862
2730.65	10.4013
2732	10.1355
2733.34	9.19958
2734.68	9.10259
2736.02	9.55342
2737.36	9.22822
2738.7	10.07
2740.04	10.6849
2741.38	10.1258
2742.72	9.69519
2744.05	9.6013
2745.39	8.52212
2746.73	7.85359
2748.07	7.77021
2749.41	7.39821
2750.75	7.11976
2752.08	7.44549
2753.42	7.00587
2754.76	6.87006
2756.09	7.14033
2757.43	6.29135
2758.77	6.58846
2760.1	6.28834
2761.44	5.51717
2762.78	4.07242
2764.11	3.99918
2765.44	3.58539
2766.78	2.92687
2768.11	2.37129
2769.45	1.7247
2770.78	0.880756
2772.12	1.86373
2773.45	2.35938
2774.78	2.19264
2776.12	2.41244
2777.45	2.68409
2778.78	2.50687
2780.12	1.83598
2781.45	2.65417
2782.78	3.62782
2784.11	3.26887
2785.44	3.61027
2786.78	3.18574
2788.11	3.20348
2789.44	3.94476
2790.77	4.36625
2792.1	4.93551
2793.43	5.30228
2794.76	4.97533
2796.09	4.97212
2797.42	4.548
2798.75	5.58237
2800.08	6.06391
2801.4	7.05716
2802.73	8.13122
2804.06	8.94687
2805.39	9.40461
2806.72	9.33784
2808.05	8.35923
2809.37	7.89543
2810.7	8.42152
2812.03	8.22042
2813.35	9.02975
2814.68	9.26528
2816.01	10.5963
2817.33	11.4283
2818.66	12.148
2819.98	12.3874
2821.31	13.6665
2822.63	15.1517
2823.96	15.9344
2825.28	16.6006
2826.61	16.3487
2827.93	16.6904
2829.25	18.0178
2830.58	20.7464
2831.9	22.0549
2833.23	23.3344
2834.55	24.2554
2835.87	26.0299
2837.19	27.6953
2838.52	29.5592
2839.84	30.9966
2841.16	33.4454
2842.48	35.7386
2843.8	38.1699
2845.12	40.8681
2846.44	43.6456
2847.77	47.1871
2849.08	50.1084
2850.4	52.5916
2851.73	56.0215
2853.05	59.506
2854.36	63.6527
2855.68	68.385
2857	71.693
2858.32	76.0758
2859.64	78.9887
2860.96	83.0074
2862.28	86.5409
2863.59	90.5436
2864.91	94.3371
2866.23	98.0065
2867.55	101.033
2868.86	104.072
2870.18	106.713
2871.5	109.589
2872.81	111.772
2874.13	113.632
2875.44	116.31
2876.76	118.714
2878.07	121.682
2879.39	122.971
2880.7	125.096
2882.02	127.648
2883.33	129.187
2884.65	131.277
2885.96	133.22
2887.28	135.173
2888.59	137.282
2889.9	138.629
2891.21	140.338
2892.53	142.75
2893.84	146.495
2895.15	149.671
2896.46	152.597
2897.78	154.696
2899.09	156.913
2900.4	160.222
2901.71	165.054
2903.02	168.66
2904.33	172.912
2905.64	177.537
2906.95	182.111
2908.26	187.077
2909.57	192.795
2910.88	197.193
2912.19	201.789
2913.5	207.554
2914.81	212.2
2916.12	217.59
2917.43	223.44
2918.73	229.215
2920.04	233.625
2921.35	238.037
2922.66	241.731
2923.96	244.972
2925.27	247.36
2926.58	250.101
2927.88	251.935
2929.19	254.492
2930.5	255.425
2931.8	256.107
2933.11	255.575
2934.41	254.746
2935.72	254.11
2937.02	251.719
2938.33	248.834
2939.63	246.317
2940.94	243.769
2942.24	240.873
2943.54	237.523
2944.85	232.922
2946.15	229.037
2947.45	225.486
2948.76	220.911
2950.06	215.782
2951.36	211.225
2952.66	206.866
2953.97	202.937
2955.27	198.69
2956.57	194.397
2957.87	190.939
2959.17	187.006
2960.47	181.854
2961.77	176.843
2963.07	172.014
2964.37	168.48
2965.67	165.324
2966.97	161.405
2968.27	156.823
2969.57	153.634
2970.87	149.593
2972.17	146.573
2973.47	143.764
2974.77	139.74
2976.07	134.764
2977.36	131.802
2978.66	128.947
2979.96	126.003
2981.26	122.8
2982.55	119.058
2983.85	115.409
2985.15	110.367
2986.44	107.443
2987.74	103.173
2989.03	99.0277
2990.33	95.7345
2991.63	92.2039
2992.92	88.1477
2994.21	84.3784
2995.51	79.7557
2996.8	75.7532
2998.1	71.3503
2999.39	67.0122
3000.69	63.6484
3001.98	60.0797
3003.27	57.5597
3004.57	54.9844
3005.86	52.6561
3007.15	50.0925
3008.44	47.4096
3009.74	45.1562
3011.03	42.6849
3012.32	40.9141
3013.61	37.9664
3014.9	35.9157
3016.19	35.1828
3017.48	34.1801
3018.78	32.6311
3020.07	31.0025
3021.36	30.2549
3022.65	29.0613
3023.94	27.4184
3025.23	26.7762
3026.51	26.1731
3027.8	26.3708
3029.09	26.2836
3030.38	25.6099
3031.67	25.5904
3032.96	25.947
3034.24	26.6891
3035.53	26.6036
3036.82	27.2852
3038.11	26.8113
3039.39	27.0078
3040.68	27.5675
3041.97	29.0956
3043.25	29.7488
3044.54	30.9224
3045.83	30.7366
3047.11	31.4176
3048.4	32.6448
3049.68	32.7127
3050.97	33.257
3052.25	32.9229
3053.54	33.291
3054.82	32.7384
3056.11	32.8278
3057.39	32.0151
3058.67	31.8157
3059.96	31.582
3061.24	31.0949
3062.52	29.9346
3063.81	29.4566
3065.09	29.5823
3066.37	28.521
3067.65	27.8355
3068.94	27.4374
3070.22	27.2073
3071.5	25.8954
3072.78	25.2178
3074.06	24.5328
3075.34	23.5526
3076.62	21.7518
3077.9	20.9443
3079.18	20.6339
3080.46	19.9603
3081.74	19.3424
3083.02	18.1598
3084.3	17.5672
3085.58	17.456
3086.86	15.8748
3088.14	16.0309
3089.42	15.7513
3090.69	14.5869
3091.97	14.3307
3093.25	13.7934
3094.53	13.6958
3095.8	13.5514
3097.08	13.3192
3098.36	12.7996
3099.63	12.3992
3100.91	12.8195
3102.19	12.7875
3103.46	13.6082
3104.74	13.7399
3106.01	13.8876
3107.29	14.2359
3108.56	13.7088
3109.84	12.3855
3111.11	12.8355
3112.39	12.2097
3113.66	11.3289
3114.94	10.4348
3116.21	9.85865
3117.48	9.55366
3118.76	9.04148
3120.03	8.95916
3121.3	8.20763
3122.57	7.52028
3123.85	6.84206
3125.12	5.87772
3126.39	4.77767
3127.66	4.60268
3128.93	4.61644
3130.21	3.70395
3131.48	3.94336
3132.75	4.50525
3134.02	3.68181
3135.29	2.5292
3136.56	2.58248
3137.83	1.96632
3139.1	1.63356
3140.37	1.29433
3141.64	1.90031
3142.91	1.74595
3144.17	1.72525
3145.44	1.64197
3146.71	1.87491
3147.98	2.01975
3149.25	2.08635
