#Acq. time (s)=	45
#Accumulations=	2
#Range (cm-¹)=	200...3150
#Windows=	2
#Auto scanning=	Off
#Autofocus=	Off
#Macrospot=	Off
#AutoExposure=	Off
#Spike filter=	Multiple accum.
#Delay time (s)=	0
#Binning=	1
#Readout mode=	Signal
#DeNoise=	Off
#ICS correction=	On
#Dark correction=	Off
#Inst. Process=	Off
#Detector Gain=	Best Dynamic Range
#Detector ADC=	20 kHz       
#Detector temperature (°C)=	-69.85
#Instrument=	LabRAM HR Evol
#Detector=	Synapse
#Objective=	x100
#Grating=	600 gr/mm
#ND Filter=	100%
#Laser (nm)=	532 
#Hole=	100.021
#Range=	Auto
#Laser Pol.=	No
#Raman. Pol.=	No
#Laser Pol. (°)=	-0.0007625
#Raman Pol. (°)=	89.9995
#Collection=	Microscope
#StageXY=	Marzhauser
#StageZ=	Marzhauser
#X (µm)=	2183.2
#Y (µm)=	1230.6
#Z (µm)=	442.2
#Full time(mm:ss)=	3:18
#Project=	
#Sample=	
#Site=	
#Title=	Thy_10_08_33_2x_45s_532 nm_x100_100%_600 gr_mm
#Remark=	
#Date=	05.07.2022 16:37
#Acquired=	05.07.2022 16:37:18
#Base:Fit=	10.08.2022 09:46:25
#Base:Sub=	10.08.2022 09:46:49
#Filter:Polynom=	16.08.2022 10:24:56
#AxisType[0]=Intens
#AxisUnit[0]=Cnt
#AxisType[1]=Spectr
#AxisUnit[1]=1/cm
200.43	5.34133
202.244	9.47379
204.059	12.3479
205.873	13.9565
207.688	15.4583
209.501	16.4522
211.314	16.8971
213.127	17.0746
214.941	18.1011
216.753	18.7034
218.564	18.9785
220.375	19.3994
222.186	20.3966
223.999	20.5803
225.809	20.7298
227.618	21.0843
229.428	21.7383
231.236	22.0844
233.045	21.9602
234.855	23.0581
236.663	24.0725
238.471	24.2855
240.278	24.5696
242.085	24.9752
243.891	25.4955
245.698	25.8568
247.503	25.7323
249.309	25.2105
251.116	24.4192
252.921	24.8505
254.725	24.6815
256.529	24.8535
258.333	25.7895
260.136	27.3545
261.939	28.3144
263.742	29.2352
265.544	30.1994
267.346	30.2257
269.148	30.5972
270.949	31.1222
272.75	31.0113
274.55	31.8433
276.351	32.6268
278.15	32.2011
279.95	32.5962
281.749	32.7628
283.548	33.2469
285.346	33.5053
287.144	33.8161
288.942	33.6675
290.739	33.4252
292.536	33.7725
294.333	33.5076
296.129	34.1922
297.925	33.5493
299.721	32.7918
301.514	33.2333
303.309	33.717
305.104	34.2263
306.898	34.12
308.692	33.3419
310.486	32.9281
312.279	33.4406
314.072	32.458
315.862	31.8007
317.654	31.9441
319.446	31.7112
321.238	31.7962
323.029	32.0003
324.819	31.7893
326.608	31.3864
328.398	30.7835
330.188	30.7354
331.977	31.0763
333.766	30.7722
335.553	30.4332
337.341	29.9852
339.129	29.7388
340.917	29.11
342.704	27.8667
344.489	27.3613
346.275	27.2094
348.062	27.5299
349.845	27.4769
351.631	26.2791
353.416	25.9741
355.201	25.1627
356.984	23.8235
358.768	23.4156
360.552	23.3321
362.333	23.3281
364.116	23.5973
365.899	22.9383
367.68	23.0607
369.462	23.2356
371.243	23.471
373.023	22.7801
374.804	22.418
376.585	22.9055
378.363	22.7874
380.143	22.9585
381.923	23.3038
383.7	23.0327
385.479	23.9548
387.256	23.4626
389.034	23.3048
390.812	23.3646
392.588	23.2896
394.365	23.1735
396.14	23.5341
397.916	23.369
399.691	24.0473
401.467	24.5137
403.24	23.3421
405.015	23.5559
406.788	23.8795
408.563	23.3911
410.335	23.4614
412.109	22.9373
413.88	21.584
415.654	22.0292
417.424	22.1682
419.197	21.8991
420.967	21.5074
422.739	19.9859
424.508	19.6244
426.279	19.0343
428.048	18.7253
429.819	17.1936
431.587	16.9894
433.356	16.9915
435.124	16.1552
436.891	15.6086
438.66	15.1919
440.426	14.4803
442.194	14.0849
443.96	12.8782
445.725	12.2282
447.492	12.1838
449.257	11.6199
451.021	11.6646
452.787	12.0276
454.551	12.0034
456.314	13.1318
458.079	13.2429
459.842	12.9873
461.604	12.968
463.368	14.0018
465.13	14.4334
466.891	15.1665
468.654	15.2915
470.415	15.8682
472.175	16.8349
473.935	17.9933
475.696	18.3602
477.456	19.0141
479.215	19.7041
480.973	20.8068
482.733	21.5876
484.491	22.4641
486.249	22.561
488.006	22.7977
489.765	23.146
491.522	23.3084
493.278	24.3484
495.034	24.1637
496.789	24.9177
498.544	25.3202
500.301	25.7387
502.056	25.219
503.81	25.9837
505.564	26.0863
507.317	25.7015
509.071	25.5404
510.825	25.6692
512.578	26.1872
514.33	25.6676
516.082	25.4685
517.833	24.904
519.585	25.2174
521.335	24.4074
523.086	24.4473
524.836	24.6603
526.586	24.4442
528.335	22.6424
530.085	21.3865
531.835	21.0604
533.584	21.3153
535.332	21.1824
537.08	20.8025
538.827	21.255
540.574	21.1537
542.321	20.9411
544.068	20.1705
545.814	19.5508
547.56	18.7376
549.305	18.8628
551.05	19.1644
552.795	18.5514
554.54	18.8366
556.282	18.4442
558.025	18.4378
559.769	19.3238
561.512	19.3457
563.255	19.1175
564.997	18.3402
566.739	17.5842
568.481	16.8844
570.223	15.9815
571.964	15.2363
573.705	14.9466
575.443	14.6531
577.183	13.7947
578.923	12.8148
580.663	11.4087
582.402	10.7092
584.141	10.9861
585.879	10.9025
587.615	10.8624
589.353	10.0438
591.09	10.1132
592.828	9.83627
594.564	9.53275
596.299	8.86787
598.035	8.72203
599.771	8.28967
601.506	8.04794
603.242	7.99056
604.974	7.98056
606.709	8.0105
608.443	8.245
610.177	8.62196
611.908	9.01005
613.642	9.01187
615.374	9.13732
617.105	10.1071
618.837	10.7676
620.569	11.3306
622.3	11.3062
624.03	11.314
625.761	12.3786
627.491	12.4805
629.219	13.4832
630.949	13.1342
632.677	14.7281
634.406	15.2744
636.135	16.3167
637.861	16.634
639.59	16.9534
641.318	17.8113
643.043	17.8784
644.77	18.3927
646.495	19.2483
648.222	19.5158
649.948	19.4019
651.672	19.4377
653.398	19.1283
655.121	18.3829
656.846	18.6048
658.569	18.9946
660.293	19.9982
662.015	20.1654
663.738	21.2695
665.46	21.6474
667.183	22.4906
668.903	24.6782
670.626	25.4834
672.346	26.0372
674.067	25.4724
675.787	25.3398
677.508	25.4054
679.226	26.2827
680.947	26.838
682.665	27.3995
684.385	27.7484
686.102	28.6414
687.821	29.447
689.538	29.7105
691.254	31.0547
692.972	32.3754
694.688	32.9628
696.406	33.3619
698.121	33.9231
699.835	33.6679
701.552	33.5523
703.266	33.9962
704.98	34.5283
706.695	35.8873
708.409	36.1057
710.121	37.4283
711.836	38.7686
713.548	39.3809
715.26	40.5136
716.973	41.3293
718.685	42.5208
720.396	42.1833
722.108	43.1631
723.818	44.1676
725.528	45.0159
727.238	46.207
728.949	46.3722
730.658	47.4041
732.367	48.8037
734.075	49.5675
735.785	50.2617
737.493	50.3329
739.2	51.1014
740.907	51.9622
742.614	53.5261
744.322	54.8368
746.028	56.4737
747.734	58.0005
749.439	59.4652
751.144	60.1087
752.849	61.6416
754.555	63.3758
756.26	63.3597
757.963	63.7295
759.667	63.8938
761.37	65.1806
763.073	65.4127
764.775	66.2912
766.477	66.9656
768.179	66.8848
769.883	67.9532
771.584	69.2198
773.285	70.2803
774.986	70.2304
776.686	71.3788
778.386	71.678
780.085	71.4773
781.785	72.2964
783.484	73.0805
785.182	73.282
786.881	74.3891
788.579	75.7942
790.276	77.1047
791.974	78.3908
793.671	79.3036
795.367	81.0355
797.064	81.4511
798.76	81.6971
800.456	82.0554
802.151	83.336
803.846	82.4946
805.541	82.3325
807.234	82.7761
808.928	83.2037
810.622	83.5046
812.315	83.62
814.008	83.1729
815.701	84.6635
817.394	85.7557
819.086	85.6181
820.778	85.3094
822.468	84.7092
824.159	85.264
825.85	85.2614
827.541	85.3826
829.231	85.7492
830.921	85.5478
832.609	85.1928
834.298	84.4449
835.987	83.895
837.676	83.0827
839.364	82.2913
841.051	79.8205
842.738	78.8791
844.426	77.122
846.113	75.8707
847.798	74.1276
849.484	73.2217
851.171	72.2547
852.857	70.7857
854.54	70.4276
856.226	68.7735
857.911	67.5087
859.593	66.4936
861.278	65.9121
862.961	64.5845
864.645	63.4818
866.327	63.0678
868.01	62.7164
869.692	61.5417
871.373	60.8021
873.055	60.0262
874.735	59.9221
876.416	59.3504
878.097	58.9532
879.776	58.2672
881.457	57.0837
883.135	56.7752
884.815	56.2445
886.495	55.7317
888.172	54.2967
889.851	54.4119
891.528	54.7539
893.206	54.6753
894.882	54.5472
896.56	54.0099
898.237	53.8809
899.912	53.1795
901.589	52.5996
903.263	51.8319
904.94	51.7302
906.614	50.9728
908.289	50.6401
909.962	50.2022
911.635	49.2763
913.31	49.1642
914.982	48.8813
916.656	48.8587
918.328	49.1372
920.001	48.4959
921.672	47.7298
923.345	47.2918
925.015	46.6402
926.685	46.2996
928.357	45.6509
930.026	46.0642
931.698	45.2511
933.366	44.1206
935.035	43.7311
936.705	43.0882
938.373	42.5057
940.041	42.1199
941.71	41.735
943.377	40.547
945.044	38.6181
946.712	38.0359
948.378	37.9678
950.044	38.1695
951.709	37.4007
953.376	36.3287
955.041	35.4094
956.706	35.5939
958.372	35.0391
960.036	33.6454
961.699	33.3783
963.362	33.1288
965.027	33.5221
966.69	34.2866
968.352	33.9578
970.014	34.3522
971.676	33.7392
973.339	34.1369
975	34.8275
976.661	34.8313
978.322	35.3116
979.982	34.8884
981.642	35.0065
983.303	35.3687
984.962	36.4713
986.621	35.7795
988.28	35.1644
989.938	34.282
991.596	34.3359
993.254	34.5369
994.911	34.7555
996.57	35.4285
998.227	35.9158
999.884	36.2354
1001.54	36.4776
1003.2	35.8671
1004.85	35.6856
1006.51	35.6387
1008.16	34.6217
1009.82	34.0771
1011.47	32.9649
1013.12	32.0742
1014.78	30.9538
1016.43	31.129
1018.08	31.1212
1019.74	29.6412
1021.39	28.8226
1023.04	27.4999
1024.69	25.9179
1026.34	24.8449
1028	24.4232
1029.65	23.6689
1031.3	23.5029
1032.95	21.9458
1034.6	20.8086
1036.25	19.923
1037.9	18.1966
1039.54	17.6509
1041.19	16.201
1042.84	17.0243
1044.49	18.0705
1046.14	18.4926
1047.78	19.3597
1049.43	18.7642
1051.08	18.7413
1052.72	19.0109
1054.37	18.6208
1056.02	20.0052
1057.66	20.4086
1059.31	18.7106
1060.95	18.8328
1062.6	18.9223
1064.24	19.2263
1065.88	19.3001
1067.53	19.1579
1069.17	18.6682
1070.81	18.5647
1072.45	19.3196
1074.1	19.7374
1075.74	20.9644
1077.38	21.0513
1079.02	21.7289
1080.66	21.4783
1082.3	21.5253
1083.94	21.8001
1085.58	20.8582
1087.22	20.9449
1088.86	21.5807
1090.5	20.9705
1092.14	21.2876
1093.78	21.8202
1095.42	22.5201
1097.05	23.1805
1098.69	23.9986
1100.33	23.7108
1101.96	22.8452
1103.6	23.34
1105.24	22.8121
1106.87	22.1722
1108.51	22.5493
1110.14	21.5777
1111.78	20.2364
1113.41	20.0898
1115.05	18.4095
1116.68	18.2381
1118.31	17.2949
1119.95	16.1116
1121.58	16.0265
1123.21	16.3842
1124.85	17.1306
1126.48	16.2831
1128.11	15.682
1129.74	16.0543
1131.37	15.4132
1133	15.5966
1134.63	15.1166
1136.26	14.6793
1137.89	14.4501
1139.52	13.3525
1141.15	12.6135
1142.78	13.3202
1144.41	13.1249
1146.04	12.6045
1147.66	12.7288
1149.29	12.4741
1150.92	12.1398
1152.55	12.346
1154.17	12.0157
1155.8	11.7411
1157.43	11.3894
1159.05	10.7535
1160.68	10.7473
1162.3	10.2293
1163.93	10.3649
1165.55	10.42
1167.17	9.62146
1168.8	10.5213
1170.42	10.9858
1172.05	10.9083
1173.67	12.4059
1175.29	13.46
1176.91	13.5503
1178.54	14.6892
1180.16	14.8655
1181.78	14.2768
1183.4	14.212
1185.02	14.3061
1186.64	13.9037
1188.26	14.6232
1189.88	14.7145
1191.5	14.4697
1193.12	14.9659
1194.74	15.9693
1196.36	16.5641
1197.97	17.5187
1199.59	18.8456
1201.21	19.9631
1202.83	20.9029
1204.44	22.4263
1206.06	23.7014
1207.68	24.3896
1209.29	25.5408
1210.91	26.3563
1212.52	26.9032
1214.14	27.5653
1215.75	28.9041
1217.37	29.58
1218.98	30.3214
1220.59	31.1031
1222.21	32.3458
1223.82	32.7873
1225.43	33.8713
1227.05	34.9489
1228.66	35.7137
1230.27	36.3174
1231.88	36.6333
1233.49	38.1192
1235.1	38.6676
1236.72	39.5612
1238.33	40.0916
1239.94	41.0086
1241.55	40.7462
1243.16	41.3729
1244.76	41.9855
1246.37	43.1781
1247.98	43.7801
1249.59	44.5186
1251.2	45.9777
1252.8	46.4684
1254.41	47.0358
1256.02	46.8926
1257.62	46.7604
1259.23	46.916
1260.84	46.7272
1262.44	47.2814
1264.05	47.8879
1265.66	47.478
1267.26	48.6296
1268.86	49.4681
1270.47	48.7376
1272.07	49.8816
1273.67	50.7277
1275.28	50.3814
1276.88	51.4306
1278.48	51.3821
1280.09	52.415
1281.69	52.2007
1283.29	52.4305
1284.89	53.523
1286.49	54.5423
1288.09	54.8555
1289.69	55.4995
1291.29	55.5757
1292.89	57.0691
1294.49	56.7976
1296.09	57.4134
1297.69	57.6274
1299.29	57.4451
1300.89	57.9287
1302.49	58.2442
1304.08	59.3802
1305.68	60.2831
1307.28	61.389
1308.88	61.7751
1310.47	62.9871
1312.07	64.3969
1313.66	65.9675
1315.26	66.5292
1316.85	66.3601
1318.45	66.8931
1320.04	66.8861
1321.64	66.8376
1323.23	66.6881
1324.83	66.885
1326.42	67.0822
1328.01	66.9105
1329.61	66.4976
1331.2	66.1975
1332.79	65.2135
1334.38	64.659
1335.97	63.2808
1337.56	62.4828
1339.16	62.6501
1340.75	62.066
1342.34	61.61
1343.93	60.6591
1345.52	59.7845
1347.11	59.4939
1348.7	57.2486
1350.29	55.7323
1351.87	54.6247
1353.46	53.7701
1355.05	51.5721
1356.64	50.7648
1358.22	49.2645
1359.81	48.6802
1361.4	47.6533
1362.98	46.8103
1364.57	45.6867
1366.16	44.1031
1367.74	43.1157
1369.33	41.7303
1370.91	40.4448
1372.5	39.9033
1374.08	38.8499
1375.67	38.3433
1377.25	37.75
1378.83	37.2232
1380.41	36.4099
1382	36.6108
1383.58	37.0704
1385.16	36.3194
1386.74	36.4698
1388.33	36.8364
1389.91	36.8405
1391.49	36.0634
1393.07	35.3507
1394.65	35.1804
1396.23	33.9149
1397.81	33.5438
1399.39	32.8727
1400.97	32.7188
1402.55	32.0354
1404.13	32.9993
1405.7	33.1973
1407.28	33.7801
1408.86	34.5759
1410.44	35.2374
1412.01	35.4869
1413.59	36.3738
1415.17	37.3971
1416.74	39.3126
1418.32	41.5603
1419.89	43.3832
1421.47	44.9567
1423.04	46.1609
1424.62	49.1383
1426.19	50.6682
1427.77	52.1641
1429.34	54.167
1430.91	56.7532
1432.49	59.4363
1434.06	60.6003
1435.63	62.6407
1437.2	64.4282
1438.78	66.1599
1440.35	68.2317
1441.92	69.0021
1443.49	69.3842
1445.06	71.2606
1446.63	72.8457
1448.2	72.9826
1449.77	73.5013
1451.34	73.4447
1452.91	73.4064
1454.48	72.5186
1456.05	71.6179
1457.62	70.9954
1459.18	69.6664
1460.75	68.518
1462.32	67.1883
1463.89	64.9711
1465.45	63.1572
1467.02	61.3567
1468.59	58.3999
1470.15	55.3146
1471.72	52.9657
1473.28	49.9882
1474.85	46.2908
1476.41	43.8476
1477.98	41.2072
1479.54	38.443
1481.1	36.4102
1482.67	34.3785
1484.23	32.1412
1485.79	29.8178
1487.36	27.2837
1488.92	24.1237
1490.48	22.6408
1492.04	22.1602
1493.61	21.359
1495.17	20.1379
1496.73	19.7335
1498.29	19.1744
1499.85	18.3529
1501.41	17.5854
1502.97	18.1151
1504.53	17.4468
1506.09	17.1967
1507.65	16.826
1509.2	17.0015
1510.76	16.4331
1512.32	16.2144
1513.88	16.2277
1515.43	16.6118
1516.99	16.7517
1518.55	16.6336
1520.1	16.5918
1521.66	17.7683
1523.22	19.5513
1524.77	19.4206
1526.33	19.5577
1527.88	20.5406
1529.44	20.8673
1530.99	21.6493
1532.54	22.3989
1534.1	22.7772
1535.65	23.7367
1537.21	24.0392
1538.76	24.5953
1540.31	26.4472
1541.86	26.1204
1543.42	26.899
1544.97	27.4004
1546.52	28.4574
1548.07	29.1551
1549.62	30.5309
1551.17	30.9975
1552.72	32.4402
1554.27	34.0016
1555.82	34.9134
1557.37	35.5891
1558.92	36.6296
1560.47	36.554
1562.02	37.0586
1563.56	37.4913
1565.11	38.1325
1566.66	40.4871
1568.21	42.0199
1569.75	42.9167
1571.3	43.6772
1572.85	44.4512
1574.39	46.024
1575.94	46.8879
1577.49	47.3048
1579.03	47.8465
1580.57	49.1425
1582.12	50.112
1583.66	50.802
1585.21	50.553
1586.75	50.9636
1588.3	51.4602
1589.84	52.1395
1591.38	52.3341
1592.92	52.7294
1594.47	52.5042
1596.01	52.181
1597.55	52.0419
1599.09	51.9232
1600.63	51.8753
1602.17	51.0646
1603.71	50.5594
1605.25	50.5307
1606.79	50.0617
1608.33	49.7455
1609.87	49.8853
1611.41	49.6657
1612.95	49.9627
1614.49	49.4813
1616.03	49.2612
1617.57	49.33
1619.1	49.1417
1620.64	49.689
1622.18	50.1585
1623.72	50.4102
1625.25	49.9976
1626.79	50.0643
1628.32	50.0295
1629.86	50.8067
1631.39	50.8702
1632.93	50.9863
1634.46	51.3367
1636	51.7408
1637.53	52.503
1639.07	53.9638
1640.6	55.8105
1642.13	56.9367
1643.67	57.8041
1645.2	56.7746
1646.73	57.3179
1648.26	57.6698
1649.8	58.1496
1651.33	59.1641
1652.86	59.0152
1654.39	59.4134
1655.92	60.0886
1657.45	60.169
1658.98	60.1146
1660.51	58.767
1662.04	57.6087
1663.57	57.9626
1665.1	57.4926
1666.63	56.5037
1668.16	54.8974
1669.68	53.2967
1671.21	51.4771
1672.74	49.9234
1674.27	48.6252
1675.79	47.4603
1677.32	46.24
1678.85	44.2126
1680.37	42.9202
1681.9	41.8986
1683.42	40.3088
1684.95	38.5643
1686.47	36.4217
1688	34.0041
1689.52	31.6654
1691.05	28.9468
1692.57	28.1182
1694.09	26.1935
1695.62	23.9305
1697.14	22.4049
1698.66	20.5064
1700.18	18.6629
1701.71	17.4731
1703.23	15.9663
1704.75	14.5109
1706.27	13.1996
1707.79	12.0832
1709.31	11.508
1710.83	11.3503
1712.35	11.4533
1713.87	10.9125
1715.39	10.3946
1716.91	9.51464
1718.43	8.08735
1719.95	6.85069
1721.47	6.66968
1722.99	6.41431
1724.5	6.3006
1726.02	5.59916
1727.54	5.70782
1729.06	5.18066
1730.57	5.08988
1732.09	4.5985
1733.61	4.33719
1735.12	4.12188
1736.64	3.66538
1738.15	3.91452
1739.67	3.57057
1741.18	2.92864
1742.7	2.87315
1744.21	2.45002
1745.72	2.10033
1747.24	1.99037
1748.75	2.38248
1750.26	2.50783
1751.77	1.98934
1753.29	1.82032
1754.8	1.29663
1756.31	1.10335
1757.82	0.920572
1759.33	0.314904
1760.84	-0.0206299
1762.36	-0.806207
1763.87	-0.663328
1765.38	-0.942479
1766.89	-0.670941
1768.4	-0.21286
1769.91	-1.1336
1771.41	-1.10536
1772.92	-0.638006
1774.43	-0.735502
1775.94	-0.659764
1777.45	-0.558001
1778.95	-0.623193
1780.46	-0.0721627
1781.97	0.0826178
1783.48	0.68986
1784.98	0.971789
1786.49	1.68169
1787.99	1.55019
1789.5	1.408
1791.01	1.63919
1792.51	1.42836
1794.01	1.14733
1795.52	1.06688
1797.02	1.52934
1798.53	0.761377
1800.03	0.98253
1801.53	0.870516
1803.04	1.47207
1804.54	1.23052
1806.04	1.01285
1807.54	1.20797
1809.05	1.58078
1810.55	1.33344
1812.05	1.47157
1813.55	1.65827
1815.05	1.93553
1816.55	2.08116
1818.05	2.69931
1819.55	2.70713
1821.05	3.25712
1822.55	3.44685
1824.05	3.61991
1825.55	3.73485
1827.05	3.26087
1828.55	3.5097
1830.04	4.0026
1831.54	4.64255
1833.04	4.84203
1834.54	4.79731
1836.03	5.25272
1837.53	5.39797
1839.03	5.9583
1840.52	6.8317
1842.02	7.67253
1843.51	8.06002
1845.01	8.26743
1846.5	8.45338
1848	9.2687
1849.49	9.52845
1850.99	9.59151
1852.48	9.93014
1853.97	9.97281
1855.47	10.4876
1856.96	10.4228
1858.45	11.2857
1859.94	11.0297
1861.44	11.8031
1862.93	11.2469
1864.42	11.0531
1865.91	11.1498
1867.4	11.3147
1868.89	11.2938
1870.38	11.6571
1871.87	11.4171
1873.36	11.3743
1874.85	11.4224
1876.34	11.5216
1877.83	11.823
1879.32	12.1103
1880.81	11.7478
1882.3	11.8368
1882.57	11.5689
1884.07	12.1356
1885.56	12.0977
1887.06	12.2958
1888.55	12.8031
1890.04	12.4711
1891.54	12.69
1893.03	12.2142
1894.52	11.7225
1896.02	11.5863
1897.51	11.6575
1899	11.5311
1900.49	11.0887
1901.98	11.2486
1903.47	11.3927
1904.96	10.9605
1906.45	11.5839
1907.94	11.8312
1909.43	11.8
1910.92	11.6859
1912.41	11.998
1913.9	12.2885
1915.39	12.0095
1916.88	12.2887
1918.37	11.9798
1919.85	11.4556
1921.34	11.2131
1922.83	11.0698
1924.32	11.0824
1925.8	10.8137
1927.29	10.7582
1928.78	11.3642
1930.26	10.7553
1931.75	10.3665
1933.23	10.0062
1934.72	10.7543
1936.2	10.1533
1937.69	10.3119
1939.17	10.7218
1940.66	10.4675
1942.14	10.3316
1943.63	10.8866
1945.11	11.174
1946.59	11.5764
1948.07	11.5368
1949.56	11.6737
1951.04	12.2548
1952.52	11.9883
1954	11.612
1955.48	12.1265
1956.96	12.5172
1958.45	12.8787
1959.93	12.1993
1961.41	12.3316
1962.89	11.6449
1964.37	10.5813
1965.85	10.8626
1967.32	10.8631
1968.8	11.1644
1970.28	11.1697
1971.76	10.8837
1973.24	10.9405
1974.72	11.2867
1976.19	11.4801
1977.67	12.0841
1979.15	12.6066
1980.63	13.3088
1982.1	12.9916
1983.58	12.8909
1985.05	13.2106
1986.53	12.7431
1988	12.9848
1989.48	13.0775
1990.95	12.4849
1992.43	11.6548
1993.9	11.4071
1995.38	11.5843
1996.85	12.0229
1998.32	11.7528
1999.8	11.5241
2001.27	12.078
2002.74	11.7702
2004.22	11.5333
2005.69	11.6472
2007.16	11.4038
2008.63	11.0846
2010.1	10.3371
2011.57	10.2967
2013.04	10.2429
2014.51	10.225
2015.98	10.2063
2017.45	9.92315
2018.92	9.22208
2020.39	8.66652
2021.86	8.84982
2023.33	8.88316
2024.8	9.2216
2026.27	8.16569
2027.74	8.25387
2029.2	7.9695
2030.67	7.98865
2032.14	7.25049
2033.61	6.94864
2035.07	7.25524
2036.54	6.86625
2038.01	6.73662
2039.47	7.92235
2040.94	7.86069
2042.4	7.81875
2043.87	8.03057
2045.33	9.08193
2046.8	9.87975
2048.26	10.2471
2049.72	10.7007
2051.19	10.6445
2052.65	10.7752
2054.12	10.8901
2055.58	10.7267
2057.04	10.7703
2058.5	10.7667
2059.97	10.8682
2061.43	11.5271
2062.89	11.3707
2064.35	11.1524
2065.81	11.7022
2067.27	11.6076
2068.73	11.5373
2070.19	11.4749
2071.65	11.4878
2073.11	11.6886
2074.57	11.5467
2076.03	10.8919
2077.49	11.2836
2078.95	10.6317
2080.41	10.539
2081.87	10.2061
2083.32	10.1779
2084.78	10.5127
2086.24	10.8886
2087.7	10.6848
2089.15	10.6504
2090.61	10.7816
2092.07	11.1123
2093.52	11.8878
2094.98	12.0871
2096.43	12.2356
2097.89	12.1025
2099.34	11.9797
2100.8	12.7871
2102.25	12.6293
2103.71	12.798
2105.16	13.0415
2106.61	12.9865
2108.07	13.197
2109.52	12.9526
2110.97	13.3211
2112.43	13.4747
2113.88	13.1303
2115.33	13.8804
2116.78	14.4792
2118.23	14.857
2119.68	14.9344
2121.13	14.759
2122.59	15.183
2124.04	15.2037
2125.49	16.1217
2126.94	16.6237
2128.39	17.4134
2129.83	18.0135
2131.28	18.8886
2132.73	19.266
2134.18	19.5154
2135.63	20.2594
2137.08	20.6359
2138.53	21.2637
2139.97	21.4908
2141.42	22.4406
2142.87	23.0789
2144.31	23.3653
2145.76	23.4996
2147.21	24.0577
2148.65	24.2827
2150.1	25.2992
2151.54	26.1293
2152.99	26.729
2154.43	26.7629
2155.88	27.6054
2157.32	27.9514
2158.77	28.1109
2160.21	28.1315
2161.65	29.2232
2163.1	29.5889
2164.54	29.8535
2165.98	29.6967
2167.43	28.9855
2168.87	29.2786
2170.31	29.4831
2171.75	29.8232
2173.19	29.598
2174.64	29.5628
2176.07	29.7166
2177.52	29.7966
2178.96	28.9501
2180.4	28.6464
2181.84	27.9248
2183.28	27.3553
2184.72	27.209
2186.15	27.575
2187.59	27.4354
2189.03	26.827
2190.47	26.6707
2191.91	26.4703
2193.35	25.9882
2194.78	25.1893
2196.22	25.0276
2197.66	25.1013
2199.09	25.0893
2200.53	24.1687
2201.97	23.1716
2203.4	23.3172
2204.84	22.8708
2206.27	22.8525
2207.71	22.8411
2209.14	22.1367
2210.58	22.0439
2212.01	21.1588
2213.45	21.1416
2214.88	20.978
2216.31	20.8076
2217.75	20.908
2219.18	20.904
2220.61	20.2568
2222.05	20.8045
2223.48	20.5343
2224.91	19.7819
2226.34	19.2616
2227.78	19.1624
2229.21	19.2374
2230.64	19.2125
2232.07	18.6399
2233.5	18.0833
2234.93	16.8614
2236.36	16.5283
2237.79	15.8197
2239.22	16.0286
2240.65	15.9971
2242.08	15.9179
2243.5	15.6518
2244.93	15.523
2246.36	15.362
2247.79	15.4244
2249.22	14.9617
2250.64	13.7337
2252.07	12.9199
2253.5	12.6552
2254.92	12.5537
2256.35	12.4046
2257.78	11.6665
2259.2	10.5581
2260.63	10.922
2262.05	10.3302
2263.48	9.89229
2264.9	9.03831
2266.33	7.94377
2267.75	7.91188
2269.18	7.43717
2270.6	6.82713
2272.02	6.21367
2273.45	6.63048
2274.87	6.61669
2276.29	6.41481
2277.71	5.71258
2279.14	5.58918
2280.56	5.38163
2281.98	5.65364
2283.4	5.6702
2284.82	6.12049
2286.24	6.37797
2287.66	6.11624
2289.08	5.22791
2290.5	4.8233
2291.92	4.5396
2293.34	4.7413
2294.76	4.31487
2296.18	4.55376
2297.6	5.00734
2299.02	5.51157
2300.44	5.85617
2301.86	5.74874
2303.27	6.03143
2304.69	6.47638
2306.11	7.36846
2307.53	8.1287
2308.94	8.11531
2310.36	8.78289
2311.78	9.10879
2313.19	9.96533
2314.61	10.406
2316.02	10.6263
2317.44	10.5705
2318.85	10.7246
2320.27	10.3238
2321.68	9.93476
2323.1	9.67835
2324.51	9.89065
2325.92	9.4597
2327.34	9.47887
2328.75	8.81217
2330.16	8.91387
2331.58	9.14629
2332.99	8.126
2334.4	7.84321
2335.81	6.89443
2337.23	6.72706
2338.64	6.48789
2340.05	5.922
2341.46	5.70827
2342.87	5.77273
2344.28	4.87656
2345.69	4.80475
2347.1	4.4501
2348.51	3.49356
2349.92	3.46528
2351.33	2.9222
2352.74	2.37069
2354.15	2.09675
2355.55	1.63984
2356.96	1.11416
2358.37	0.481469
2359.78	0.277825
2361.19	0.73696
2362.59	0.937931
2364	1.21355
2365.41	1.08635
2366.81	1.99129
2368.22	2.23705
2369.62	2.33314
2371.03	2.73945
2372.44	3.07506
2373.84	3.30011
2375.24	3.58196
2376.65	3.95395
2378.05	3.28564
2379.46	3.38143
2380.86	3.85686
2382.26	3.6381
2383.67	3.4762
2385.07	2.99389
2386.47	2.73659
2387.88	2.64465
2389.28	2.2587
2390.68	2.60185
2392.08	2.48948
2393.48	2.29826
2394.89	2.09223
2396.29	2.07418
2397.69	2.63883
2399.09	2.23374
2400.49	2.37601
2401.89	2.5727
2403.29	2.6876
2404.69	2.53448
2406.09	2.60254
2407.48	3.10655
2408.88	2.81593
2410.28	3.2016
2411.68	3.28626
2413.08	3.05641
2414.48	2.64185
2415.87	3.50042
2417.27	2.32799
2418.67	2.51
2420.06	2.30931
2421.46	2.17532
2422.86	2.29197
2424.25	2.24642
2425.65	2.20439
2427.04	2.00671
2428.44	1.95722
2429.83	1.98493
2431.23	1.60985
2432.62	0.992816
2434.02	0.872337
2435.41	0.862801
2436.81	1.24583
2438.2	1.32652
2439.59	1.24622
2440.99	1.17573
2442.38	1.21982
2443.77	0.941924
2445.16	0.666368
2446.56	-0.355047
2447.95	-1.1963
2449.34	-1.161
2450.73	-0.936965
2452.12	-1.16668
2453.51	-1.35181
2454.9	-1.42301
2456.29	-1.03364
2457.68	-1.1271
2459.07	-0.799273
2460.46	-0.961605
2461.85	-1.33138
2463.24	-1.81804
2464.63	-1.80789
2466.02	-1.08398
2467.4	-0.324124
2468.79	-0.725396
2470.18	-0.623289
2471.57	0.0861325
2472.95	0.0324276
2474.34	0.0161043
2475.73	-0.270476
2477.12	-0.30878
2478.5	-0.112533
2479.89	-0.0490942
2481.27	-0.532725
2482.66	-0.299673
2484.04	-0.456216
2485.43	-0.200442
2486.81	-0.506106
2488.2	0.0385133
2489.58	-0.0803805
2490.97	0.406552
2492.35	0.639909
2493.73	0.473544
2495.12	0.537072
2496.5	0.743143
2497.88	0.753633
2499.27	1.18749
2500.65	0.738123
2502.03	0.820674
2503.41	1.33742
2504.79	1.17913
2506.17	1.56819
2507.56	1.56125
2508.94	1.54045
2510.32	1.46978
2511.7	1.07071
2513.08	0.355026
2514.46	0.178788
2515.84	-0.172311
2517.22	0.155907
2518.59	0.3787
2519.97	1.01575
2521.35	0.532676
2522.73	0.725275
2524.11	0.848112
2525.49	0.958194
2526.86	1.14564
2528.24	1.27196
2529.62	0.767624
2530.99	1.4348
2532.37	1.85174
2533.75	2.26483
2535.12	2.73991
2536.5	2.74216
2537.88	2.71114
2539.25	2.71995
2540.63	3.17442
2542	2.65907
2543.38	2.60008
2544.75	3.0018
2546.12	3.40576
2547.5	3.78301
2548.87	4.09968
2550.24	4.30524
2551.62	4.37852
2552.99	4.51234
2554.36	5.30645
2555.74	5.31342
2557.11	5.5229
2558.48	6.08578
2559.85	6.00593
2561.22	5.98014
2562.59	5.65838
2563.96	5.72703
2565.34	5.75957
2566.71	5.53845
2568.08	5.03334
2569.45	4.42211
2570.82	4.49164
2572.18	4.71079
2573.55	4.75391
2574.92	4.89245
2576.29	4.4216
2577.66	4.62584
2579.03	4.1272
2580.4	3.99882
2581.77	3.88934
2583.13	4.37032
2584.5	4.05569
2585.87	4.31642
2587.23	4.26982
2588.6	4.71733
2589.97	4.17728
2591.33	4.24425
2592.7	3.9732
2594.06	3.41908
2595.43	2.98952
2596.79	2.45301
2598.16	2.67286
2599.52	3.02188
2600.89	2.78817
2602.25	2.35002
2603.62	2.22203
2604.98	2.08146
2606.34	1.8949
2607.71	1.26957
2609.07	1.49968
2610.43	1.20711
2611.79	1.09572
2613.16	1.08051
2614.52	1.11909
2615.88	1.01632
2617.24	1.01141
2618.6	0.242042
2619.96	0.0883388
2621.32	0.0166147
2622.68	-0.176254
2624.04	-0.896047
2625.4	-0.874659
2626.76	-1.33379
2628.12	-1.85752
2629.48	-1.97464
2630.84	-1.91528
2632.2	-1.75041
2633.56	-1.23568
2634.92	-1.20489
2636.28	-1.36241
2637.63	-0.73105
2638.99	-0.222774
2640.35	0.384215
2641.71	0.705622
2643.06	0.804695
2644.42	1.39735
2645.77	1.85128
2647.13	1.63854
2648.49	1.80265
2649.84	2.12361
2651.2	2.69979
2652.55	2.76796
2653.91	3.00466
2655.26	2.97201
2656.62	3.17268
2657.97	2.93188
2659.33	2.88755
2660.68	2.50061
2662.03	2.67547
2663.39	3.2704
2664.74	3.35791
2666.09	3.50074
2667.44	2.82838
2668.8	2.37532
2670.15	1.99995
2671.5	1.91345
2672.85	1.84215
2674.2	1.60968
2675.55	1.70009
2676.91	1.58319
2678.26	1.47752
2679.61	0.977113
2680.96	1.42782
2682.31	1.79553
2683.66	1.31501
2685	1.54168
2686.35	1.82699
2687.7	2.17929
2689.05	1.86637
2690.4	1.97259
2691.75	2.07623
2693.1	2.5047
2694.44	2.75629
2695.79	3.30669
2697.14	3.94114
2698.49	4.71967
2699.83	5.27479
2701.18	5.91674
2702.52	5.99768
2703.87	6.21346
2705.22	6.59344
2706.56	6.94401
2707.91	7.51605
2709.25	8.35386
2710.6	8.98405
2711.94	9.73877
2713.29	10.0742
2714.63	10.5113
2715.97	10.8952
2717.32	11.6479
2718.66	11.9925
2720.01	11.797
2721.35	11.5573
2722.69	11.5459
2724.03	12.1214
2725.38	12.506
2726.72	13.2194
2728.06	13.373
2729.4	13.6119
2730.74	13.45
2732.08	12.8229
2733.42	12.6549
2734.76	12.3695
2736.1	12.7833
2737.44	12.8873
2738.78	13.5094
2740.12	13.4674
2741.46	13.5776
2742.8	13.603
2744.14	13.8773
2745.48	14.1739
2746.82	13.7842
2748.16	13.846
2749.49	13.2276
2750.83	12.7424
2752.17	12.6623
2753.51	12.3882
2754.84	11.6612
2756.18	10.935
2757.52	10.7547
2758.85	10.4367
2760.19	10.4201
2761.53	10.2355
2762.86	9.98571
2764.2	9.83558
2765.53	9.04059
2766.87	8.24472
2768.2	7.5273
2769.54	6.82151
2770.87	5.93909
2772.2	5.89792
2773.54	5.91888
2774.87	5.63769
2776.2	5.49765
2777.54	4.84903
2778.87	4.46599
2780.2	4.19866
2781.53	4.16703
2782.87	4.06953
2784.2	4.35981
2785.53	4.43434
2786.86	4.38498
2788.19	5.005
2789.52	5.59214
2790.85	6.27577
2792.18	6.72868
2793.51	6.98681
2794.84	6.06533
2796.17	6.45844
2797.5	6.76649
2798.83	6.34998
2800.16	7.09243
2801.49	7.84669
2802.82	8.2031
2804.15	8.59166
2805.47	8.82788
2806.8	8.14098
2808.13	8.17253
2809.46	8.27572
2810.78	8.48411
2812.11	8.10136
2813.44	8.12577
2814.76	8.93873
2816.09	9.02216
2817.42	9.7705
2818.74	10.4692
2820.07	11.2197
2821.39	11.4854
2822.72	12.1684
2824.04	13.6863
2825.37	15.0885
2826.69	16.3108
2828.02	17.72
2829.34	19.4933
2830.66	21.3372
2831.99	23.4111
2833.31	25.4654
2834.63	27.6946
2835.96	30.1338
2837.28	32.577
2838.6	34.7352
2839.92	37.7093
2841.24	40.5181
2842.57	43.8986
2843.89	47.4902
2845.21	51.2409
2846.53	54.8032
2847.85	58.3049
2849.17	61.8467
2850.49	65.9005
2851.81	69.4008
2853.13	73.4936
2854.45	77.1897
2855.77	81.2141
2857.09	85.1511
2858.41	88.7028
2859.72	91.3786
2861.04	94.5449
2862.36	98.0467
2863.68	100.93
2865	103.628
2866.31	107.188
2867.63	109.656
2868.95	112.215
2870.26	114.681
2871.58	116.808
2872.9	118.612
2874.21	120.871
2875.53	123.273
2876.84	124.958
2878.16	126.834
2879.47	128.901
2880.79	130.765
2882.1	132.02
2883.42	133.892
2884.73	135.698
2886.05	137.087
2887.36	139.021
2888.67	141.234
2889.99	144.014
2891.3	146.214
2892.61	148.091
2893.92	150.902
2895.24	153.212
2896.55	155.432
2897.86	157.267
2899.17	158.597
2900.48	161.403
2901.79	164.765
2903.11	167.893
2904.42	171.991
2905.73	176.141
2907.04	180.272
2908.35	184.631
2909.66	188.643
2910.97	192.669
2912.27	197.057
2913.58	201.291
2914.89	205.654
2916.2	210.643
2917.51	214.472
2918.82	218.807
2920.13	221.264
2921.43	224.775
2922.74	227.657
2924.05	229.635
2925.35	231.287
2926.66	233.167
2927.97	233.903
2929.27	234.85
2930.58	235.409
2931.89	236.431
2933.19	236.185
2934.5	235.92
2935.8	234.867
2937.11	233.725
2938.41	232.258
2939.72	230.438
2941.02	228.763
2942.32	226.218
2943.63	224.025
2944.93	221.262
2946.24	218.729
2947.54	215.56
2948.84	212.25
2950.14	209.507
2951.45	206.188
2952.75	203.197
2954.05	199.622
2955.35	196.722
2956.65	192.983
2957.95	189.345
2959.26	185.626
2960.56	181.478
2961.86	177.699
2963.16	174.42
2964.46	171.038
2965.76	168.82
2967.06	166.21
2968.36	162.921
2969.66	159.672
2970.96	155.827
2972.25	152.892
2973.55	149.897
2974.85	146.461
2976.15	143.028
2977.45	139.299
2978.74	135.512
2980.04	132.136
2981.34	128.751
2982.64	124.248
2983.93	120.224
2985.23	115.623
2986.52	112.371
2987.82	107.923
2989.12	103.49
2990.41	99.1705
2991.71	95.0825
2993	91.2638
2994.3	87.5949
2995.59	83.4065
2996.89	79.966
2998.18	76.0722
2999.48	73.0834
3000.77	69.504
3002.06	66.1023
3003.36	62.7728
3004.65	58.9787
3005.94	56.4912
3007.23	53.2537
3008.53	50.7987
3009.82	48.7357
3011.11	46.6233
3012.4	44.2638
3013.69	42.0995
3014.99	40.5212
3016.28	38.8879
3017.57	37.9483
3018.86	36.8737
3020.15	35.8449
3021.44	34.5832
3022.73	33.7012
3024.02	32.5
3025.31	31.6931
3026.6	31.1941
3027.89	30.7916
3029.18	30.1253
3030.46	30.3173
3031.75	30.1144
3033.04	29.3197
3034.33	29.0978
3035.62	29.2147
3036.9	29.5029
3038.19	29.9563
3039.48	29.9326
3040.76	29.851
3042.05	30.1719
3043.34	31.3825
3044.62	32.1333
3045.91	32.6037
3047.19	32.851
3048.48	33.4552
3049.77	34.0328
3051.05	34.5895
3052.34	34.5385
3053.62	34.8682
3054.9	34.7208
3056.19	34.5387
3057.47	34.5545
3058.76	34.768
3060.04	34.749
3061.32	34.9704
3062.61	34.4153
3063.89	33.4372
3065.17	31.8838
3066.45	31.1696
3067.74	29.9004
3069.02	28.4132
3070.3	27.8672
3071.58	26.6912
3072.86	25.8286
3074.14	24.6993
3075.42	22.9535
3076.7	21.9972
3077.99	21.488
3079.26	21.3259
3080.54	20.6194
3081.82	19.3351
3083.1	18.5706
3084.38	17.3338
3085.66	16.5867
3086.94	15.5226
3088.22	14.5606
3089.5	13.5218
3090.78	12.7948
3092.05	12.0362
3093.33	11.4846
3094.61	10.8893
3095.89	10.1388
3097.16	9.54942
3098.44	9.19267
3099.72	9.4713
3100.99	9.17222
3102.27	8.98881
3103.54	8.64557
3104.82	8.43311
3106.1	8.6086
3107.37	9.0737
3108.65	8.73853
3109.92	8.59004
3111.2	8.34481
3112.47	8.0922
3113.74	7.90139
3115.02	7.49701
3116.29	7.19609
3117.56	7.03908
3118.84	6.83826
3120.11	6.67715
3121.38	6.79902
3122.66	6.70696
3123.93	5.67458
3125.2	4.86295
3126.47	4.16792
3127.74	3.53965
3129.01	3.36024
3130.29	3.13371
3131.56	2.22036
3132.83	1.78491
3134.1	1.666
3135.37	1.24804
3136.64	0.804356
3137.91	0.648755
3139.18	0.470582
3140.45	0.756234
3141.72	0.473564
3142.99	-0.0416839
3144.26	-0.388522
3145.52	-0.494735
3146.79	-1.07172
3148.06	-0.5445
3149.33	-0.747525
