#Acq. time (s)=	45
#Accumulations=	2
#Range (cm-¹)=	200...3150
#Windows=	2
#Auto scanning=	Off
#Autofocus=	Off
#Macrospot=	Off
#AutoExposure=	Off
#Spike filter=	Multiple accum.
#Delay time (s)=	0
#Binning=	1
#Readout mode=	Signal
#DeNoise=	Off
#ICS correction=	On
#Dark correction=	Off
#Inst. Process=	Off
#Detector Gain=	Best Dynamic Range
#Detector ADC=	20 kHz       
#Detector temperature (°C)=	-69.85
#Instrument=	LabRAM HR Evol
#Detector=	Synapse
#Objective=	x100
#Grating=	600 gr/mm
#ND Filter=	100%
#Laser (nm)=	532 
#Hole=	100.021
#Range=	Auto
#Laser Pol.=	No
#Raman. Pol.=	No
#Laser Pol. (°)=	-0.0007625
#Raman Pol. (°)=	89.9995
#Collection=	Microscope
#StageXY=	Marzhauser
#StageZ=	Marzhauser
#X (µm)=	1990.6
#Y (µm)=	-64.1
#Z (µm)=	424.75
#Full time(mm:ss)=	3:18
#Project=	
#Sample=	
#Site=	
#Title=	Thy_40_11_11_2x_45s_532 nm_x100_100%_600 gr_mm
#Remark=	
#Date=	05.07.2022 10:38
#Acquired=	05.07.2022 10:38:22
#Base:Fit=	10.08.2022 10:01:35
#Base:Sub=	10.08.2022 10:01:52
#Filter:Polynom=	16.08.2022 10:21:53
#AxisType[0]=Intens
#AxisUnit[0]=Cnt
#AxisType[1]=Spectr
#AxisUnit[1]=1/cm
200.43	2.05166
202.244	3.82336
204.059	6.45034
205.873	8.19248
207.688	9.72104
209.501	11.1698
211.314	12.1908
213.127	13.4147
214.941	15.3313
216.753	16.3816
218.564	16.9203
220.375	17.7192
222.186	16.8295
223.999	18.5349
225.809	19.0479
227.618	17.7683
229.428	18.0986
231.236	17.9367
233.045	17.026
234.855	16.1923
236.663	15.1807
238.471	14.6423
240.278	14.3246
242.085	13.876
243.891	13.3411
245.698	12.6442
247.503	11.5083
249.309	10.6139
251.116	10.2808
252.921	9.37377
254.725	9.79836
256.529	7.85646
258.333	6.60297
260.136	6.30038
261.939	6.08591
263.742	5.8136
265.544	6.2516
267.346	6.77233
269.148	6.97619
270.949	5.908
272.75	7.11577
274.55	7.10276
276.351	5.9066
278.15	5.02866
279.95	5.65823
281.749	5.55778
283.548	6.66438
285.346	6.66196
287.144	7.9171
288.942	8.25146
290.739	9.66863
292.536	9.79681
294.333	10.6542
296.129	11.225
297.925	12.6645
299.721	13.6291
301.514	14.2704
303.309	15.4376
305.104	16.4813
306.898	16.5278
308.692	16.7305
310.486	17.1344
312.279	17.0895
314.072	17.3559
315.862	16.7395
317.654	16.6462
319.446	17.7854
321.238	16.6533
323.029	16.3383
324.819	16.5006
326.608	15.9034
328.398	16.9193
330.188	17.1216
331.977	17.3519
333.766	17.3796
335.553	16.7003
337.341	16.9215
339.129	16.9732
340.917	16.7049
342.704	16.6346
344.489	17.3628
346.275	15.8733
348.062	15.7418
349.845	16.5911
351.631	16.8856
353.416	16.2783
355.201	15.781
356.984	15.0967
358.768	14.2751
360.552	14.4247
362.333	14.4227
364.116	13.0569
365.899	11.731
367.68	11.2806
369.462	11.4816
371.243	11.138
373.023	11.3492
374.804	11.6451
376.585	11.8785
378.363	11.9606
380.143	11.8047
381.923	11.4473
383.7	12.3891
385.479	12.3839
387.256	12.785
389.034	11.7819
390.812	11.6524
392.588	12.2456
394.365	12.8349
396.14	11.8784
397.916	11.504
399.691	11.8197
401.467	12.9047
403.24	13.1994
405.015	14.5726
406.788	14.4096
408.563	14.7813
410.335	13.9341
412.109	14.0501
413.88	13.9476
415.654	13.7933
417.424	14.3576
419.197	13.8322
420.967	13.5155
422.739	13.4428
424.508	12.9554
426.279	13.3484
428.048	13.3913
429.819	13.1668
431.587	13.9177
433.356	12.8863
435.124	12.3142
436.891	11.8464
438.66	10.0203
440.426	9.20378
442.194	7.94627
443.96	7.37326
445.725	5.67587
447.492	4.66565
449.257	4.30271
451.021	4.42135
452.787	4.44434
454.551	5.16872
456.314	6.95705
458.079	7.86405
459.842	8.32317
461.604	9.36021
463.368	9.58598
465.13	9.76375
466.891	10.65
468.654	11.117
470.415	11.5478
472.175	13.3198
473.935	13.2527
475.696	14.4334
477.456	15.1034
479.215	16.4399
480.973	17.3463
482.733	18.3222
484.491	18.7178
486.249	19.6156
488.006	21.1125
489.765	21.3214
491.522	21.2886
493.278	21.1474
495.034	21.3679
496.789	23.1107
498.544	22.2495
500.301	23.5554
502.056	23.9892
503.81	24.4521
505.564	24.2627
507.317	25.0755
509.071	25.2109
510.825	25.0793
512.578	24.5678
514.33	24.739
516.082	24.5525
517.833	23.8319
519.585	23.6929
521.335	22.9353
523.086	22.4756
524.836	21.557
526.586	20.503
528.335	21.4459
530.085	20.497
531.835	20.1637
533.584	19.4248
535.332	20.5142
537.08	20.6075
538.827	20.7404
540.574	19.5136
542.321	18.9386
544.068	19.9194
545.814	19.1912
547.56	17.9159
549.305	17.8679
551.05	16.3849
552.795	15.4407
554.54	15.8989
556.282	15.2455
558.025	14.7432
559.769	14.9759
561.512	14.6148
563.255	15.306
564.997	13.5983
566.739	12.8893
568.481	12.174
570.223	12.4982
571.964	10.7793
573.705	9.83206
575.443	9.91589
577.183	9.34954
578.923	10.9332
580.663	11.7934
582.402	11.8497
584.141	12.0689
585.879	11.5971
587.615	11.573
589.353	10.46
591.09	10.1209
592.828	9.26615
594.564	9.39104
596.299	8.65361
598.035	8.41682
599.771	8.00587
601.506	8.48872
603.242	7.24847
604.974	7.48895
606.709	7.95402
608.443	7.85193
610.177	7.93588
611.908	8.56268
613.642	8.2876
615.374	8.97769
617.105	9.15886
618.837	9.18021
620.569	8.79437
622.3	9.61192
624.03	9.6723
625.761	10.7283
627.491	11.4379
629.219	12.8119
630.949	13.7629
632.677	13.5538
634.406	13.3761
636.135	13.9447
637.861	14.6208
639.59	16.3588
641.318	17.6498
643.043	18.998
644.77	20.2043
646.495	20.85
648.222	21.0767
649.948	21.2644
651.672	20.8848
653.398	21.4128
655.121	22.4578
656.846	23.7169
658.569	23.3522
660.293	24.4528
662.015	25.9915
663.738	28.0291
665.46	29.0668
667.183	29.4548
668.903	29.0869
670.626	29.7019
672.346	29.9999
674.067	29.0393
675.787	29.7636
677.508	30.5914
679.226	31.1849
680.947	32.2606
682.665	32.839
684.385	33.042
686.102	33.3339
687.821	33.8884
689.538	34.2297
691.254	37.1662
692.972	37.3607
694.688	38.2304
696.406	38.6788
698.121	39.7547
699.835	40.1516
701.552	40.8568
703.266	41.6369
704.98	41.9316
706.695	42.0925
708.409	43.8228
710.121	44.2072
711.836	44.9433
713.548	45.3673
715.26	45.5128
716.973	45.9658
718.685	46.2273
720.396	45.7041
722.108	46.6258
723.818	48.544
725.528	48.8778
727.238	49.2866
728.949	50.3564
730.658	50.3198
732.367	51.3386
734.075	51.4841
735.785	51.5565
737.493	51.7279
739.2	52.4576
740.907	53.796
742.614	53.7668
744.322	54.455
746.028	56.1598
747.734	57.8357
749.439	58.6665
751.144	58.4421
752.849	60.3293
754.555	62.3274
756.26	64.1763
757.963	65.9178
759.667	67.5811
761.37	68.9818
763.073	70.7627
764.775	71.3592
766.477	71.9752
768.179	72.7372
769.883	73.8456
771.584	74.3437
773.285	76.059
774.986	77.0872
776.686	78.8516
778.386	79.2278
780.085	80.4052
781.785	81.3307
783.484	82.2687
785.182	82.3878
786.881	83.0232
788.579	84.7259
790.276	84.2164
791.974	84.6689
793.671	87.0728
795.367	86.9337
797.064	87.2637
798.76	87.5971
800.456	88.2802
802.151	89.4756
803.846	89.7041
805.541	91.5555
807.234	94.1779
808.928	94.2362
810.622	93.3547
812.315	93.356
814.008	93.1124
815.701	93.6898
817.394	92.2261
819.086	91.0914
820.778	91.0932
822.468	91.3406
824.159	91.7776
825.85	91.5728
827.541	91.247
829.231	91.1742
830.921	90.3868
832.609	89.4599
834.298	88.3878
835.987	87.7325
837.676	88.5873
839.364	88.0929
841.051	86.5516
842.738	84.1832
844.426	82.0373
846.113	79.4948
847.798	78.4652
849.484	75.9785
851.171	74.6527
852.857	73.9145
854.54	72.2124
856.226	70.5188
857.911	69.5446
859.593	68.1415
861.278	68.6005
862.961	67.0314
864.645	64.9737
866.327	63.6068
868.01	61.7908
869.692	61.4857
871.373	60.9235
873.055	59.5864
874.735	58.6245
876.416	59.986
878.097	60.1229
879.776	58.9416
881.457	58.8503
883.135	58.5479
884.815	58.6379
886.495	58.6309
888.172	58.2158
889.851	58.1552
891.528	57.0415
893.206	55.5405
894.882	54.5449
896.56	54.286
898.237	54.6322
899.912	55.4123
901.589	54.5294
903.263	55.0374
904.94	55.5518
906.614	56.1425
908.289	55.4505
909.962	54.5352
911.635	54.6981
913.31	53.5642
914.982	53.5035
916.656	53.2407
918.328	52.584
920.001	52.3554
921.672	52.4204
923.345	50.1317
925.015	48.797
926.685	47.626
928.357	46.6352
930.026	46.2854
931.698	45.6139
933.366	44.3075
935.035	44.5525
936.705	43.8227
938.373	42.8548
940.041	42.3882
941.71	40.8611
943.377	40.425
945.044	38.8122
946.712	37.6226
948.378	36.8465
950.044	37.5296
951.709	37.2797
953.376	37.6823
955.041	36.8193
956.706	35.9968
958.372	35.7077
960.036	33.8749
961.699	32.101
963.362	31.0967
965.027	30.375
966.69	30.7262
968.352	30.7333
970.014	30.7937
971.676	31.2428
973.339	32.313
975	32.4702
976.661	33.2792
978.322	33.2112
979.982	34.682
981.642	35.6169
983.303	35.9908
984.962	36.0415
986.621	36.7281
988.28	36.9696
989.938	35.5891
991.596	34.917
993.254	35.9394
994.911	36.5899
996.57	35.8236
998.227	35.8954
999.884	36.6612
1001.54	36.1027
1003.2	35.274
1004.85	34.1408
1006.51	32.7025
1008.16	33.09
1009.82	32.6592
1011.47	32.0495
1013.12	31.8896
1014.78	31.7789
1016.43	31.4438
1018.08	31.4968
1019.74	29.8487
1021.39	28.9953
1023.04	28.3512
1024.69	28.6007
1026.34	28.0535
1028	27.8592
1029.65	27.2336
1031.3	26.2011
1032.95	25.8531
1034.6	23.6465
1036.25	23.2635
1037.9	21.5636
1039.54	20.0763
1041.19	19.6137
1042.84	20.1235
1044.49	21.5133
1046.14	22.3848
1047.78	22.2261
1049.43	22.0101
1051.08	21.0991
1052.72	21.0618
1054.37	20.5913
1056.02	19.9105
1057.66	18.4045
1059.31	17.9075
1060.95	16.9547
1062.6	16.6987
1064.24	16.0137
1065.88	15.5065
1067.53	15.3514
1069.17	15.2207
1070.81	13.8155
1072.45	13.7162
1074.1	14.7902
1075.74	15.27
1077.38	15.5834
1079.02	15.0031
1080.66	14.9027
1082.3	14.8979
1083.94	13.2761
1085.58	12.9222
1087.22	13.3063
1088.86	12.9982
1090.5	13.1794
1092.14	13.186
1093.78	12.9318
1095.42	12.6676
1097.05	12.5822
1098.69	12.5783
1100.33	12.2023
1101.96	12.3129
1103.6	12.9276
1105.24	14.0325
1106.87	14.6539
1108.51	13.457
1110.14	13.7285
1111.78	12.5927
1113.41	13.088
1115.05	12.9716
1116.68	13.2256
1118.31	12.8844
1119.95	12.1229
1121.58	12.3514
1123.21	12.9347
1124.85	13.5692
1126.48	13.2732
1128.11	12.3104
1129.74	10.4498
1131.37	9.56197
1133	9.39867
1134.63	9.04399
1136.26	8.4371
1137.89	9.03413
1139.52	8.66817
1141.15	8.06676
1142.78	7.39723
1144.41	6.72113
1146.04	6.37063
1147.66	6.22805
1149.29	5.62334
1150.92	5.47609
1152.55	4.7089
1154.17	4.41577
1155.8	4.4461
1157.43	4.34191
1159.05	4.04087
1160.68	2.65811
1162.3	2.52837
1163.93	2.66889
1165.55	2.28264
1167.17	1.89701
1168.8	1.66528
1170.42	0.420096
1172.05	0.0930565
1173.67	0.326045
1175.29	0.336523
1176.91	0.90499
1178.54	2.41078
1180.16	2.28891
1181.78	1.69119
1183.4	2.75273
1185.02	2.57192
1186.64	2.71192
1188.26	1.8865
1189.88	1.96019
1191.5	1.74312
1193.12	1.55303
1194.74	2.42359
1196.36	3.57599
1197.97	4.91534
1199.59	6.11411
1201.21	8.19142
1202.83	10.3842
1204.44	11.4805
1206.06	12.8571
1207.68	13.1407
1209.29	14.3732
1210.91	15.6342
1212.52	17.7987
1214.14	20.3575
1215.75	21.7394
1217.37	22.7696
1218.98	24.3268
1220.59	25.3173
1222.21	25.5471
1223.82	27.5167
1225.43	29.2776
1227.05	30.9142
1228.66	32.1086
1230.27	32.5593
1231.88	34.0178
1233.49	35.8538
1235.1	37.2136
1236.72	39.654
1238.33	40.7684
1239.94	42.1865
1241.55	43.8637
1243.16	46.0143
1244.76	47.5196
1246.37	48.4376
1247.98	48.2806
1249.59	49.2711
1251.2	48.9813
1252.8	50.1445
1254.41	51.2921
1256.02	51.3854
1257.62	52.0646
1259.23	53.1597
1260.84	51.8383
1262.44	51.7982
1264.05	52.638
1265.66	52.463
1267.26	53.8477
1268.86	55.4464
1270.47	56.7118
1272.07	56.3835
1273.67	57.5809
1275.28	58.3633
1276.88	59.5434
1278.48	59.7796
1280.09	60.9526
1281.69	60.297
1283.29	61.7678
1284.89	62.0518
1286.49	62.6041
1288.09	63.8526
1289.69	65.736
1291.29	65.4464
1292.89	66.2346
1294.49	66.9144
1296.09	66.2337
1297.69	66.2539
1299.29	66.189
1300.89	66.0391
1302.49	66.609
1304.08	67.8479
1305.68	67.1775
1307.28	67.0661
1308.88	67.4237
1310.47	67.925
1312.07	68.8601
1313.66	69.1586
1315.26	67.8941
1316.85	67.8333
1318.45	67.0601
1320.04	67.3306
1321.64	67.675
1323.23	65.4793
1324.83	64.2456
1326.42	62.657
1328.01	61.9618
1329.61	61.9556
1331.2	60.6682
1332.79	59.4094
1334.38	58.2936
1335.97	57.4877
1337.56	56.1747
1339.16	54.63
1340.75	53.0345
1342.34	53.1185
1343.93	52.8528
1345.52	52.1033
1347.11	52.167
1348.7	50.3972
1350.29	49.1681
1351.87	47.8768
1353.46	47.8774
1355.05	46.7591
1356.64	46.1332
1358.22	45.4846
1359.81	44.9808
1361.4	43.2865
1362.98	44.2912
1364.57	42.9897
1366.16	41.5258
1367.74	40.8781
1369.33	39.5623
1370.91	38.506
1372.5	38.3786
1374.08	37.4429
1375.67	36.8417
1377.25	36.1434
1378.83	35.1518
1380.41	35.5533
1382	35.21
1383.58	33.5086
1385.16	32.6978
1386.74	32.3841
1388.33	31.2861
1389.91	29.8823
1391.49	28.5599
1393.07	27.0001
1394.65	25.7785
1396.23	26.1653
1397.81	25.8601
1399.39	26.3022
1400.97	25.4252
1402.55	24.5108
1404.13	24.6084
1405.7	24.116
1407.28	24.2277
1408.86	23.9846
1410.44	23.9473
1412.01	24.2534
1413.59	26.0882
1415.17	27.2593
1416.74	27.8313
1418.32	29.2596
1419.89	31.1167
1421.47	33.0267
1423.04	34.6169
1424.62	36.9967
1426.19	39.5291
1427.77	41.3929
1429.34	44.5037
1430.91	47.1639
1432.49	50.1554
1434.06	52.1115
1435.63	54.3466
1437.2	56.5335
1438.78	58.7569
1440.35	60.2951
1441.92	63.1526
1443.49	63.5624
1445.06	65.0842
1446.63	66.917
1448.2	68.3889
1449.77	69.1369
1451.34	69.557
1452.91	70.3608
1454.48	69.9589
1456.05	68.8998
1457.62	68.4608
1459.18	67.6539
1460.75	66.1047
1462.32	65.8802
1463.89	64.039
1465.45	61.6587
1467.02	59.3446
1468.59	56.7744
1470.15	54.7111
1471.72	51.9285
1473.28	49.6389
1474.85	47.6957
1476.41	44.7492
1477.98	41.6863
1479.54	38.0562
1481.1	34.6074
1482.67	31.7429
1484.23	29.5873
1485.79	26.9397
1487.36	24.6687
1488.92	22.6243
1490.48	21.2795
1492.04	19.5513
1493.61	17.5041
1495.17	15.6597
1496.73	13.8091
1498.29	13.2371
1499.85	12.467
1501.41	11.563
1502.97	10.5876
1504.53	10.3359
1506.09	9.87517
1507.65	9.80076
1509.2	9.12763
1510.76	8.99033
1512.32	8.44017
1513.88	8.20397
1515.43	7.97429
1516.99	7.54522
1518.55	7.65265
1520.1	8.36213
1521.66	7.79625
1523.22	8.15991
1524.77	8.47315
1526.33	8.81985
1527.88	9.14954
1529.44	10.2026
1530.99	10.4574
1532.54	10.511
1534.1	10.6561
1535.65	11.3641
1537.21	11.8445
1538.76	13.0451
1540.31	14.6206
1541.86	15.3671
1543.42	17.2614
1544.97	19.5827
1546.52	21.5052
1548.07	24.0603
1549.62	26.2096
1551.17	28.9749
1552.72	30.8035
1554.27	32.0504
1555.82	34.2783
1557.37	36.8177
1558.92	39.5181
1560.47	42.457
1562.02	44.0169
1563.56	46.6501
1565.11	50.0883
1566.66	52.8024
1568.21	54.2468
1569.75	55.4033
1571.3	57.0863
1572.85	59.1683
1574.39	60.0171
1575.94	62.5774
1577.49	64.07
1579.03	65.331
1580.57	66.944
1582.12	68.1882
1583.66	68.7798
1585.21	68.6615
1586.75	68.687
1588.3	69.3775
1589.84	68.1757
1591.38	67.6252
1592.92	67.2128
1594.47	66.0973
1596.01	65.5423
1597.55	63.8453
1599.09	62.6502
1600.63	61.8507
1602.17	60.9221
1603.71	60.0449
1605.25	58.9845
1606.79	57.6429
1608.33	55.8746
1609.87	54.7926
1611.41	53.7332
1612.95	53.0584
1614.49	51.8077
1616.03	52.0835
1617.57	52.659
1619.1	53.0312
1620.64	53.2958
1622.18	54.3764
1623.72	54.7135
1625.25	56.2644
1626.79	57.5168
1628.32	58.0857
1629.86	58.712
1631.39	59.9447
1632.93	61.761
1634.46	63.2033
1636	63.954
1637.53	65.2617
1639.07	67.1876
1640.6	68.9027
1642.13	70.1358
1643.67	71.6593
1645.2	73.4275
1646.73	76.181
1648.26	77.7143
1649.8	79.6789
1651.33	79.8721
1652.86	81.9673
1654.39	82.3788
1655.92	82.0905
1657.45	83.0665
1658.98	82.8843
1660.51	82.8195
1662.04	82.2085
1663.57	81.2276
1665.1	80.8479
1666.63	79.0596
1668.16	77.7774
1669.68	76.3521
1671.21	73.9408
1672.74	72.4864
1674.27	70.7104
1675.79	68.6259
1677.32	65.6154
1678.85	63.4002
1680.37	60.7119
1681.9	57.1188
1683.42	54.5476
1684.95	51.3852
1686.47	48.7825
1688	45.7642
1689.52	42.5482
1691.05	39.7634
1692.57	38.5195
1694.09	35.9562
1695.62	33.0716
1697.14	30.5167
1698.66	28.432
1700.18	26.2055
1701.71	24.6672
1703.23	22.183
1704.75	19.8768
1706.27	17.9287
1707.79	16.265
1709.31	14.8347
1710.83	13.5436
1712.35	11.9451
1713.87	11.4726
1715.39	10.3288
1716.91	8.88821
1718.43	8.79072
1719.95	8.61018
1721.47	7.61588
1722.99	6.69059
1724.5	5.17854
1726.02	4.77886
1727.54	3.7431
1729.06	4.28394
1730.57	4.12573
1732.09	3.90299
1733.61	4.40519
1735.12	3.32135
1736.64	2.47192
1738.15	1.52948
1739.67	0.857639
1741.18	1.15724
1742.7	1.07489
1744.21	1.13215
1745.72	0.848426
1747.24	0.118395
1748.75	0.608763
1750.26	0.355606
1751.77	0.216316
1753.29	0.374389
1754.8	0.82904
1756.31	0.370065
1757.82	0.752644
1759.33	1.2612
1760.84	0.740278
1762.36	0.945401
1763.87	0.790158
1765.38	0.670691
1766.89	0.482775
1768.4	0.321707
1769.91	-0.0502255
1771.41	0.0008899
1772.92	0.250948
1774.43	0.902792
1775.94	1.67916
1777.45	2.00873
1778.95	1.86283
1780.46	1.9315
1781.97	2.39822
1783.48	3.06323
1784.98	2.76264
1786.49	3.05836
1787.99	2.90125
1789.5	2.79233
1791.01	2.9022
1792.51	2.93146
1794.01	3.46303
1795.52	3.29478
1797.02	3.76534
1798.53	3.68613
1800.03	3.61107
1801.53	3.89869
1803.04	4.48694
1804.54	4.9497
1806.04	4.70082
1807.54	3.97921
1809.05	3.79831
1810.55	3.78535
1812.05	4.23702
1813.55	4.28152
1815.05	4.03154
1816.55	4.38991
1818.05	4.66291
1819.55	4.27237
1821.05	4.51904
1822.55	4.85877
1824.05	4.8021
1825.55	4.51854
1827.05	4.81025
1828.55	4.94175
1830.04	4.57572
1831.54	4.9025
1833.04	5.02506
1834.54	4.69719
1836.03	4.89833
1837.53	5.31079
1839.03	5.3911
1840.52	5.42081
1842.02	5.13677
1843.51	5.08055
1845.01	5.06866
1846.5	4.68815
1848	4.44723
1849.49	4.48691
1850.99	5.08324
1852.48	4.79812
1853.97	5.11513
1855.47	5.70334
1856.96	6.15861
1858.45	6.7099
1859.94	6.86951
1861.44	7.19049
1862.93	6.62789
1864.42	6.90692
1865.91	7.68661
1867.4	7.60057
1868.89	8.16916
1870.38	8.10175
1871.87	8.06372
1873.36	7.30982
1874.85	7.01907
1876.34	6.40309
1877.83	5.9988
1879.32	5.8779
1880.81	5.63515
1882.3	5.3803
1882.57	5.95827
1884.07	5.30803
1885.56	5.2378
1887.06	4.99984
1888.55	5.06022
1890.04	5.25608
1891.54	5.40452
1893.03	5.64222
1894.52	5.99102
1896.02	4.87761
1897.51	4.49483
1899	5.00915
1900.49	5.46804
1901.98	5.0659
1903.47	5.12825
1904.96	6.2038
1906.45	5.92001
1907.94	6.35445
1909.43	6.21398
1910.92	6.80887
1912.41	6.21171
1913.9	5.6501
1915.39	5.52976
1916.88	5.48844
1918.37	5.21787
1919.85	5.69344
1921.34	5.69309
1922.83	5.82481
1924.32	6.5637
1925.8	6.60654
1927.29	6.7278
1928.78	6.25907
1930.26	5.66494
1931.75	5.62864
1933.23	4.93132
1934.72	4.49733
1936.2	3.86678
1937.69	3.78721
1939.17	3.21392
1940.66	2.89469
1942.14	3.06555
1943.63	1.8295
1945.11	1.40606
1946.59	1.49852
1948.07	1.53379
1949.56	1.31337
1951.04	1.51652
1952.52	2.72639
1954	3.04764
1955.48	2.79753
1956.96	2.95956
1958.45	3.18052
1959.93	3.73673
1961.41	4.37491
1962.89	4.12505
1964.37	4.03013
1965.85	3.77042
1967.32	3.4587
1968.8	4.24846
1970.28	3.90146
1971.76	4.00984
1973.24	4.0484
1974.72	4.73236
1976.19	4.13038
1977.67	4.99666
1979.15	5.36398
1980.63	5.07751
1982.1	5.47855
1983.58	5.56231
1985.05	5.9992
1986.53	5.65273
1988	5.67861
1989.48	6.49796
1990.95	6.80176
1992.43	6.82307
1993.9	7.00608
1995.38	5.8222
1996.85	6.55742
1998.32	7.4295
1999.8	7.31717
2001.27	7.19802
2002.74	7.19126
2004.22	7.67785
2005.69	8.27933
2007.16	8.33845
2008.63	8.2436
2010.1	8.17042
2011.57	8.49836
2013.04	8.60854
2014.51	9.04244
2015.98	9.3502
2017.45	9.42901
2018.92	9.90044
2020.39	10.4748
2021.86	10.7988
2023.33	10.6648
2024.8	11.8183
2026.27	12.9346
2027.74	12.7877
2029.2	12.5776
2030.67	13.2883
2032.14	13.4428
2033.61	12.9091
2035.07	13.4752
2036.54	12.5115
2038.01	12.7543
2039.47	12.6037
2040.94	12.8577
2042.4	13.3357
2043.87	12.6753
2045.33	12.3297
2046.8	12.9738
2048.26	13.0539
2049.72	12.5569
2051.19	13.5203
2052.65	13.3659
2054.12	13.6485
2055.58	14.4192
2057.04	14.6078
2058.5	14.2451
2059.97	14.3167
2061.43	14.3416
2062.89	15.5875
2064.35	15.9169
2065.81	16.6973
2067.27	17.0548
2068.73	17.192
2070.19	18.3512
2071.65	18.0091
2073.11	18.5146
2074.57	18.3655
2076.03	18.7954
2077.49	19.0207
2078.95	19.0034
2080.41	19.1553
2081.87	19.2174
2083.32	19.9167
2084.78	19.7569
2086.24	20.1783
2087.7	20.4952
2089.15	21.5762
2090.61	21.9722
2092.07	22.9442
2093.52	23.6405
2094.98	25.0543
2096.43	26.0428
2097.89	27.2361
2099.34	27.7673
2100.8	28.2257
2102.25	29.2692
2103.71	30.4095
2105.16	30.9553
2106.61	32.5448
2108.07	33.4958
2109.52	33.7531
2110.97	34.5565
2112.43	35.794
2113.88	37.1479
2115.33	38.842
2116.78	40.2374
2118.23	41.6806
2119.68	43.206
2121.13	44.4352
2122.59	46.5201
2124.04	47.7387
2125.49	49.0053
2126.94	51.3465
2128.39	53.7234
2129.83	54.9467
2131.28	56.9461
2132.73	59.377
2134.18	62.1211
2135.63	64.5659
2137.08	67.0565
2138.53	69.4225
2139.97	70.1708
2141.42	71.9437
2142.87	74.1111
2144.31	76.1396
2145.76	78.7485
2147.21	80.1664
2148.65	82.0129
2150.1	84.1735
2151.54	86.2971
2152.99	87.8748
2154.43	90.0389
2155.88	91.9127
2157.32	93.7246
2158.77	96.3616
2160.21	97.7791
2161.65	99.6687
2163.1	100.818
2164.54	103.041
2165.98	103.519
2167.43	105.078
2168.87	106.19
2170.31	107.292
2171.75	107.594
2173.19	107.836
2174.64	108.421
2176.07	108.312
2177.52	107.858
2178.96	107.759
2180.4	106.269
2181.84	105.515
2183.28	105.085
2184.72	104.499
2186.15	103.147
2187.59	101.887
2189.03	100.338
2190.47	98.7752
2191.91	97.2774
2193.35	95.3803
2194.78	93.254
2196.22	90.8636
2197.66	89.0399
2199.09	87.2453
2200.53	84.397
2201.97	81.1518
2203.4	79.3856
2204.84	77.2531
2206.27	74.833
2207.71	72.112
2209.14	70.1915
2210.58	66.612
2212.01	63.553
2213.45	62.2877
2214.88	60.0916
2216.31	57.9112
2217.75	55.275
2219.18	53.0978
2220.61	50.9995
2222.05	49.7952
2223.48	48.2921
2224.91	47.0218
2226.34	45.7247
2227.78	43.7701
2229.21	42.5212
2230.64	41.1893
2232.07	39.5962
2233.5	38.7636
2234.93	37.93
2236.36	37.3451
2237.79	35.5314
2239.22	35.3372
2240.65	34.7521
2242.08	33.425
2243.5	32.3049
2244.93	31.4901
2246.36	30.585
2247.79	30.3087
2249.22	29.9316
2250.64	29.4901
2252.07	28.1791
2253.5	28.1541
2254.92	28.2792
2256.35	28.0455
2257.78	28.3591
2259.2	28.3821
2260.63	27.9788
2262.05	27.607
2263.48	26.9226
2264.9	25.7115
2266.33	24.9484
2267.75	24.6231
2269.18	24.2255
2270.6	23.7277
2272.02	22.6367
2273.45	22.1647
2274.87	21.7832
2276.29	20.5297
2277.71	19.7701
2279.14	18.8553
2280.56	18.6484
2281.98	17.088
2283.4	17.6144
2284.82	17.3818
2286.24	16.2505
2287.66	15.6102
2289.08	14.6784
2290.5	14.5825
2291.92	14.0274
2293.34	13.9628
2294.76	14.4315
2296.18	14.1769
2297.6	13.9032
2299.02	13.8586
2300.44	13.8282
2301.86	13.9492
2303.27	14.1439
2304.69	13.7469
2306.11	13.4629
2307.53	13.317
2308.94	12.9718
2310.36	13.6659
2311.78	13.5408
2313.19	12.9803
2314.61	13.1046
2316.02	12.9128
2317.44	13.2191
2318.85	13.7161
2320.27	13.2066
2321.68	12.4754
2323.1	12.1531
2324.51	12.5806
2325.92	12.1002
2327.34	11.3679
2328.75	11.2373
2330.16	9.83235
2331.58	9.38828
2332.99	8.93496
2334.4	7.9754
2335.81	7.36377
2337.23	7.22988
2338.64	6.91511
2340.05	5.29776
2341.46	3.66033
2342.87	2.56424
2344.28	1.86905
2345.69	1.59219
2347.1	0.620429
2348.51	0.244464
2349.92	0.0202763
2351.33	0.308589
2352.74	0.152189
2354.15	-0.125597
2355.55	-0.968476
2356.96	-1.32632
2358.37	-1.56923
2359.78	-1.69355
2361.19	-1.49207
2362.59	-1.07966
2364	-0.379738
2365.41	0.0791784
2366.81	0.619202
2368.22	1.18081
2369.62	0.988582
2371.03	1.07595
2372.44	1.71607
2373.84	1.7187
2375.24	2.00987
2376.65	2.25544
2378.05	2.83452
2379.46	2.96366
2380.86	3.4281
2382.26	3.35566
2383.67	2.87772
2385.07	2.96132
2386.47	3.44404
2387.88	3.53832
2389.28	3.65422
2390.68	3.66074
2392.08	3.8273
2393.48	4.61709
2394.89	4.23862
2396.29	3.82655
2397.69	4.17204
2399.09	4.42508
2400.49	4.20126
2401.89	4.89998
2403.29	5.14714
2404.69	5.13821
2406.09	5.30589
2407.48	5.65029
2408.88	5.01177
2410.28	4.94058
2411.68	5.24586
2413.08	5.54339
2414.48	5.85349
2415.87	5.93214
2417.27	5.55508
2418.67	6.43789
2420.06	6.82162
2421.46	6.68787
2422.86	6.31979
2424.25	5.86715
2425.65	6.36026
2427.04	6.0429
2428.44	6.24773
2429.83	6.50546
2431.23	6.95277
2432.62	7.33663
2434.02	7.88711
2435.41	7.8593
2436.81	7.95722
2438.2	7.39882
2439.59	7.2041
2440.99	7.18392
2442.38	7.79898
2443.77	7.50597
2445.16	7.68764
2446.56	7.79048
2447.95	7.75097
2449.34	7.39319
2450.73	7.57049
2452.12	7.46064
2453.51	7.57076
2454.9	8.0226
2456.29	8.95684
2457.68	9.1375
2459.07	9.12125
2460.46	8.88966
2461.85	8.70139
2463.24	8.53446
2464.63	7.65462
2466.02	7.89273
2467.4	8.02855
2468.79	7.82427
2470.18	7.54742
2471.57	7.60113
2472.95	7.5124
2474.34	7.11594
2475.73	7.1976
2477.12	7.48645
2478.5	7.17063
2479.89	7.13286
2481.27	6.59074
2482.66	6.20526
2484.04	5.96066
2485.43	5.58215
2486.81	5.20522
2488.2	4.96714
2489.58	4.94831
2490.97	4.62118
2492.35	4.43924
2493.73	4.20478
2495.12	4.43686
2496.5	3.97997
2497.88	4.49493
2499.27	4.09994
2500.65	4.48269
2502.03	4.45546
2503.41	4.42689
2504.79	4.28427
2506.17	4.60634
2507.56	5.39993
2508.94	5.99341
2510.32	6.0281
2511.7	6.5445
2513.08	6.07643
2514.46	5.7603
2515.84	5.891
2517.22	5.64545
2518.59	5.84985
2519.97	5.45409
2521.35	5.73458
2522.73	6.04212
2524.11	5.87952
2525.49	5.96214
2526.86	5.66336
2528.24	5.17824
2529.62	5.61018
2530.99	5.54864
2532.37	5.60852
2533.75	5.74963
2535.12	6.07772
2536.5	6.33765
2537.88	6.24394
2539.25	5.71671
2540.63	6.05335
2542	6.13454
2543.38	6.14912
2544.75	6.40684
2546.12	5.39917
2547.5	4.63465
2548.87	4.13727
2550.24	3.89471
2551.62	3.41539
2552.99	2.98197
2554.36	2.89362
2555.74	2.59022
2557.11	2.65664
2558.48	2.78652
2559.85	2.20464
2561.22	2.04897
2562.59	1.54445
2563.96	1.35274
2565.34	1.23255
2566.71	1.54067
2568.08	1.17371
2569.45	1.6998
2570.82	1.40198
2572.18	1.66149
2573.55	2.25503
2574.92	2.20813
2576.29	2.32628
2577.66	1.42609
2579.03	0.7893
2580.4	0.718933
2581.77	-0.00731752
2583.13	0.259195
2584.5	1.00973
2585.87	0.811722
2587.23	0.649084
2588.6	0.802855
2589.97	1.48321
2591.33	1.73725
2592.7	2.45657
2594.06	2.67909
2595.43	3.31242
2596.79	4.01094
2598.16	4.81909
2599.52	4.62915
2600.89	5.2413
2602.25	5.22135
2603.62	5.15439
2604.98	5.45366
2606.34	4.75779
2607.71	4.87945
2609.07	5.83315
2610.43	5.50868
2611.79	5.00211
2613.16	5.74995
2614.52	5.28133
2615.88	5.02935
2617.24	4.72286
2618.6	4.52878
2619.96	4.31004
2621.32	3.86619
2622.68	4.0502
2624.04	3.83632
2625.4	3.59442
2626.76	3.06417
2628.12	2.57825
2629.48	3.02583
2630.84	2.70155
2632.2	2.52701
2633.56	3.34557
2634.92	3.2645
2636.28	3.77308
2637.63	4.55909
2638.99	4.78984
2640.35	5.45293
2641.71	5.80835
2643.06	5.45388
2644.42	5.37557
2645.77	5.06251
2647.13	5.09676
2648.49	5.31093
2649.84	5.02378
2651.2	5.36026
2652.55	5.15448
2653.91	4.98989
2655.26	5.30379
2656.62	5.32736
2657.97	5.25998
2659.33	6.02894
2660.68	6.24118
2662.03	6.04297
2663.39	6.37027
2664.74	6.6501
2666.09	6.45262
2667.44	6.31982
2668.8	6.20291
2670.15	5.57381
2671.5	5.56888
2672.85	5.68218
2674.2	5.54137
2675.55	5.87406
2676.91	6.43423
2678.26	6.21598
2679.61	5.92146
2680.96	6.57001
2682.31	5.51994
2683.66	5.26373
2685	5.97529
2686.35	6.66898
2687.7	6.60204
2689.05	6.47188
2690.4	7.21375
2691.75	7.26394
2693.1	7.2814
2694.44	7.21366
2695.79	7.74606
2697.14	8.54342
2698.49	8.19615
2699.83	8.29197
2701.18	9.0196
2702.52	8.92213
2703.87	9.36607
2705.22	9.26606
2706.56	9.08843
2707.91	9.22468
2709.25	9.75728
2710.6	9.57396
2711.94	9.68904
2713.29	9.38649
2714.63	9.28951
2715.97	9.4511
2717.32	9.37516
2718.66	9.51393
2720.01	9.34855
2721.35	9.48918
2722.69	9.91843
2724.03	9.9547
2725.38	9.63844
2726.72	10.3076
2728.06	10.1829
2729.4	10.0541
2730.74	10.4368
2732.08	9.88527
2733.42	10.0598
2734.76	10.4491
2736.1	10.3351
2737.44	10.2283
2738.78	10.6457
2740.12	10.9506
2741.46	11.1334
2742.8	11.2263
2744.14	11.6412
2745.48	11.4178
2746.82	11.136
2748.16	12.0551
2749.49	11.7781
2750.83	12.2928
2752.17	12.7855
2753.51	12.4332
2754.84	12.0798
2756.18	12.0303
2757.52	12.3199
2758.85	11.628
2760.19	10.9928
2761.53	10.4822
2762.86	10.0246
2764.2	9.30566
2765.53	8.67848
2766.87	7.7651
2768.2	7.54305
2769.54	6.82698
2770.87	6.93095
2772.2	6.52142
2773.54	6.02971
2774.87	5.87647
2776.2	6.03686
2777.54	5.25804
2778.87	5.15035
2780.2	4.96631
2781.53	5.02118
2782.87	4.51033
2784.2	3.78942
2785.53	3.41443
2786.86	3.0535
2788.19	2.91033
2789.52	2.92707
2790.85	2.74812
2792.18	2.14297
2793.51	2.35304
2794.84	2.1535
2796.17	2.14145
2797.5	2.41522
2798.83	2.17161
2800.16	3.06712
2801.49	2.51056
2802.82	1.95384
2804.15	2.50622
2805.47	2.5307
2806.8	2.28913
2808.13	2.25702
2809.46	2.66984
2810.78	3.28866
2812.11	3.37172
2813.44	3.53099
2814.76	3.86046
2816.09	3.86597
2817.42	4.21243
2818.74	4.92554
2820.07	5.83273
2821.39	6.66053
2822.72	7.64109
2824.04	8.77583
2825.37	9.63631
2826.69	10.5915
2828.02	11.9229
2829.34	13.5187
2830.66	15.238
2831.99	17.5918
2833.31	19.2301
2834.63	21.8714
2835.96	23.7897
2837.28	26.1621
2838.6	27.971
2839.92	30.5196
2841.24	33.2621
2842.57	36.2593
2843.89	39.2763
2845.21	42.6345
2846.53	45.4035
2847.85	48.4537
2849.17	51.9844
2850.49	55.7661
2851.81	59.4267
2853.13	63.2051
2854.45	67.5395
2855.77	71.5433
2857.09	76.0817
2858.41	79.3399
2859.72	83.4499
2861.04	87.626
2862.36	91.3832
2863.68	95.1725
2865	98.9415
2866.31	102.294
2867.63	105.052
2868.95	108.313
2870.26	111.739
2871.58	114.08
2872.9	117.47
2874.21	120.869
2875.53	123.896
2876.84	125.962
2878.16	127.732
2879.47	129.756
2880.79	131.984
2882.1	134.307
2883.42	136.332
2884.73	139.148
2886.05	141.794
2887.36	143.828
2888.67	146.435
2889.99	148.069
2891.3	150.536
2892.61	152.429
2893.92	155.139
2895.24	157.845
2896.55	160.694
2897.86	164.068
2899.17	166.896
2900.48	170.268
2901.79	173.336
2903.11	176.555
2904.42	180.542
2905.73	185.316
2907.04	190.318
2908.35	196.417
2909.66	201.977
2910.97	207.111
2912.27	212.292
2913.58	218.161
2914.89	223.376
2916.2	228.828
2917.51	233.878
2918.82	239.373
2920.13	244.155
2921.43	248.561
2922.74	253.375
2924.05	256.85
2925.35	260.567
2926.66	263.595
2927.97	266.338
2929.27	268.727
2930.58	270.371
2931.89	270.979
2933.19	271.681
2934.5	272.133
2935.8	271.818
2937.11	270.886
2938.41	269.798
2939.72	268.078
2941.02	265.376
2942.32	262.732
2943.63	259.554
2944.93	256.526
2946.24	254.171
2947.54	250.329
2948.84	245.912
2950.14	241.99
2951.45	237.633
2952.75	233.109
2954.05	228.607
2955.35	223.661
2956.65	219.78
2957.95	214.753
2959.26	210.568
2960.56	206.076
2961.86	201.651
2963.16	196.724
2964.46	190.916
2965.76	185.929
2967.06	180.717
2968.36	175.834
2969.66	172.287
2970.96	168.684
2972.25	164.381
2973.55	160.237
2974.85	155.033
2976.15	149.539
2977.45	145.017
2978.74	140.515
2980.04	135.545
2981.34	131.227
2982.64	126.356
2983.93	121.197
2985.23	116.274
2986.52	111.239
2987.82	106.207
2989.12	101.128
2990.41	95.9668
2991.71	90.9684
2993	85.8724
2994.3	81.0488
2995.59	76.311
2996.89	71.368
2998.18	67.3554
2999.48	63.3278
3000.77	59.4206
3002.06	55.7146
3003.36	52.7016
3004.65	49.6676
3005.94	45.9931
3007.23	43.0678
3008.53	40.2652
3009.82	37.9323
3011.11	35.5923
3012.4	32.2945
3013.69	30.4281
3014.99	28.7453
3016.28	27.4237
3017.57	25.8229
3018.86	24.9827
3020.15	23.6702
3021.44	22.6959
3022.73	21.3389
3024.02	20.2358
3025.31	18.9998
3026.6	18.1318
3027.89	17.4791
3029.18	16.6976
3030.46	16.7747
3031.75	16.5306
3033.04	17.1577
3034.33	17.6301
3035.62	17.7791
3036.9	17.82
3038.19	17.7147
3039.48	17.6839
3040.76	17.5467
3042.05	18.0826
3043.34	17.9293
3044.62	17.8981
3045.91	18.6921
3047.19	18.9062
3048.48	19.022
3049.77	18.9581
3051.05	18.7747
3052.34	19.3628
3053.62	19.4593
3054.9	19.1433
3056.19	18.9019
3057.47	18.0699
3058.76	17.8544
3060.04	17.8618
3061.32	17.8287
3062.61	17.8714
3063.89	17.5378
3065.17	16.6244
3066.45	16.2411
3067.74	16.1677
3069.02	15.457
3070.3	14.2505
3071.58	13.615
3072.86	12.9008
3074.14	11.7214
3075.42	11.3711
3076.7	10.0496
3077.99	9.49039
3079.26	8.7564
3080.54	8.96
3081.82	8.29176
3083.1	7.669
3084.38	7.24854
3085.66	6.41197
3086.94	5.48218
3088.22	4.68108
3089.5	4.47766
3090.78	4.14885
3092.05	3.29155
3093.33	3.03275
3094.61	2.37692
3095.89	2.31573
3097.16	2.82153
3098.44	2.63065
3099.72	2.17982
3100.99	1.26825
3102.27	0.658201
3103.54	0.814404
3104.82	0.845295
3106.1	0.925654
3107.37	1.45228
3108.65	2.0953
3109.92	2.55837
3111.2	2.48206
3112.47	2.0501
3113.74	1.87158
3115.02	2.19831
3116.29	2.6863
3117.56	3.25766
3118.84	3.27238
3120.11	3.42395
3121.38	3.66721
3122.66	4.65723
3123.93	5.70422
3125.2	6.13649
3126.47	6.10994
3127.74	6.30746
3129.01	6.60463
3130.29	7.35227
3131.56	7.52346
3132.83	7.5502
3134.1	7.7704
3135.37	8.59084
3136.64	9.07183
3137.91	9.71466
3139.18	10.4084
3140.45	10.579
3141.72	11.3508
3142.99	11.2976
3144.26	10.8733
3145.52	10.4629
3146.79	9.78088
3148.06	7.93045
3149.33	8.39387
