#Acq. time (s)=	45
#Accumulations=	2
#Range (cm-¹)=	200...3150
#Windows=	2
#Auto scanning=	Off
#Autofocus=	Off
#Macrospot=	Off
#AutoExposure=	Off
#Spike filter=	Multiple accum.
#Delay time (s)=	0
#Binning=	1
#Readout mode=	Signal
#DeNoise=	Off
#ICS correction=	On
#Dark correction=	Off
#Inst. Process=	Off
#Detector Gain=	Best Dynamic Range
#Detector ADC=	20 kHz       
#Detector temperature (°C)=	-69.62
#Instrument=	LabRAM HR Evol
#Detector=	Synapse
#Objective=	x100
#Grating=	600 gr/mm
#ND Filter=	100%
#Laser (nm)=	532 
#Hole=	100.021
#Range=	Auto
#Laser Pol.=	No
#Raman. Pol.=	No
#Laser Pol. (°)=	-0.0007625
#Raman Pol. (°)=	89.9995
#Collection=	Microscope
#StageXY=	Marzhauser
#StageZ=	Marzhauser
#X (µm)=	2158.6
#Y (µm)=	1221.6
#Z (µm)=	442.15
#Full time(mm:ss)=	3:18
#Project=	
#Sample=	
#Site=	
#Title=	Thy_10_08_04_2x_45s_532 nm_x100_100%_600 gr_mm
#Remark=	
#Date=	05.07.2022 14:29
#Acquired=	05.07.2022 14:29:03
#Base:Fit=	10.08.2022 09:45:33
#Base:Fit=	10.08.2022 09:46:03
#Base:Fit=	10.08.2022 09:46:25
#Base:Sub=	10.08.2022 09:46:49
#Filter:Polynom=	16.08.2022 10:24:56
#AxisType[0]=Intens
#AxisUnit[0]=Cnt
#AxisType[1]=Spectr
#AxisUnit[1]=1/cm
200.43	21.1612
202.244	19.1673
204.059	16.1787
205.873	15.1336
207.688	13.3521
209.501	11.7267
211.314	10.22
213.127	9.73331
214.941	8.17581
216.753	6.78207
218.564	4.88328
220.375	4.09495
222.186	3.21107
223.999	2.81967
225.809	2.72382
227.618	2.35129
229.428	2.2787
231.236	2.6142
233.045	2.45416
234.855	3.51906
236.663	3.29941
238.471	3.04117
240.278	2.88023
242.085	3.06712
243.891	2.7139
245.698	3.53658
247.503	2.96423
249.309	2.6803
251.116	2.06281
252.921	2.68355
254.725	4.31286
256.529	5.98646
258.333	7.06839
260.136	7.40279
261.939	8.94026
263.742	9.73661
265.544	10.7578
267.346	11.0504
269.148	10.8409
270.949	11.4438
272.75	12.0932
274.55	13.0549
276.351	13.5713
278.15	13.376
279.95	14.1264
281.749	14.7778
283.548	14.5852
285.346	14.9015
287.144	15.428
288.942	15.5704
290.739	16.1044
292.536	17.1142
294.333	17.6406
296.129	18.0374
297.925	18.3364
299.721	18.8901
301.514	19.3093
303.309	19.4647
305.104	18.628
306.898	19.3936
308.692	19.6166
310.486	20.397
312.279	19.9045
314.072	20.0532
315.862	19.5457
317.654	19.211
319.446	18.7051
321.238	18.7298
323.029	18.5642
324.819	18.6851
326.608	16.2458
328.398	15.2982
330.188	15.6253
331.977	15.5945
333.766	15.0741
335.553	15.0846
337.341	14.3213
339.129	13.906
340.917	14.3757
342.704	15.0252
344.489	15.296
346.275	14.7965
348.062	14.2435
349.845	15.2311
351.631	15.8283
353.416	15.3067
355.201	14.2571
356.984	13.9651
358.768	13.9004
360.552	14.1443
362.333	13.4897
364.116	13.2657
365.899	12.263
367.68	11.709
369.462	11.9056
371.243	11.0069
373.023	10.769
374.804	11.3475
376.585	11.771
378.363	12.0803
380.143	12.1137
381.923	12.3491
383.7	11.8399
385.479	12.229
387.256	11.7018
389.034	12.4601
390.812	12.0493
392.588	12.4935
394.365	13.0303
396.14	13.3568
397.916	12.7203
399.691	12.1513
401.467	11.2506
403.24	11.3285
405.015	10.9611
406.788	11.1599
408.563	11.6359
410.335	12.6899
412.109	13.3276
413.88	13.0696
415.654	12.3496
417.424	12.9693
419.197	13.77
420.967	13.7791
422.739	13.7306
424.508	12.6002
426.279	11.9375
428.048	12.1235
429.819	12.8797
431.587	12.2515
433.356	12.7089
435.124	12.2189
436.891	11.7625
438.66	11.6269
440.426	11.3288
442.194	10.8084
443.96	9.27638
445.725	7.88751
447.492	7.83345
449.257	6.61293
451.021	5.69768
452.787	6.06818
454.551	5.41896
456.314	5.3125
458.079	5.32024
459.842	5.06101
461.604	5.0798
463.368	5.36242
465.13	5.9285
466.891	6.05561
468.654	6.62485
470.415	6.80448
472.175	7.20275
473.935	7.77864
475.696	9.40186
477.456	9.62966
479.215	11.0787
480.973	12.762
482.733	13.2695
484.491	13.6396
486.249	14.0834
488.006	14.5459
489.765	15.6869
491.522	16.6925
493.278	17.7911
495.034	19.3594
496.789	20.3319
498.544	21.0815
500.301	21.2979
502.056	21.7971
503.81	20.956
505.564	21.4735
507.317	21.4621
509.071	21.6449
510.825	21.1086
512.578	20.6403
514.33	20.9027
516.082	21.4194
517.833	21.2294
519.585	20.6389
521.335	21.0487
523.086	21.0049
524.836	20.1667
526.586	19.7857
528.335	19.9258
530.085	18.728
531.835	17.5419
533.584	17.3736
535.332	17.588
537.08	15.5877
538.827	15.0305
540.574	14.9293
542.321	14.3371
544.068	13.2838
545.814	12.3402
547.56	11.3081
549.305	10.8824
551.05	10.4651
552.795	9.34035
554.54	9.41728
556.282	9.14469
558.025	8.28163
559.769	7.43526
561.512	6.99512
563.255	7.22027
564.997	6.08743
566.739	6.50729
568.481	5.45795
570.223	4.65916
571.964	3.81182
573.705	3.3607
575.443	3.04163
577.183	2.9616
578.923	2.33437
580.663	2.70762
582.402	2.4982
584.141	2.39761
585.879	2.32293
587.615	1.8557
589.353	1.76203
591.09	0.302637
592.828	0.583255
594.564	-0.0668791
596.299	0.492142
598.035	0.00277656
599.771	-0.0481664
601.506	0.142856
603.242	1.7301
604.974	1.71596
606.709	1.27601
608.443	1.90058
610.177	1.67753
611.908	0.727877
613.642	1.50999
615.374	0.91379
617.105	1.13869
618.837	0.967485
620.569	1.49413
622.3	1.19795
624.03	0.824777
625.761	1.88708
627.491	2.4363
629.219	2.92516
630.949	3.85136
632.677	5.28425
634.406	5.66648
636.135	6.82367
637.861	7.4241
639.59	7.51923
641.318	9.27144
643.043	8.98628
644.77	8.8945
646.495	9.30514
648.222	9.70659
649.948	10.7246
651.672	11.5353
653.398	12.3626
655.121	12.6492
656.846	13.4749
658.569	13.8285
660.293	14.762
662.015	15.9238
663.738	15.9059
665.46	16.4657
667.183	17.751
668.903	17.8061
670.626	18.6757
672.346	19.0305
674.067	20.4222
675.787	20.7842
677.508	21.3593
679.226	22.1973
680.947	22.7677
682.665	22.7291
684.385	23.7415
686.102	23.9303
687.821	25.097
689.538	25.7296
691.254	25.2926
692.972	26.1115
694.688	26.2019
696.406	26.1939
698.121	26.0237
699.835	26.2926
701.552	26.1566
703.266	27.6035
704.98	28.4792
706.695	29.5472
708.409	29.7753
710.121	30.8843
711.836	31.9393
713.548	32.5389
715.26	33.2667
716.973	35.0277
718.685	35.5145
720.396	36.2943
722.108	36.7982
723.818	37.7557
725.528	37.8846
727.238	39.197
728.949	39.1368
730.658	40.8749
732.367	41.5041
734.075	42.0643
735.785	43.0607
737.493	43.843
739.2	44.637
740.907	45.1375
742.614	45.8555
744.322	46.9987
746.028	48.3944
747.734	50.7042
749.439	51.7189
751.144	53.941
752.849	54.3857
754.555	55.7404
756.26	58.1202
757.963	59.5978
759.667	60.7172
761.37	61.4696
763.073	62.3318
764.775	63.8452
766.477	64.4134
768.179	65.5765
769.883	66.8875
771.584	67.1822
773.285	68.883
774.986	69.358
776.686	69.2966
778.386	69.0646
780.085	68.585
781.785	69.4952
783.484	69.4249
785.182	71.1914
786.881	72.4467
788.579	73.0881
790.276	74.6268
791.974	74.8079
793.671	75.7851
795.367	76.6512
797.064	77.5082
798.76	78.0592
800.456	78.4874
802.151	78.3596
803.846	78.4253
805.541	78.1323
807.234	77.4703
808.928	78.2023
810.622	78.066
812.315	78.2582
814.008	78.1384
815.701	77.3078
817.394	76.2337
819.086	76.3588
820.778	75.8403
822.468	75.5323
824.159	75.453
825.85	76.2063
827.541	76.4292
829.231	77.3453
830.921	76.1945
832.609	76.6337
834.298	75.1184
835.987	74.505
837.676	73.5059
839.364	74.0625
841.051	73.9155
842.738	72.1602
844.426	71.1341
846.113	71.6013
847.798	70.3844
849.484	69.4947
851.171	68.4155
852.857	67.3478
854.54	65.3994
856.226	64.1636
857.911	62.9513
859.593	61.5248
861.278	59.8513
862.961	59.0287
864.645	59.0062
866.327	59.3841
868.01	58.7738
869.692	59.3613
871.373	58.3161
873.055	57.2515
874.735	57.5129
876.416	56.6132
878.097	55.9312
879.776	55.0895
881.457	54.36
883.135	54.0412
884.815	53.3906
886.495	53.2128
888.172	53.8672
889.851	52.6989
891.528	53.4949
893.206	53.8123
894.882	54.0313
896.56	53.7727
898.237	53.7364
899.912	53.1592
901.589	54.0594
903.263	54.4556
904.94	54.251
906.614	54.3995
908.289	54.7366
909.962	55.0326
911.635	53.3984
913.31	53.5008
914.982	52.638
916.656	52.8849
918.328	52.4315
920.001	51.8296
921.672	50.4988
923.345	50.5442
925.015	49.6638
926.685	48.6882
928.357	48.8567
930.026	48.4592
931.698	46.5893
933.366	46.2735
935.035	46.8489
936.705	45.2497
938.373	44.4077
940.041	44.2795
941.71	44.2189
943.377	43.8592
945.044	43.7507
946.712	43.5674
948.378	42.4747
950.044	42.5133
951.709	41.1303
953.376	40.7125
955.041	39.6892
956.706	38.2566
958.372	38.4348
960.036	37.0978
961.699	36.9611
963.362	37.7862
965.027	39.2263
966.69	40.448
968.352	40.4791
970.014	40.8318
971.676	42.0625
973.339	42.8998
975	44.1126
976.661	44.4872
978.322	44.6591
979.982	45.3458
981.642	45.6011
983.303	45.8015
984.962	46.2055
986.621	46.2297
988.28	45.2119
989.938	44.7846
991.596	43.9991
993.254	44.1365
994.911	42.658
996.57	41.5456
998.227	40.4452
999.884	39.3635
1001.54	38.3862
1003.2	36.9166
1004.85	36.2683
1006.51	36.7875
1008.16	35.9111
1009.82	36.3062
1011.47	36.564
1013.12	36.1023
1014.78	36.2759
1016.43	36.4916
1018.08	34.9015
1019.74	32.9313
1021.39	31.9715
1023.04	30.5006
1024.69	29.5364
1026.34	28.2704
1028	26.7085
1029.65	25.0941
1031.3	24.3131
1032.95	23.3752
1034.6	21.4237
1036.25	20.7666
1037.9	20.0105
1039.54	19.3199
1041.19	19.6551
1042.84	19.5491
1044.49	20.8023
1046.14	20.3369
1047.78	20.7608
1049.43	19.8386
1051.08	18.8429
1052.72	18.2705
1054.37	19.8448
1056.02	19.4624
1057.66	19.2733
1059.31	18.842
1060.95	16.7316
1062.6	14.9543
1064.24	12.93
1065.88	12.0855
1067.53	12.2132
1069.17	12.6956
1070.81	12.9658
1072.45	14.2031
1074.1	14.6812
1075.74	16.2247
1077.38	16.4482
1079.02	17.5184
1080.66	19.5032
1082.3	20.8508
1083.94	21.9496
1085.58	23.9746
1087.22	25.4256
1088.86	27.9589
1090.5	30.5173
1092.14	32.2528
1093.78	33.67
1095.42	34.8855
1097.05	35.9398
1098.69	36.7971
1100.33	36.6815
1101.96	37.4324
1103.6	37.6442
1105.24	38.0878
1106.87	38.7536
1108.51	38.1914
1110.14	37.5166
1111.78	37.3055
1113.41	36.7711
1115.05	35.7611
1116.68	36.0039
1118.31	34.629
1119.95	33.6016
1121.58	31.227
1123.21	30.082
1124.85	28.3157
1126.48	26.1288
1128.11	23.1721
1129.74	21.381
1131.37	18.452
1133	16.4528
1134.63	14.5108
1136.26	12.5084
1137.89	9.62167
1139.52	6.41035
1141.15	3.73976
1142.78	0.639397
1144.41	0.664966
1146.04	0.912529
1147.66	1.17992
1149.29	1.55465
1150.92	1.27901
1152.55	1.40405
1154.17	1.259
1155.8	0.957997
1157.43	0.463269
1159.05	-0.719576
1160.68	-1.63044
1162.3	-1.64671
1163.93	-0.855562
1165.55	-1.22616
1167.17	-0.0582966
1168.8	0.781012
1170.42	2.68388
1172.05	3.4583
1173.67	3.35122
1175.29	4.35927
1176.91	5.25892
1178.54	5.08672
1180.16	5.99515
1181.78	6.46009
1183.4	7.59388
1185.02	8.73426
1186.64	10.2731
1188.26	10.8364
1189.88	11.4185
1191.5	12.6001
1193.12	13.6395
1194.74	15.0367
1196.36	16.3196
1197.97	16.672
1199.59	17.3126
1201.21	18.0053
1202.83	19.5676
1204.44	22.1297
1206.06	23.1361
1207.68	24.3694
1209.29	26.5908
1210.91	29.0617
1212.52	30.4075
1214.14	32.714
1215.75	33.9956
1217.37	35.7076
1218.98	38.3616
1220.59	40.0325
1222.21	42.0367
1223.82	43.9214
1225.43	46.9602
1227.05	47.5623
1228.66	49.5957
1230.27	50.5145
1231.88	52.4152
1233.49	53.3715
1235.1	53.5493
1236.72	54.8483
1238.33	55.385
1239.94	56.5986
1241.55	57.3629
1243.16	58.6186
1244.76	58.8319
1246.37	59.1682
1247.98	60.1364
1249.59	60.4343
1251.2	60.6544
1252.8	60.8814
1254.41	61.0932
1256.02	61.3101
1257.62	61.3347
1259.23	62.1126
1260.84	62.6119
1262.44	63.0944
1264.05	62.8837
1265.66	62.6198
1267.26	63.1396
1268.86	63.0602
1270.47	63.5785
1272.07	64.4176
1273.67	64.7024
1275.28	64.5607
1276.88	64.9241
1278.48	65.333
1280.09	65.7674
1281.69	67.092
1283.29	69.3493
1284.89	69.6503
1286.49	70.7347
1288.09	71.1852
1289.69	72.8995
1291.29	73.8336
1292.89	74.0076
1294.49	75.6939
1296.09	75.8521
1297.69	76.4582
1299.29	78.4426
1300.89	78.7457
1302.49	79.6942
1304.08	80.3728
1305.68	80.4815
1307.28	80.9818
1308.88	81.9172
1310.47	82.1485
1312.07	83.1645
1313.66	82.8402
1315.26	83.5084
1316.85	84.9329
1318.45	84.1629
1320.04	83.2109
1321.64	82.8119
1323.23	82.2125
1324.83	81.2518
1326.42	81.4321
1328.01	80.0668
1329.61	80.6432
1331.2	80.3052
1332.79	79.8965
1334.38	79.3305
1335.97	77.9723
1337.56	77.2476
1339.16	76.1239
1340.75	74.6982
1342.34	74.0793
1343.93	72.8829
1345.52	72.0138
1347.11	71.5631
1348.7	70.3872
1350.29	68.8438
1351.87	68.3476
1353.46	66.577
1355.05	65.6802
1356.64	66.0004
1358.22	65.3375
1359.81	63.6012
1361.4	63.3695
1362.98	61.678
1364.57	60.3867
1366.16	59.6377
1367.74	57.8245
1369.33	57.0423
1370.91	56.5927
1372.5	53.863
1374.08	52.467
1375.67	50.68
1377.25	50.0856
1378.83	49.7937
1380.41	47.7891
1382	46.7351
1383.58	46.0315
1385.16	44.7954
1386.74	43.3061
1388.33	42.7757
1389.91	42.6754
1391.49	42.4723
1393.07	41.9593
1394.65	41.7021
1396.23	40.3504
1397.81	39.4936
1399.39	39.1288
1400.97	38.2215
1402.55	37.137
1404.13	38.1959
1405.7	38.6269
1407.28	38.8059
1408.86	39.8636
1410.44	39.337
1412.01	39.4293
1413.59	40.6478
1415.17	42.2147
1416.74	44.5119
1418.32	45.7747
1419.89	47.8366
1421.47	50.293
1423.04	52.6721
1424.62	55.3672
1426.19	59.0403
1427.77	63.2025
1429.34	66.1949
1430.91	69.9786
1432.49	72.6933
1434.06	76.1423
1435.63	78.265
1437.2	79.419
1438.78	81.0194
1440.35	83.794
1441.92	85.3334
1443.49	86.8974
1445.06	88.2195
1446.63	89.411
1448.2	89.3361
1449.77	89.5368
1451.34	87.6138
1452.91	87.6221
1454.48	86.6848
1456.05	85.4318
1457.62	84.5041
1459.18	82.5098
1460.75	81.0966
1462.32	78.8093
1463.89	76.05
1465.45	73.7608
1467.02	72.6452
1468.59	69.5936
1470.15	66.5175
1471.72	62.8774
1473.28	59.5552
1474.85	56.1806
1476.41	53.1448
1477.98	49.7183
1479.54	44.8151
1481.1	42.7505
1482.67	40.1562
1484.23	36.2321
1485.79	33.2589
1487.36	30.1212
1488.92	27.8015
1490.48	25.5093
1492.04	24.0003
1493.61	22.3325
1495.17	20.296
1496.73	18.2732
1498.29	17.5061
1499.85	17.7545
1501.41	16.9452
1502.97	16.8283
1504.53	17.0971
1506.09	16.8041
1507.65	15.903
1509.2	16.567
1510.76	16.5758
1512.32	16.7686
1513.88	16.4593
1515.43	16.6572
1516.99	17.0623
1518.55	17.0231
1520.1	17.0932
1521.66	16.6563
1523.22	17.3112
1524.77	16.8664
1526.33	15.9417
1527.88	17.1634
1529.44	17.9061
1530.99	19.2291
1532.54	19.7968
1534.1	20.4883
1535.65	21.4309
1537.21	21.2512
1538.76	23.1161
1540.31	24.1264
1541.86	25.2701
1543.42	26.7744
1544.97	28.6419
1546.52	30.0027
1548.07	32.1156
1549.62	34.0642
1551.17	35.9454
1552.72	38.2077
1554.27	39.2788
1555.82	41.1089
1557.37	42.3329
1558.92	45.3199
1560.47	46.0739
1562.02	48.3315
1563.56	49.6763
1565.11	50.9384
1566.66	52.4148
1568.21	53.29
1569.75	55.5814
1571.3	57.4991
1572.85	59.1148
1574.39	60.3675
1575.94	62.1132
1577.49	64.0776
1579.03	64.7989
1580.57	66.5083
1582.12	68.1949
1583.66	69.4178
1585.21	70.6231
1586.75	71.1275
1588.3	70.8014
1589.84	71.6653
1591.38	71.6227
1592.92	71.9094
1594.47	71.4116
1596.01	72.0601
1597.55	71.6063
1599.09	71.2402
1600.63	71.4091
1602.17	70.3467
1603.71	69.3194
1605.25	68.8894
1606.79	67.9789
1608.33	66.1679
1609.87	64.6764
1611.41	63.5644
1612.95	62.2798
1614.49	61.9111
1616.03	62.1192
1617.57	61.3682
1619.1	60.3804
1620.64	60.664
1622.18	61.0403
1623.72	61.5416
1625.25	61.4848
1626.79	61.7273
1628.32	63.0927
1629.86	63.6366
1631.39	63.7061
1632.93	64.8798
1634.46	65.4589
1636	66.777
1637.53	67.3855
1639.07	68.9747
1640.6	69.9364
1642.13	71.1884
1643.67	71.8385
1645.2	72.9842
1646.73	75.4709
1648.26	76.117
1649.8	77.0963
1651.33	78.4753
1652.86	79.9761
1654.39	81.3141
1655.92	81.5194
1657.45	82.1089
1658.98	82.5534
1660.51	82.3136
1662.04	82.1308
1663.57	82.1299
1665.1	82.3793
1666.63	82.4306
1668.16	82.0015
1669.68	81.2144
1671.21	79.7318
1672.74	79.2378
1674.27	77.3678
1675.79	76.1222
1677.32	73.3902
1678.85	70.5839
1680.37	67.6938
1681.9	64.9526
1683.42	62.6295
1684.95	59.4304
1686.47	56.7034
1688	53.8623
1689.52	50.1541
1691.05	47.3616
1692.57	44.4915
1694.09	41.1612
1695.62	37.9179
1697.14	35.6881
1698.66	33.0119
1700.18	29.8869
1701.71	26.6187
1703.23	25.1125
1704.75	23.3872
1706.27	21.0557
1707.79	19.0838
1709.31	17.2788
1710.83	15.9378
1712.35	14.2354
1713.87	12.4382
1715.39	10.8506
1716.91	9.60374
1718.43	7.86885
1719.95	6.74189
1721.47	6.62314
1722.99	6.09354
1724.5	4.68093
1726.02	4.62414
1727.54	4.4791
1729.06	3.82304
1730.57	3.05039
1732.09	2.37541
1733.61	1.91872
1735.12	1.98208
1736.64	1.7408
1738.15	2.42244
1739.67	2.76269
1741.18	2.48015
1742.7	2.13506
1744.21	2.34268
1745.72	2.20608
1747.24	1.88505
1748.75	2.72494
1750.26	2.34678
1751.77	2.24555
1753.29	1.90372
1754.8	1.81507
1756.31	1.66382
1757.82	1.1532
1759.33	1.28531
1760.84	0.351011
1762.36	-0.182402
1763.87	-0.892452
1765.38	-1.5488
1766.89	-1.08112
1768.4	-0.953484
1769.91	-1.53553
1771.41	-1.68226
1772.92	-1.88992
1774.43	-2.36622
1775.94	-2.203
1777.45	-1.9711
1778.95	-1.39132
1780.46	-0.973623
1781.97	-0.403763
1783.48	-0.917522
1784.98	-0.716112
1786.49	-0.450326
1787.99	-0.633688
1789.5	0.249158
1791.01	0.81809
1792.51	1.43685
1794.01	2.03224
1795.52	2.61937
1797.02	3.35139
1798.53	3.46592
1800.03	3.83838
1801.53	4.42497
1803.04	4.95668
1804.54	5.06572
1806.04	5.23488
1807.54	5.45431
1809.05	4.76878
1810.55	5.60551
1812.05	5.51322
1813.55	5.67747
1815.05	5.51347
1816.55	5.72554
1818.05	6.28633
1819.55	7.61272
1821.05	8.31076
1822.55	8.13286
1824.05	8.77493
1825.55	8.43689
1827.05	8.27848
1828.55	7.74868
1830.04	7.31634
1831.54	6.98417
1833.04	6.70894
1834.54	7.1584
1836.03	7.24076
1837.53	7.49796
1839.03	7.14444
1840.52	7.21744
1842.02	6.81027
1843.51	6.31073
1845.01	6.09084
1846.5	5.92596
1848	6.11849
1849.49	6.46236
1850.99	6.69895
1852.48	7.1907
1853.97	7.34184
1855.47	7.89671
1856.96	7.81599
1858.45	8.10923
1859.94	9.03086
1861.44	9.00057
1862.93	9.36513
1864.42	9.83274
1865.91	9.89416
1867.4	9.97477
1868.89	10.9777
1870.38	11.5857
1871.87	11.7896
1873.36	11.9623
1874.85	12.4435
1876.34	14.0222
1877.83	14.2929
1879.32	14.5101
1880.81	14.8272
1882.3	15.1737
1882.57	15.5202
1884.07	16.5283
1885.56	15.7945
1887.06	16.3123
1888.55	16.8325
1890.04	17.4547
1891.54	17.438
1893.03	17.3177
1894.52	16.378
1896.02	15.6121
1897.51	15.0798
1899	14.9159
1900.49	13.8947
1901.98	13.4906
1903.47	13.5479
1904.96	13.8876
1906.45	13.7768
1907.94	14.072
1909.43	14.2148
1910.92	14.3139
1912.41	14.2249
1913.9	13.9486
1915.39	13.78
1916.88	14.1802
1918.37	14.0492
1919.85	14.149
1921.34	14.3411
1922.83	14.6781
1924.32	14.6853
1925.8	14.859
1927.29	14.6759
1928.78	14.427
1930.26	13.6147
1931.75	13.9415
1933.23	13.8761
1934.72	13.5639
1936.2	14.1862
1937.69	14.5336
1939.17	14.9058
1940.66	15.4549
1942.14	16.6076
1943.63	16.69
1945.11	16.7814
1946.59	17.7723
1948.07	18.5296
1949.56	19.3781
1951.04	19.1654
1952.52	19.7311
1954	19.3682
1955.48	19.6084
1956.96	18.8685
1958.45	18.4697
1959.93	18.0458
1961.41	18.7419
1962.89	18.7839
1964.37	18.4367
1965.85	17.6691
1967.32	17.7176
1968.8	17.786
1970.28	17.7647
1971.76	17.9664
1973.24	18.452
1974.72	17.9579
1976.19	18.2429
1977.67	18.2738
1979.15	18.5697
1980.63	18.4327
1982.1	18.7226
1983.58	18.7795
1985.05	18.8987
1986.53	18.2792
1988	18.2152
1989.48	18.0667
1990.95	17.6013
1992.43	16.4287
1993.9	16.2554
1995.38	16.254
1996.85	16.2924
1998.32	15.5828
1999.8	14.7046
2001.27	14.2027
2002.74	13.678
2004.22	13.6432
2005.69	14.5327
2007.16	14.3505
2008.63	14.057
2010.1	14.1568
2011.57	14.3707
2013.04	14.0248
2014.51	14.8273
2015.98	15.6178
2017.45	15.7997
2018.92	16.4135
2020.39	16.4437
2021.86	16.5878
2023.33	16.8911
2024.8	16.6237
2026.27	16.4329
2027.74	16.8826
2029.2	17.6169
2030.67	17.4199
2032.14	17.6385
2033.61	17.6968
2035.07	17.8662
2036.54	18.1371
2038.01	18.1527
2039.47	18.9094
2040.94	18.9872
2042.4	18.9557
2043.87	18.8154
2045.33	19.084
2046.8	18.509
2048.26	18.1734
2049.72	18.2288
2051.19	17.9942
2052.65	18.4456
2054.12	18.5125
2055.58	18.2456
2057.04	17.812
2058.5	17.6518
2059.97	17.1429
2061.43	17.5334
2062.89	17.2492
2064.35	16.5689
2065.81	15.8976
2067.27	16.3088
2068.73	16.5594
2070.19	16.1963
2071.65	15.4954
2073.11	15.5086
2074.57	16.0246
2076.03	16.1579
2077.49	15.8077
2078.95	16.2421
2080.41	15.8693
2081.87	16.589
2083.32	16.9776
2084.78	16.7473
2086.24	16.459
2087.7	17.158
2089.15	16.9983
2090.61	16.9703
2092.07	16.7609
2093.52	16.8287
2094.98	17.8618
2096.43	18.0424
2097.89	18.2092
2099.34	18.9189
2100.8	18.9975
2102.25	18.3008
2103.71	18.2527
2105.16	17.5219
2106.61	17.9744
2108.07	18.408
2109.52	19.0172
2110.97	18.9314
2112.43	18.9298
2113.88	18.986
2115.33	19.7118
2116.78	19.6031
2118.23	20.429
2119.68	20.5786
2121.13	20.9241
2122.59	21.2138
2124.04	21.8858
2125.49	22.4343
2126.94	22.7866
2128.39	22.8338
2129.83	23.0177
2131.28	23.3646
2132.73	23.6353
2134.18	24.5076
2135.63	24.3468
2137.08	24.7959
2138.53	25.8557
2139.97	26.7911
2141.42	26.8367
2142.87	27.1377
2144.31	27.2544
2145.76	27.3777
2147.21	27.928
2148.65	28.4537
2150.1	29.3301
2151.54	31.1127
2152.99	31.1602
2154.43	32.1798
2155.88	32.1828
2157.32	32.2158
2158.77	32.956
2160.21	33.8638
2161.65	34.9645
2163.1	35.6873
2164.54	36.1142
2165.98	36.6235
2167.43	37.2305
2168.87	37.6744
2170.31	38.3167
2171.75	38.2387
2173.19	37.6061
2174.64	37.9216
2176.07	38.9607
2177.52	38.2506
2178.96	39.4953
2180.4	40.1866
2181.84	40.7647
2183.28	40.3357
2184.72	40.3606
2186.15	40.3259
2187.59	40.3405
2189.03	40.2624
2190.47	40.8488
2191.91	40.6858
2193.35	40.1689
2194.78	39.7443
2196.22	39.3127
2197.66	38.5997
2199.09	38.601
2200.53	37.5804
2201.97	36.894
2203.4	36.7324
2204.84	36.6252
2206.27	36.5114
2207.71	36.0586
2209.14	36.1039
2210.58	35.0177
2212.01	33.7464
2213.45	32.3463
2214.88	31.8055
2216.31	31.0708
2217.75	30.3102
2219.18	30.4812
2220.61	29.7167
2222.05	29.3606
2223.48	29.1995
2224.91	28.6145
2226.34	27.8956
2227.78	26.7233
2229.21	25.6011
2230.64	25.5299
2232.07	24.9313
2233.5	23.9931
2234.93	23.2881
2236.36	22.5773
2237.79	22.2948
2239.22	21.9886
2240.65	21.1345
2242.08	19.5836
2243.5	18.777
2244.93	18.3592
2246.36	17.8733
2247.79	18.0247
2249.22	17.099
2250.64	17.0685
2252.07	16.5484
2253.5	15.9568
2254.92	15.4961
2256.35	15.3707
2257.78	14.8903
2259.2	15.3065
2260.63	15.2786
2262.05	15.3111
2263.48	14.7054
2264.9	14.014
2266.33	14.4992
2267.75	14.9233
2269.18	15.0345
2270.6	14.7404
2272.02	14.1831
2273.45	14.6067
2274.87	14.8072
2276.29	14.5735
2277.71	14.3991
2279.14	14.4961
2280.56	14.1798
2281.98	13.6409
2283.4	13.7446
2284.82	13.5878
2286.24	13.8491
2287.66	14.245
2289.08	13.4716
2290.5	14.19
2291.92	13.4157
2293.34	13.6847
2294.76	13.1948
2296.18	12.7127
2297.6	12.1477
2299.02	12.09
2300.44	12.0521
2301.86	12.2383
2303.27	11.7101
2304.69	11.8737
2306.11	11.9824
2307.53	11.5057
2308.94	11.2622
2310.36	10.7823
2311.78	11.2021
2313.19	11.0502
2314.61	11.5102
2316.02	11.1165
2317.44	10.8349
2318.85	11.0986
2320.27	10.5904
2321.68	10.7562
2323.1	10.8111
2324.51	10.6673
2325.92	10.6685
2327.34	10.442
2328.75	10.3485
2330.16	11.1259
2331.58	11.0126
2332.99	11.0656
2334.4	11.0459
2335.81	11.2543
2337.23	11.3756
2338.64	10.8286
2340.05	10.3167
2341.46	10.1476
2342.87	10.0647
2344.28	10.1328
2345.69	9.74147
2347.1	9.85593
2348.51	9.70268
2349.92	9.56124
2351.33	9.44726
2352.74	9.4469
2354.15	9.61086
2355.55	9.62628
2356.96	9.60521
2358.37	9.75511
2359.78	9.0027
2361.19	9.21985
2362.59	8.81928
2364	9.74455
2365.41	10.1439
2366.81	10.8342
2368.22	11.0275
2369.62	10.831
2371.03	10.6165
2372.44	10.9053
2373.84	10.8698
2375.24	10.9046
2376.65	10.4793
2378.05	10.2949
2379.46	10.6101
2380.86	10.777
2382.26	11.3035
2383.67	10.9258
2385.07	10.6983
2386.47	10.2943
2387.88	10.4562
2389.28	10.0824
2390.68	10.2186
2392.08	10.3528
2393.48	10.4619
2394.89	10.4243
2396.29	10.2013
2397.69	9.60649
2399.09	9.63452
2400.49	9.42649
2401.89	9.32085
2403.29	8.66424
2404.69	7.67507
2406.09	6.6469
2407.48	5.77911
2408.88	5.24416
2410.28	4.456
2411.68	4.20535
2413.08	3.75883
2414.48	3.78056
2415.87	3.4774
2417.27	3.5081
2418.67	3.14214
2420.06	2.81654
2421.46	2.61608
2422.86	3.08635
2424.25	2.92415
2425.65	2.70401
2427.04	2.73213
2428.44	3.08154
2429.83	3.20979
2431.23	3.4331
2432.62	3.80469
2434.02	4.25513
2435.41	4.24001
2436.81	4.59224
2438.2	4.44008
2439.59	4.74264
2440.99	5.06007
2442.38	5.53008
2443.77	4.76292
2445.16	4.86663
2446.56	4.92477
2447.95	5.49406
2449.34	5.66543
2450.73	5.83311
2452.12	6.09659
2453.51	6.14273
2454.9	6.04331
2456.29	6.36745
2457.68	6.08957
2459.07	6.1579
2460.46	6.90298
2461.85	7.62621
2463.24	7.92067
2464.63	7.21232
2466.02	6.58154
2467.4	6.15661
2468.79	5.95869
2470.18	5.42702
2471.57	5.3467
2472.95	4.37326
2474.34	4.36417
2475.73	4.54016
2477.12	4.63828
2478.5	4.89747
2479.89	4.7017
2481.27	5.07935
2482.66	4.95973
2484.04	5.78913
2485.43	5.72464
2486.81	5.9035
2488.2	5.61975
2489.58	4.91349
2490.97	5.32604
2492.35	5.22039
2493.73	4.74745
2495.12	5.01693
2496.5	5.12815
2497.88	4.08948
2499.27	3.83415
2500.65	3.70497
2502.03	3.71312
2503.41	4.04757
2504.79	3.80619
2506.17	3.93528
2507.56	3.33906
2508.94	3.0907
2510.32	2.31475
2511.7	1.70013
2513.08	1.00736
2514.46	1.25537
2515.84	0.824938
2517.22	0.340267
2518.59	0.22505
2519.97	0.707508
2521.35	0.808837
2522.73	0.853679
2524.11	0.82136
2525.49	1.0624
2526.86	1.00669
2528.24	1.73661
2529.62	1.8165
2530.99	1.86922
2532.37	1.32017
2533.75	1.50117
2535.12	2.09773
2536.5	2.13117
2537.88	2.1842
2539.25	2.77977
2540.63	3.05122
2542	2.9681
2543.38	3.22167
2544.75	3.25525
2546.12	3.0869
2547.5	3.45008
2548.87	3.55175
2550.24	3.87176
2551.62	4.54694
2552.99	4.90527
2554.36	4.55487
2555.74	4.92815
2557.11	4.67225
2558.48	4.22795
2559.85	4.44739
2561.22	3.96927
2562.59	3.90721
2563.96	4.22977
2565.34	4.23708
2566.71	4.66385
2568.08	5.51127
2569.45	5.87929
2570.82	5.89107
2572.18	6.21018
2573.55	5.93628
2574.92	5.97081
2576.29	5.49504
2577.66	5.25908
2579.03	4.86756
2580.4	5.09477
2581.77	5.23275
2583.13	5.33709
2584.5	5.08132
2585.87	4.81244
2587.23	5.4311
2588.6	5.33191
2589.97	5.53195
2591.33	5.73124
2592.7	5.67549
2594.06	5.5363
2595.43	5.20908
2596.79	5.10816
2598.16	5.13061
2599.52	5.87532
2600.89	5.53446
2602.25	5.31117
2603.62	4.45772
2604.98	3.42604
2606.34	3.11094
2607.71	3.28115
2609.07	2.91304
2610.43	2.44835
2611.79	2.25314
2613.16	2.41126
2614.52	2.45044
2615.88	1.77405
2617.24	1.27629
2618.6	1.48099
2619.96	1.29102
2621.32	1.00376
2622.68	0.99112
2624.04	0.571422
2625.4	-0.121108
2626.76	-0.191924
2628.12	0.120415
2629.48	0.822017
2630.84	0.870044
2632.2	1.49144
2633.56	0.616816
2634.92	-0.0434787
2636.28	-0.372228
2637.63	0.0114389
2638.99	0.121043
2640.35	0.348105
2641.71	0.233315
2643.06	0.0341532
2644.42	0.280826
2645.77	0.487139
2647.13	0.729933
2648.49	0.902813
2649.84	1.24873
2651.2	1.17801
2652.55	1.32249
2653.91	1.3663
2655.26	1.43109
2656.62	1.63164
2657.97	1.90265
2659.33	1.74121
2660.68	2.33942
2662.03	2.90412
2663.39	3.73509
2664.74	4.81214
2666.09	5.09447
2667.44	6.02162
2668.8	6.08182
2670.15	6.62554
2671.5	7.26664
2672.85	7.54285
2674.2	7.54922
2675.55	7.75561
2676.91	7.69439
2678.26	8.04955
2679.61	8.65772
2680.96	8.58149
2682.31	8.06022
2683.66	7.49946
2685	8.44652
2686.35	8.93278
2687.7	9.1644
2689.05	9.79934
2690.4	10.1662
2691.75	10.6965
2693.1	10.7221
2694.44	11.1667
2695.79	10.8345
2697.14	10.5855
2698.49	9.94915
2699.83	10.1694
2701.18	9.74538
2702.52	10.6223
2703.87	11.1721
2705.22	11.6597
2706.56	12.4404
2707.91	12.2703
2709.25	11.9484
2710.6	11.981
2711.94	12.6269
2713.29	12.7147
2714.63	13.571
2715.97	13.6602
2717.32	14.2332
2718.66	14.0872
2720.01	14.0011
2721.35	14.3473
2722.69	15.0172
2724.03	16.0844
2725.38	16.5582
2726.72	16.8053
2728.06	17.5606
2729.4	17.3785
2730.74	17.2488
2732.08	16.7671
2733.42	16.4082
2734.76	16.5816
2736.1	16.4537
2737.44	15.7325
2738.78	15.4849
2740.12	15.4015
2741.46	14.9612
2742.8	15.0897
2744.14	15.6797
2745.48	15.7303
2746.82	15.4873
2748.16	15.5523
2749.49	15.7906
2750.83	16.0024
2752.17	16.1398
2753.51	16.3559
2754.84	16.1497
2756.18	15.7284
2757.52	15.668
2758.85	14.934
2760.19	14.1414
2761.53	14.2465
2762.86	13.8785
2764.2	14.295
2765.53	15.3859
2766.87	15.0577
2768.2	15.253
2769.54	15.3313
2770.87	15.2024
2772.2	15.4383
2773.54	15.7227
2774.87	14.5859
2776.2	14.4366
2777.54	14.7029
2778.87	15.2241
2780.2	14.9356
2781.53	15.214
2782.87	15.1518
2784.2	15.1267
2785.53	15.0514
2786.86	15.5249
2788.19	15.5675
2789.52	15.0817
2790.85	14.2198
2792.18	13.7608
2793.51	13.4049
2794.84	13.3893
2796.17	13.2018
2797.5	12.8288
2798.83	12.8238
2800.16	13.3036
2801.49	13.484
2802.82	13.8127
2804.15	13.9162
2805.47	14.4713
2806.8	14.9309
2808.13	15.426
2809.46	15.7279
2810.78	15.9142
2812.11	15.4959
2813.44	15.2915
2814.76	15.0444
2816.09	14.7723
2817.42	15.3725
2818.74	16.1126
2820.07	16.4688
2821.39	17.2004
2822.72	18.5762
2824.04	20.4808
2825.37	21.3576
2826.69	23.6333
2828.02	25.6562
2829.34	27.9538
2830.66	30.1713
2831.99	32.518
2833.31	34.2007
2834.63	36.9889
2835.96	38.9054
2837.28	41.0074
2838.6	44.051
2839.92	47.5054
2841.24	50.7485
2842.57	54.6826
2843.89	58.6217
2845.21	62.7585
2846.53	66.9955
2847.85	72.3558
2849.17	76.8404
2850.49	81.6971
2851.81	87.2458
2853.13	92.3809
2854.45	96.7212
2855.77	102.22
2857.09	107.902
2858.41	113.513
2859.72	118.93
2861.04	123.997
2862.36	129.387
2863.68	133.93
2865	139.254
2866.31	143.827
2867.63	147.955
2868.95	152.186
2870.26	156.074
2871.58	159.455
2872.9	162.811
2874.21	165.874
2875.53	168.244
2876.84	170.852
2878.16	173.589
2879.47	176.189
2880.79	178.615
2882.1	181.774
2883.42	184.773
2884.73	186.739
2886.05	188.708
2887.36	191.115
2888.67	193.623
2889.99	196.278
2891.3	198.245
2892.61	201.052
2893.92	203.164
2895.24	206.028
2896.55	208.774
2897.86	212.149
2899.17	215.301
2900.48	218.238
2901.79	222.024
2903.11	225.4
2904.42	230.779
2905.73	235.883
2907.04	241.15
2908.35	246.983
2909.66	253.558
2910.97	259.721
2912.27	266.327
2913.58	273.047
2914.89	278.786
2916.2	285.863
2917.51	291.624
2918.82	296.464
2920.13	301.63
2921.43	306.699
2922.74	310.965
2924.05	313.96
2925.35	317.469
2926.66	319.93
2927.97	322.09
2929.27	323.886
2930.58	324.84
2931.89	325.172
2933.19	324.43
2934.5	324.201
2935.8	323.282
2937.11	321.842
2938.41	320.001
2939.72	317.937
2941.02	314.632
2942.32	311.482
2943.63	307.597
2944.93	303.392
2946.24	298.77
2947.54	294.359
2948.84	289.259
2950.14	283.564
2951.45	278.8
2952.75	273.113
2954.05	268.202
2955.35	262.675
2956.65	257.066
2957.95	251.53
2959.26	246.391
2960.56	240.798
2961.86	235.572
2963.16	231.036
2964.46	225.919
2965.76	220.606
2967.06	216.021
2968.36	211.579
2969.66	208.285
2970.96	204.961
2972.25	201.135
2973.55	197.125
2974.85	193.063
2976.15	189.02
2977.45	184.866
2978.74	180.506
2980.04	175.828
2981.34	171.627
2982.64	166.487
2983.93	161.506
2985.23	156.927
2986.52	151.944
2987.82	146.559
2989.12	141.374
2990.41	136.265
2991.71	130.821
2993	125.66
2994.3	120.229
2995.59	114.874
2996.89	110.189
2998.18	105.069
2999.48	101.053
3000.77	96.6893
3002.06	92.1677
3003.36	87.6905
3004.65	83.451
3005.94	78.8166
3007.23	75.2738
3008.53	71.2175
3009.82	67.8624
3011.11	63.8606
3012.4	60.691
3013.69	57.8256
3014.99	55.0447
3016.28	52.5269
3017.57	50.3261
3018.86	48.2493
3020.15	46.3112
3021.44	44.7404
3022.73	42.7794
3024.02	41.1673
3025.31	39.6743
3026.6	38.794
3027.89	38.2809
3029.18	36.9915
3030.46	36.1088
3031.75	36.1953
3033.04	36.6976
3034.33	37.314
3035.62	38.1044
3036.9	38.1592
3038.19	39.2066
3039.48	40.2921
3040.76	40.8938
3042.05	41.1312
3043.34	42.5342
3044.62	43.4483
3045.91	44.5599
3047.19	45.3089
3048.48	46.1023
3049.77	46.6832
3051.05	46.8782
3052.34	46.9619
3053.62	46.9084
3054.9	46.6149
3056.19	46.9504
3057.47	46.8484
3058.76	46.6028
3060.04	46.4873
3061.32	45.8046
3062.61	45.0422
3063.89	44.6666
3065.17	43.949
3066.45	42.5696
3067.74	41.3365
3069.02	40.1736
3070.3	38.9567
3071.58	37.7004
3072.86	36.172
3074.14	34.4687
3075.42	32.5081
3076.7	31.1514
3077.99	29.6596
3079.26	28.3818
3080.54	26.9819
3081.82	25.2135
3083.1	23.0348
3084.38	21.5135
3085.66	19.8348
3086.94	17.9788
3088.22	16.8362
3089.5	15.2437
3090.78	14.2465
3092.05	14.3467
3093.33	13.3437
3094.61	13.0689
3095.89	12.6544
3097.16	12.4299
3098.44	12.2337
3099.72	11.5869
3100.99	11.0112
3102.27	10.6367
3103.54	9.74186
3104.82	9.45115
3106.1	9.52421
3107.37	9.53389
3108.65	8.95437
3109.92	9.21564
3111.2	8.38087
3112.47	8.27577
3113.74	7.72761
3115.02	7.35562
3116.29	7.10447
3117.56	6.59899
3118.84	6.64177
3120.11	6.48198
3121.38	6.08716
3122.66	5.65882
3123.93	5.26543
3125.2	5.13492
3126.47	4.90949
3127.74	4.7759
3129.01	4.12052
3130.29	3.45311
3131.56	3.20276
3132.83	2.75463
3134.1	2.21994
3135.37	1.70927
3136.64	1.3197
3137.91	0.766105
3139.18	0.449614
3140.45	0.408327
3141.72	0.430717
3142.99	0.179291
3144.26	-0.0260572
3145.52	0.110529
3146.79	-0.0599539
3148.06	0.138615
3149.33	0.462161
