#Acq. time (s)=	45
#Accumulations=	2
#Range (cm-¹)=	200...3150
#Windows=	2
#Auto scanning=	Off
#Autofocus=	Off
#Macrospot=	Off
#AutoExposure=	Off
#Spike filter=	Multiple accum.
#Delay time (s)=	0
#Binning=	1
#Readout mode=	Signal
#DeNoise=	Off
#ICS correction=	On
#Dark correction=	Off
#Inst. Process=	Off
#Detector Gain=	Best Dynamic Range
#Detector ADC=	20 kHz       
#Detector temperature (°C)=	-69.85
#Instrument=	LabRAM HR Evol
#Detector=	Synapse
#Objective=	x100
#Grating=	600 gr/mm
#ND Filter=	100%
#Laser (nm)=	532 
#Hole=	100.021
#Range=	Auto
#Laser Pol.=	No
#Raman. Pol.=	No
#Laser Pol. (°)=	-0.0007625
#Raman Pol. (°)=	89.9995
#Collection=	Microscope
#StageXY=	Marzhauser
#StageZ=	Marzhauser
#X (µm)=	4714
#Y (µm)=	-7707.6
#Z (µm)=	584.35
#Full time(mm:ss)=	3:18
#Project=	
#Sample=	
#Site=	
#Title=	Thy_30_10_44_2x_45s_532 nm_x100_100%_600 gr_mm
#Remark=	
#Date=	30.06.2022 14:34
#Acquired=	30.06.2022 14:34:44
#Base:Fit=	10.08.2022 09:58:11
#Base:Sub=	10.08.2022 09:58:44
#Filter:Polynom=	16.08.2022 10:22:53
#AxisType[0]=Intens
#AxisUnit[0]=Cnt
#AxisType[1]=Spectr
#AxisUnit[1]=1/cm
200.533	10.8044
202.348	10.1042
204.162	9.87905
205.976	8.59932
207.792	7.18174
209.605	6.08392
211.418	4.89672
213.23	4.13132
215.044	4.45503
216.856	3.70334
218.667	3.18585
220.478	2.38057
222.289	2.36598
224.102	3.35818
225.912	2.68554
227.721	2.77413
229.531	3.43817
231.34	3.91355
233.148	4.02912
234.956	3.75992
236.766	4.15709
238.574	3.65174
240.381	3.75192
242.188	3.40075
243.994	4.62476
245.801	4.89563
247.606	5.04722
249.412	5.52039
251.217	6.14125
253.024	6.37623
254.828	7.21506
256.632	7.1463
258.436	8.0449
260.239	7.60717
262.042	8.38104
263.845	9.30683
265.647	10.4141
267.449	11.2064
269.25	11.4747
271.052	12.9062
272.852	13.8887
274.653	14.4768
276.453	15.3309
278.253	15.1175
280.052	15.6336
281.852	14.8983
283.65	15.5303
285.449	15.3837
287.247	15.1899
289.044	15.2762
290.842	15.1118
292.639	15.2259
294.436	15.2347
296.232	16.3287
298.028	17.0979
299.821	17.3697
301.617	17.9196
303.412	18.1211
305.206	18.2138
307	17.544
308.794	17.7139
310.588	17.8638
312.381	18.7034
314.172	18.4372
315.964	17.7322
317.756	17.9147
319.548	17.83
321.34	17.4556
323.131	17.4256
324.921	17.5882
326.71	17.1334
328.5	16.061
330.29	16.0145
332.079	15.8326
333.868	15.9886
335.654	14.7363
337.443	13.4207
339.231	12.9523
341.018	12.3888
342.804	12.1204
344.591	11.8217
346.377	11.7693
348.163	11.5375
349.947	10.4653
351.733	10.4455
353.518	10.7631
355.303	10.1857
357.085	9.48004
358.869	7.90361
360.653	7.54942
362.435	6.2885
364.218	5.66199
366.001	5.92544
367.781	5.24744
369.563	4.47369
371.345	3.88936
373.124	4.54006
374.905	4.95927
376.686	5.10737
378.464	4.72914
380.244	4.79835
382.022	5.58207
383.801	5.9833
385.58	6.52274
387.357	6.72399
389.135	6.27363
390.911	5.84744
392.689	5.5337
394.466	6.13146
396.241	5.97141
398.018	6.08603
399.792	6.55649
401.568	7.0011
403.341	7.72196
405.117	8.86658
406.889	9.28325
408.664	9.292
410.436	10.0392
412.21	10.3453
413.981	10.1734
415.755	9.44414
417.525	9.79969
419.298	10.6245
421.068	10.4493
422.84	9.88143
424.609	9.14843
426.38	8.64818
428.149	8.88166
429.919	8.68683
431.688	8.19817
433.455	8.00636
435.225	8.03518
436.992	7.93621
438.76	7.17479
440.527	7.33046
442.293	7.55309
444.06	7.56829
445.826	6.94695
447.593	6.43273
449.357	6.41479
451.122	6.10614
452.888	6.71645
454.651	7.18704
456.415	7.5473
458.18	7.78163
459.942	7.67628
461.705	8.24333
463.469	7.70702
465.23	7.55167
466.991	7.52997
468.752	7.84084
470.515	7.77344
472.275	7.34621
474.035	7.66195
475.797	7.16722
477.556	6.76049
479.315	7.15351
481.073	7.28619
482.834	7.91914
484.592	8.57576
486.349	9.88083
488.106	10.2172
489.863	11.1776
491.622	11.4578
493.378	11.4049
495.134	11.6904
496.889	11.79
498.645	12.9326
500.401	13.4054
502.156	13.6326
503.91	13.272
505.664	13.6793
507.417	13.3202
509.171	13.2881
510.923	13.5811
512.678	13.8879
514.43	14.5291
516.182	14.7381
517.933	14.8899
519.684	14.7577
521.435	15.1031
523.186	15.6091
524.936	15.8399
526.686	15.0931
528.435	15.7052
530.184	15.8413
531.933	15.9138
533.682	15.588
535.43	15.3692
537.18	15.4438
538.927	16.4684
540.674	16.2027
542.421	15.5723
544.167	14.8032
545.913	13.825
547.659	13.4594
549.403	13.605
551.148	13.2735
552.893	13.051
554.637	12.1198
556.381	11.5936
558.125	11.0695
559.868	10.9888
561.611	10.3605
563.354	9.4177
565.097	9.99166
566.839	9.61838
568.581	8.92353
570.322	9.17113
572.063	8.78319
573.802	8.32247
575.542	7.29029
577.283	6.95307
579.022	5.97626
580.762	5.96425
582.501	4.99884
584.24	4.71871
585.976	4.28057
587.714	3.09507
589.452	2.26211
591.19	1.93323
592.927	1.70145
594.663	1.8248
596.398	2.45675
598.134	1.5978
599.87	1.09161
601.605	0.905137
603.338	1.13104
605.073	0.949256
606.808	0.464008
608.542	0.610682
610.274	0.933629
612.007	0.527961
613.74	0.422986
615.473	1.20456
617.204	2.6598
618.936	2.3803
620.668	2.2227
622.397	2.5222
624.128	2.7784
625.859	3.17399
627.588	2.15365
629.318	2.8884
631.048	4.25949
632.775	4.92108
634.505	5.82073
636.233	6.17422
637.96	6.25289
639.688	6.50766
641.416	6.25544
643.142	6.33202
644.869	6.98791
646.594	7.17203
648.32	7.15523
650.045	6.98724
651.771	7.75276
653.496	7.44021
655.219	8.19014
656.944	8.99009
658.667	9.15468
660.391	9.57016
662.113	9.57015
663.837	9.99064
665.558	10.5986
667.281	11.481
669.002	12.1327
670.724	12.7161
672.444	12.8417
674.166	13.8222
675.885	15.1368
677.606	16.0568
679.325	17.0737
681.045	18.9714
682.763	19.9247
684.483	20.9373
686.2	22.1006
687.917	23.7941
689.636	24.2324
691.352	24.0244
693.07	24.2978
694.786	25.2773
696.501	26.3566
698.219	27.2609
699.933	28.1622
701.65	29.7746
703.364	30.9457
705.078	30.8422
706.793	32.3504
708.506	33.2933
710.219	32.5096
711.934	33.8565
713.646	34.4753
715.358	35.4806
717.071	36.3385
718.782	36.331
720.493	37.1657
722.204	37.6983
723.916	38.1393
725.626	39.5198
727.336	39.6116
729.045	40.2535
730.756	41.5368
732.464	41.3382
734.173	42.0781
735.881	42.4432
737.59	43.0049
739.297	42.9409
741.004	43.9873
742.711	44.0345
744.417	44.6966
746.125	45.6423
747.831	46.2297
749.537	47.0418
751.242	47.9165
752.946	48.731
754.651	49.2109
756.357	49.9083
758.061	51.2427
759.764	52.8572
761.467	53.1317
763.17	53.803
764.872	54.9824
766.575	55.5654
768.276	55.8022
769.978	56.265
771.679	56.1258
773.382	57.2625
775.083	57.0804
776.783	57.6785
778.483	58.6817
780.182	59.4018
781.882	59.6736
783.581	60.0189
785.279	61.0123
786.978	62.2196
788.676	62.2172
790.373	62.3451
792.071	62.7797
793.768	63.3861
795.464	63.4924
797.161	64.1443
798.857	64.7655
800.552	64.9662
802.248	66.3033
803.941	66.069
805.636	67.1167
807.33	67.7807
809.024	68.4877
810.718	68.5331
812.412	67.6351
814.105	66.9979
815.798	66.8612
817.49	65.6228
819.183	64.9007
820.873	63.5641
822.564	63.0069
824.256	63.1081
825.947	63.3082
827.637	62.3589
829.328	61.9968
831.016	60.8326
832.705	60.8605
834.395	60.3433
836.084	59.8425
837.772	58.9947
839.459	58.6534
841.147	57.3058
842.835	56.2461
844.522	55.8065
846.209	54.2426
847.894	53.2941
849.581	51.8921
851.267	50.8508
852.953	50.5575
854.637	49.8674
856.322	48.6252
858.007	48.3146
859.689	46.8497
861.374	45.6083
863.058	45.4817
864.739	44.8853
866.423	44.6813
868.106	44.9778
869.787	44.6084
871.469	43.5936
873.151	42.6454
874.831	42.5731
876.512	42.3465
878.193	41.9939
879.872	41.1604
881.553	41.0944
883.231	41.5874
884.911	41.4433
886.591	41.4574
888.268	41.259
889.947	41.444
891.623	40.925
893.302	40.9874
894.978	40.5352
896.656	40.7467
898.331	40.5594
900.008	40.1579
901.683	39.2927
903.359	39.4633
905.033	39.5321
906.709	39.9945
908.383	39.5662
910.058	39.2785
911.731	38.9619
913.405	39.0949
915.078	38.9343
916.752	39.5279
918.423	38.7929
920.096	38.4293
921.768	38.2542
923.438	38.2437
925.111	37.8889
926.781	38.2793
928.452	38.3021
930.122	38.0042
931.791	37.6309
933.462	36.7317
935.13	37.6213
936.799	37.7513
938.468	36.7537
940.136	35.575
941.803	35.8059
943.472	34.7596
945.139	34.0451
946.805	34.0934
948.473	32.4624
950.139	32.8645
951.804	31.9512
953.471	30.6493
955.136	29.7045
956.801	29.4136
958.465	29.0857
960.131	28.9494
961.794	28.2133
963.458	28.0857
965.12	27.1646
966.785	26.5108
968.447	27.0833
970.109	26.3543
971.771	26.613
973.432	26.1795
975.095	26.5347
976.756	26.6172
978.417	26.7676
980.077	26.3362
981.737	25.9022
983.396	25.0799
985.057	24.6565
986.716	24.5337
988.375	23.3472
990.033	23.1405
991.691	22.7215
993.349	22.8375
995.006	22.2588
996.663	22.2789
998.32	21.7486
999.976	22.0296
1001.63	21.6602
1003.29	21.8695
1004.95	22.1892
1006.6	22.0234
1008.26	22.2004
1009.91	22.228
1011.56	22.6889
1013.22	22.3736
1014.87	21.6156
1016.53	20.4651
1018.18	20.921
1019.83	19.6484
1021.48	18.0986
1023.14	17.8996
1024.79	17.2484
1026.44	15.8819
1028.09	15.4444
1029.74	15.3893
1031.39	14.9345
1033.04	15.7661
1034.69	14.3954
1036.34	13.5895
1037.99	12.9047
1039.64	13.2709
1041.29	13.6303
1042.94	13.7245
1044.58	13.2896
1046.23	13.0484
1047.88	13.0869
1049.52	13.6164
1051.17	13.5282
1052.82	13.4645
1054.46	14.2376
1056.11	14.5782
1057.75	15.7558
1059.4	16.3724
1061.04	16.4423
1062.69	16.2556
1064.33	16.224
1065.98	15.6342
1067.62	16.0044
1069.26	15.389
1070.9	14.7314
1072.55	15.2681
1074.19	15.6861
1075.83	15.283
1077.47	15.0776
1079.11	15.4728
1080.76	15.1157
1082.4	14.4922
1084.04	14.0932
1085.68	14.5437
1087.32	14.3302
1088.95	14.6327
1090.59	14.9811
1092.23	14.9224
1093.87	14.2746
1095.51	13.7908
1097.15	13.2971
1098.78	13.468
1100.42	13.8474
1102.06	13.2257
1103.69	12.633
1105.33	12.7611
1106.97	12.2289
1108.6	12.9707
1110.24	12.9253
1111.87	12.8796
1113.51	12.4289
1115.14	12.2998
1116.77	11.747
1118.41	11.1403
1120.04	10.8231
1121.67	11.2458
1123.31	11.269
1124.94	10.8823
1126.57	10.071
1128.2	9.94702
1129.83	10.7849
1131.47	10.9358
1133.1	11.3118
1134.72	12.6645
1136.36	13.7652
1137.98	13.6884
1139.62	13.4806
1141.24	13.1066
1142.87	11.8824
1144.5	11.72
1146.13	11.3698
1147.76	10.3892
1149.38	9.59666
1151.01	8.89341
1152.64	8.94351
1154.27	8.08475
1155.89	7.51089
1157.52	6.92533
1159.14	6.42339
1160.77	6.05205
1162.39	5.23155
1164.02	4.64725
1165.64	5.53065
1167.27	4.90418
1168.89	4.95997
1170.51	4.76807
1172.14	4.55245
1173.76	4.5044
1175.38	4.64377
1177	4.81304
1178.63	5.06799
1180.25	5.68212
1181.87	5.41923
1183.49	5.18376
1185.11	6.06203
1186.73	6.9304
1188.35	7.15514
1189.97	7.93812
1191.59	7.84766
1193.21	8.19898
1194.83	8.28542
1196.45	8.52263
1198.07	8.81882
1199.68	9.86354
1201.3	10.4613
1202.92	11.0735
1204.53	11.7297
1206.15	12.2269
1207.77	13.8829
1209.38	15.6083
1211	16.5692
1212.62	16.5387
1214.23	18.2594
1215.84	20.1762
1217.46	21.3241
1219.07	21.5093
1220.69	22.7081
1222.3	23.8028
1223.91	23.7105
1225.53	25.7449
1227.14	26.9154
1228.75	27.5386
1230.36	29.0145
1231.97	30.1077
1233.59	29.9686
1235.2	30.516
1236.81	31.8453
1238.42	33.5143
1240.03	34.8025
1241.64	35.4858
1243.25	36.6294
1244.85	37.908
1246.46	38.9997
1248.07	39.264
1249.68	40.655
1251.29	41.2094
1252.9	42.3781
1254.5	42.751
1256.11	43.5858
1257.72	43.9304
1259.32	44.5597
1260.93	44.5963
1262.54	44.7221
1264.14	45.1659
1265.75	45.8889
1267.35	44.8094
1268.96	44.8285
1270.56	45.3392
1272.16	44.8672
1273.77	44.7382
1275.37	45.066
1276.97	44.8261
1278.57	45.0327
1280.18	45.0978
1281.78	44.4915
1283.38	44.7107
1284.98	45.364
1286.58	45.5026
1288.18	45.5029
1289.78	44.7611
1291.38	44.2048
1292.99	43.9988
1294.58	45.225
1296.18	45.0389
1297.78	44.9457
1299.38	45.4398
1300.98	45.493
1302.58	45.4417
1304.17	46.1918
1305.77	47.1428
1307.37	47.2342
1308.97	47.0838
1310.56	47.6925
1312.16	47.1391
1313.76	47.5525
1315.35	48.6092
1316.95	49.5162
1318.54	51.0426
1320.14	51.5414
1321.73	51.7046
1323.32	52.6842
1324.92	52.1275
1326.51	51.8821
1328.1	51.3464
1329.7	50.8472
1331.29	50.3093
1332.88	50.3544
1334.47	49.6973
1336.07	49.5381
1337.66	48.5154
1339.25	48.0479
1340.84	47.7026
1342.43	47.6981
1344.02	47.2694
1345.61	46.2959
1347.2	45.5031
1348.79	45.0224
1350.37	44.3209
1351.96	43.5117
1353.55	42.7464
1355.14	42.2759
1356.73	40.6218
1358.31	41.3217
1359.9	41.2719
1361.49	40.5434
1363.07	39.7984
1364.66	38.9263
1366.25	37.9926
1367.83	37.1446
1369.42	36.5157
1371	35.8226
1372.59	35.358
1374.17	35.085
1375.75	35.0805
1377.34	35.0222
1378.92	34.2545
1380.5	33.2162
1382.09	33.7545
1383.67	33.7847
1385.25	32.9666
1386.83	32.652
1388.42	31.977
1390	31.2545
1391.58	31.3251
1393.16	31.5761
1394.74	31.8741
1396.32	32.1215
1397.9	31.9632
1399.48	30.9148
1401.06	30.6499
1402.64	30.354
1404.21	30.4148
1405.79	30.4272
1407.37	29.7248
1408.95	29.9985
1410.53	30.0237
1412.1	30.8612
1413.68	32.0373
1415.26	32.9435
1416.83	33.2439
1418.41	34.9651
1419.98	35.9453
1421.56	37.4167
1423.13	37.895
1424.71	39.0621
1426.28	41.0311
1427.86	42.6661
1429.43	44.6619
1431	46.4128
1432.58	48.0677
1434.15	49.4245
1435.72	50.488
1437.29	52.5589
1438.87	53.2195
1440.44	53.7915
1442.01	54.9633
1443.58	55.1952
1445.15	55.1722
1446.72	55.0198
1448.29	54.8277
1449.86	55.0712
1451.43	54.2308
1453	53.8979
1454.57	53.491
1456.14	52.8715
1457.71	52.2005
1459.27	51.7627
1460.84	51.3452
1462.41	49.5668
1463.98	47.7525
1465.54	46.532
1467.11	44.6064
1468.67	42.5671
1470.24	41.5361
1471.81	39.5624
1473.37	38.0339
1474.94	35.3708
1476.5	32.5859
1478.07	31.1873
1479.63	30.2864
1481.19	28.7021
1482.76	26.7413
1484.32	24.8362
1485.88	23.6856
1487.45	23.0779
1489.01	22.0914
1490.57	21.8343
1492.13	21.5482
1493.69	20.9963
1495.26	19.4986
1496.82	19.9072
1498.38	19.127
1499.94	19.1082
1501.5	18.9367
1503.06	19.6969
1504.62	20.3513
1506.17	20.0987
1507.73	20.672
1509.29	20.6839
1510.85	21.0166
1512.41	21.5096
1513.97	22.635
1515.52	23.6926
1517.08	24.654
1518.64	25.9199
1520.19	26.186
1521.75	26.8678
1523.31	27.6531
1524.86	28.398
1526.42	29.2631
1527.97	30.1394
1529.52	30.4298
1531.08	31.2496
1532.63	32.6979
1534.19	34.0163
1535.74	34.8311
1537.29	35.1992
1538.85	35.6717
1540.4	36.3243
1541.95	37.0643
1543.5	37.7934
1545.06	38.4338
1546.61	38.6846
1548.16	39.912
1549.71	40.9297
1551.26	41.377
1552.81	41.2046
1554.36	42.7034
1555.91	44.5629
1557.46	44.9975
1559.01	45.6925
1560.56	45.8752
1562.11	47.3848
1563.65	48.1134
1565.2	48.7037
1566.75	49.0266
1568.29	50.3381
1569.84	51.5814
1571.39	52.4599
1572.94	51.6411
1574.48	52.3392
1576.03	52.8018
1577.57	54.1413
1579.12	55.1095
1580.66	56.6136
1582.21	57.6622
1583.75	58.4163
1585.3	59.0146
1586.84	58.6525
1588.38	59.7598
1589.93	59.6928
1591.47	59.9733
1593.01	59.3208
1594.55	59.0073
1596.1	58.9136
1597.64	57.2805
1599.18	56.8051
1600.72	55.4681
1602.26	55.7241
1603.8	55.557
1605.34	54.6414
1606.88	53.7999
1608.42	53.3544
1609.96	53.2546
1611.5	52.1513
1613.04	51.2743
1614.58	50.719
1616.12	50.3164
1617.65	49.9064
1619.19	49.6712
1620.73	49.8283
1622.27	49.2506
1623.8	48.7018
1625.34	48.682
1626.87	48.5624
1628.41	48.409
1629.95	49.0765
1631.48	49.7026
1633.02	50.259
1634.55	50.6743
1636.09	51.4964
1637.62	51.8019
1639.15	52.9076
1640.69	53.4301
1642.22	53.9359
1643.76	54.6983
1645.29	55.7953
1646.82	56.1023
1648.35	56.1951
1649.88	55.8691
1651.42	56.8391
1652.95	57.8155
1654.48	58.713
1656.01	58.7341
1657.54	59.0868
1659.07	58.9139
1660.6	58.3076
1662.13	57.6519
1663.66	57.2778
1665.19	56.9654
1666.72	55.8001
1668.24	55.1587
1669.77	53.4984
1671.3	53.2506
1672.83	52.8587
1674.35	51.6745
1675.88	50.9365
1677.41	49.9694
1678.93	48.9827
1680.46	47.3347
1681.99	45.7344
1683.51	43.5351
1685.04	42.0275
1686.56	40.3257
1688.09	38.7382
1689.61	36.6136
1691.13	34.9653
1692.66	33.5427
1694.18	32.2464
1695.71	31.3379
1697.23	29.4575
1698.75	27.334
1700.27	25.8077
1701.8	24.5518
1703.32	23.6028
1704.84	22.1786
1706.36	21.4544
1707.88	20.2556
1709.4	19.6874
1710.92	18.3943
1712.44	17.6665
1713.96	16.701
1715.48	16.175
1717	15.8057
1718.52	14.9662
1720.04	14.7785
1721.56	14.1943
1723.07	13.6165
1724.59	12.9622
1726.11	12.5751
1727.63	12.7123
1729.14	12.4315
1730.66	13.2916
1732.18	13.0959
1733.69	12.9247
1735.21	13.4789
1736.72	13.5252
1738.24	13.6314
1739.75	12.9119
1741.27	12.7814
1742.78	12.4621
1744.3	12.4337
1745.81	12.3655
1747.32	12.7437
1748.84	12.4266
1750.35	11.6841
1751.86	11.0305
1753.37	11.1201
1754.89	10.744
1756.4	10.5909
1757.91	9.79996
1759.42	8.94925
1760.93	8.83003
1762.44	8.66156
1763.95	8.14196
1765.46	7.6706
1766.97	7.66861
1768.48	7.67022
1769.99	7.30585
1771.5	7.00772
1773.01	6.09931
1774.52	6.06512
1776.03	5.9141
1777.53	5.98773
1779.04	6.0212
1780.55	6.27628
1782.06	6.62551
1783.56	6.59113
1785.07	6.49624
1786.57	6.38858
1788.08	6.63963
1789.59	6.63098
1791.09	6.92072
1792.6	7.29658
1794.1	7.56452
1795.6	7.82779
1797.11	7.4525
1798.61	7.35312
1800.12	7.3904
1801.62	7.53889
1803.12	7.8564
1804.63	7.95415
1806.13	7.94036
1807.63	7.16219
1809.13	6.93376
1810.63	6.96716
1812.14	6.37361
1813.64	5.56739
1815.14	5.152
1816.64	5.25613
1818.14	5.61289
1819.64	5.81988
1821.14	5.43789
1822.64	5.29862
1824.14	5.57732
1825.63	5.10564
1827.13	5.12332
1828.63	5.37688
1830.13	4.86783
1831.63	4.54947
1833.12	4.79215
1834.62	4.6493
1836.12	4.8759
1837.62	5.41166
1839.11	4.99836
1840.61	4.75022
1842.1	5.17136
1843.6	5.52356
1845.09	5.45313
1846.59	5.24972
1848.08	5.03466
1849.58	5.00588
1851.07	4.80138
1852.57	4.51891
1854.06	4.68301
1855.55	4.53071
1857.04	4.43531
1858.54	4.46173
1860.03	4.15899
1861.52	3.81732
1863.01	3.27337
1864.5	3.64814
1866	3.68436
1867.49	3.74999
1868.98	3.11342
1870.47	3.34949
1871.96	2.67021
1873.45	3.11503
1874.94	3.16959
1876.43	3.16116
1877.92	3.14085
1879.41	2.86174
1880.89	3.10959
1882.38	3.10753
1882.48	3.41772
1883.97	3.5926
1885.47	3.93103
1886.96	4.06123
1888.46	4.22488
1889.95	4.18838
1891.44	4.51714
1892.94	4.25689
1894.43	4.20455
1895.92	4.62487
1897.41	5.04859
1898.9	4.80979
1900.4	5.17478
1901.89	5.43702
1903.38	5.60057
1904.87	6.13212
1906.36	6.72061
1907.85	6.55492
1909.34	6.68013
1910.83	6.41185
1912.32	6.31214
1913.81	6.22187
1915.29	6.79048
1916.78	6.25011
1918.27	5.86788
1919.76	5.69894
1921.25	5.5799
1922.74	5.40243
1924.22	5.61469
1925.71	5.69104
1927.2	5.65442
1928.68	5.2884
1930.17	5.49293
1931.65	4.72326
1933.14	4.39687
1934.63	3.83951
1936.11	3.11414
1937.59	3.53498
1939.08	3.0222
1940.56	2.95753
1942.05	2.69554
1943.53	3.15773
1945.01	2.50236
1946.5	2.99277
1947.98	2.87441
1949.46	2.49782
1950.94	2.65012
1952.43	2.7578
1953.91	2.8988
1955.39	3.06048
1956.87	3.11787
1958.35	2.698
1959.83	2.94983
1961.31	2.23921
1962.79	2.30957
1964.27	2.22975
1965.75	2.26313
1967.23	1.93583
1968.71	1.85837
1970.19	1.9689
1971.67	0.971428
1973.14	0.728494
1974.62	0.9168
1976.1	1.31761
1977.58	1.23436
1979.05	1.30379
1980.53	0.517386
1982.01	0.0459492
1983.48	0.107756
1984.96	0.666355
1986.43	0.71566
1987.91	0.578359
1989.38	0.882703
1990.86	1.0589
1992.33	1.73958
1993.81	1.85935
1995.28	1.9385
1996.76	2.19132
1998.23	2.15717
1999.7	1.96511
2001.18	2.49551
2002.65	2.39764
2004.12	2.31199
2005.59	1.98687
2007.06	2.41135
2008.54	1.88272
2010.01	1.87766
2011.48	2.53919
2012.95	3.31256
2014.42	3.48184
2015.89	4.1047
2017.36	4.16512
2018.83	4.30128
2020.3	4.83384
2021.77	5.25691
2023.24	5.28255
2024.71	5.94681
2026.17	6.66347
2027.64	7.10511
2029.11	7.56237
2030.58	7.41446
2032.04	7.61526
2033.51	8.55115
2034.98	8.58555
2036.45	9.26172
2037.91	9.43393
2039.38	9.58852
2040.84	9.90073
2042.31	10.4659
2043.77	10.9692
2045.24	10.7837
2046.7	11.284
2048.17	11.4546
2049.63	11.0442
2051.1	11.0116
2052.56	10.9855
2054.02	10.7025
2055.48	10.6798
2056.95	11.4256
2058.41	11.4265
2059.87	11.1113
2061.33	10.934
2062.8	11.3554
2064.26	11.42
2065.72	11.8888
2067.18	12.0038
2068.64	11.9003
2070.1	11.9353
2071.56	11.2029
2073.02	11.6254
2074.48	11.6978
2075.94	11.3516
2077.4	11.5379
2078.86	11.3007
2080.31	11.2423
2081.77	10.5385
2083.23	10.2448
2084.69	10.485
2086.14	10.3333
2087.6	9.92793
2089.06	10.07
2090.52	9.99016
2091.97	10.6772
2093.43	10.5007
2094.88	10.268
2096.34	10.206
2097.79	10.8239
2099.25	11.1499
2100.7	10.9406
2102.16	11.7625
2103.61	12.5032
2105.07	12.7326
2106.52	13.4501
2107.97	14.1594
2109.43	14.7025
2110.88	15.2347
2112.33	15.0722
2113.78	15.6974
2115.24	16.1982
2116.69	16.8732
2118.14	16.915
2119.59	17.321
2121.04	17.8981
2122.49	18.5941
2123.94	19.8434
2125.39	20.391
2126.84	21.2114
2128.29	21.8731
2129.74	23.5517
2131.19	23.6882
2132.64	24.6688
2134.09	25.3423
2135.54	27.1831
2136.98	28.0262
2138.43	29.4341
2139.88	30.2014
2141.33	30.0301
2142.77	31.2393
2144.22	31.8282
2145.67	33.1928
2147.11	34.1054
2148.56	35.5479
2150.01	36.1124
2151.45	36.4958
2152.9	37.3573
2154.34	37.9504
2155.79	38.9943
2157.23	40.0919
2158.67	40.7737
2160.12	41.9239
2161.56	42.7022
2163	43.5452
2164.45	43.5279
2165.89	43.2147
2167.33	43.6352
2168.78	44.2515
2170.22	44.7794
2171.66	44.7405
2173.1	44.568
2174.54	44.9
2175.98	44.7981
2177.42	44.2977
2178.86	44.5421
2180.3	44.4693
2181.74	43.3404
2183.18	42.5751
2184.62	41.8665
2186.06	42.1698
2187.5	41.8911
2188.94	41.302
2190.38	39.9453
2191.82	39.1138
2193.25	38.7064
2194.69	38.5307
2196.13	38.1807
2197.57	37.2231
2199	36.4313
2200.44	35.8466
2201.88	35.0328
2203.31	33.4584
2204.75	32.8541
2206.18	32.1258
2207.62	31.7889
2209.05	30.4671
2210.49	29.6216
2211.92	28.5143
2213.36	27.8608
2214.79	27.8395
2216.22	27.1584
2217.66	26.8268
2219.09	26.1539
2220.52	25.5962
2221.96	24.6182
2223.39	24.4871
2224.82	24.0109
2226.25	23.3365
2227.68	22.4183
2229.11	21.9974
2230.55	21.264
2231.98	20.801
2233.41	20.263
2234.84	19.4965
2236.27	18.9313
2237.7	18.6169
2239.12	18.0242
2240.55	17.184
2241.98	16.152
2243.41	15.2449
2244.84	14.5954
2246.27	14.1348
2247.7	13.3469
2249.12	12.1654
2250.55	11.5538
2251.98	10.606
2253.41	9.86572
2254.83	9.71674
2256.26	9.57222
2257.68	9.79896
2259.11	9.54204
2260.54	9.82326
2261.96	9.3336
2263.39	8.71615
2264.81	9.05974
2266.24	8.82522
2267.66	8.53187
2269.08	8.26109
2270.51	7.81819
2271.93	7.68441
2273.35	7.17516
2274.78	7.13302
2276.2	7.25667
2277.62	7.18266
2279.04	7.09803
2280.47	6.66837
2281.89	6.80053
2283.31	7.0511
2284.73	7.52266
2286.15	7.08213
2287.57	6.88649
2288.99	6.29367
2290.41	6.26691
2291.83	6.71315
2293.25	6.94406
2294.67	7.59926
2296.09	7.4021
2297.51	7.77406
2298.93	8.63057
2300.35	9.18588
2301.76	9.38565
2303.18	9.96076
2304.6	10.6035
2306.02	10.2299
2307.44	10.3175
2308.85	10.048
2310.27	9.84967
2311.69	9.95205
2313.1	9.73649
2314.52	9.84192
2315.93	9.25674
2317.35	8.95282
2318.76	9.11043
2320.18	9.19957
2321.59	9.33084
2323.01	9.016
2324.42	9.73162
2325.83	9.74682
2327.25	9.52141
2328.66	9.07955
2330.07	9.20352
2331.49	9.14968
2332.9	7.92645
2334.31	7.55331
2335.72	7.80067
2337.13	7.575
2338.55	7.03365
2339.96	6.45541
2341.37	5.66097
2342.78	5.49077
2344.19	4.79293
2345.6	4.31739
2347.01	4.6892
2348.42	4.27699
2349.83	3.89056
2351.24	3.55863
2352.65	3.53852
2354.05	3.07118
2355.46	2.41431
2356.87	1.79211
2358.28	1.54423
2359.69	1.64789
2361.09	2.18388
2362.5	2.30437
2363.91	2.48757
2365.31	2.58298
2366.72	2.44665
2368.13	2.18746
2369.53	1.91428
2370.94	1.59096
2372.34	1.61785
2373.75	1.86937
2375.15	2.02973
2376.56	1.46274
2377.96	1.88186
2379.37	2.1753
2380.77	1.81293
2382.17	1.50418
2383.58	1.42309
2384.98	1.59565
2386.38	1.41012
2387.79	1.74931
2389.19	1.95503
2390.59	1.88959
2391.99	2.08347
2393.39	2.35531
2394.8	3.08127
2396.2	3.24233
2397.6	3.76356
2399	4.11381
2400.4	4.62722
2401.8	4.41635
2403.2	4.03594
2404.6	4.14071
2406	4.37146
2407.4	4.68648
2408.79	4.55009
2410.19	5.00726
2411.59	5.0986
2412.99	5.12431
2414.39	5.24103
2415.78	5.58906
2417.18	6.31029
2418.58	6.38562
2419.98	6.52213
2421.37	6.39735
2422.77	6.42715
2424.16	6.37345
2425.56	6.26009
2426.96	6.2927
2428.35	5.8825
2429.74	6.15881
2431.14	6.04922
2432.53	5.72853
2433.93	5.43429
2435.32	5.25787
2436.72	4.89641
2438.11	4.81067
2439.5	4.52286
2440.9	4.36414
2442.29	4.24312
2443.68	4.21247
2445.07	4.11667
2446.47	4.09169
2447.86	4.12183
2449.25	3.99908
2450.64	3.35896
2452.03	3.47726
2453.42	3.5655
2454.81	3.59323
2456.2	3.71809
2457.59	3.8695
2458.98	3.94471
2460.37	4.13047
2461.76	4.42948
2463.15	4.60093
2464.54	4.28679
2465.93	4.11992
2467.32	3.41089
2468.7	2.88178
2470.09	2.64851
2471.48	3.22464
2472.87	3.15619
2474.25	3.53754
2475.64	4.10794
2477.03	4.40173
2478.41	4.39533
2479.8	4.25394
2481.18	4.18318
2482.57	4.50806
2483.95	4.68368
2485.34	4.64394
2486.72	4.60351
2488.11	4.31025
2489.49	3.63834
2490.88	3.13207
2492.26	3.31368
2493.65	2.888
2495.03	2.04478
2496.41	1.35434
2497.79	0.813149
2499.18	0.791314
2500.56	0.354177
2501.94	0.156704
2503.32	-0.221202
2504.7	-0.223825
2506.09	-0.560373
2507.47	-0.314671
2508.85	-0.51174
2510.23	-0.274975
2511.61	0.32372
2512.99	0.877822
2514.37	1.41834
2515.75	1.47249
2517.13	0.989132
2518.51	1.00899
2519.89	0.901859
2521.26	1.41404
2522.64	1.60634
2524.02	2.22794
2525.4	1.92149
2526.78	2.09949
2528.15	1.96767
2529.53	2.11656
2530.91	1.93175
2532.28	1.82158
2533.66	1.9277
2535.04	2.34128
2536.41	2.50298
2537.79	2.99024
2539.16	3.59721
2540.54	3.93533
2541.91	3.94415
2543.29	4.24302
2544.66	4.52025
2546.04	4.70285
2547.41	4.11608
2548.78	4.12929
2550.16	3.86117
2551.53	3.33461
2552.9	3.46206
2554.27	3.18969
2555.65	3.02467
2557.02	3.04486
2558.39	2.96482
2559.76	2.68301
2561.13	2.52473
2562.51	1.67998
2563.88	1.50743
2565.25	1.47088
2566.62	1.66399
2567.99	1.2832
2569.36	1.45784
2570.73	1.53033
2572.1	1.64413
2573.47	1.47162
2574.84	1.54715
2576.2	1.73682
2577.57	2.01314
2578.94	2.11798
2580.31	2.40838
2581.68	2.24949
2583.05	2.28773
2584.41	2.42773
2585.78	2.28799
2587.15	2.44992
2588.51	2.28328
2589.88	2.4915
2591.24	1.97157
2592.61	2.19669
2593.98	2.26229
2595.34	2.48773
2596.71	2.15171
2598.07	1.8044
2599.44	1.75865
2600.8	2.03753
2602.16	2.48333
2603.53	2.6951
2604.89	2.95176
2606.26	3.31089
2607.62	3.61796
2608.98	3.67678
2610.34	4.04009
2611.71	4.0612
2613.07	4.36823
2614.43	4.22454
2615.79	3.89517
2617.15	3.92731
2618.52	3.77469
2619.88	3.86184
2621.24	3.77497
2622.6	3.28565
2623.96	3.30537
2625.32	2.76709
2626.68	2.77049
2628.04	2.03988
2629.4	1.46839
2630.75	1.52807
2632.11	1.69383
2633.47	1.39071
2634.83	1.21948
2636.19	1.04562
2637.55	1.23777
2638.9	1.19929
2640.26	0.981616
2641.62	0.876469
2642.98	1.009
2644.33	1.48056
2645.69	1.76666
2647.04	1.44669
2648.4	1.33728
2649.76	1.84623
2651.11	1.94185
2652.47	1.69739
2653.82	0.977408
2655.18	0.78171
2656.53	0.843475
2657.88	1.2553
2659.24	1.52017
2660.59	2.46016
2661.95	2.85641
2663.3	2.68155
2664.65	2.67233
2666	2.69681
2667.36	3.40028
2668.71	4.25049
2670.06	4.73382
2671.41	4.72198
2672.76	5.19235
2674.12	5.23466
2675.47	5.46834
2676.82	5.64271
2678.17	6.05162
2679.52	6.53793
2680.87	6.4615
2682.22	6.32609
2683.57	6.11955
2684.92	5.61154
2686.27	5.70138
2687.62	5.28544
2688.97	5.06241
2690.31	4.85689
2691.66	4.51525
2693.01	4.42837
2694.36	4.99946
2695.71	4.59865
2697.05	4.93196
2698.4	4.97672
2699.75	5.09455
2701.09	5.14771
2702.44	5.15249
2703.78	5.06398
2705.13	4.77952
2706.48	5.35618
2707.82	5.55335
2709.17	5.50947
2710.51	5.771
2711.86	6.05936
2713.2	5.64799
2714.54	5.60081
2715.89	5.55788
2717.23	5.26969
2718.57	4.55178
2719.92	4.61853
2721.26	4.8734
2722.6	5.5658
2723.95	5.67986
2725.29	5.91595
2726.63	5.76621
2727.97	5.86945
2729.31	6.24149
2730.65	6.17032
2732	6.75215
2733.34	7.22708
2734.68	7.69513
2736.02	8.2546
2737.36	8.23229
2738.7	9.00517
2740.04	10.1946
2741.38	10.1546
2742.72	10.4723
2744.05	10.5995
2745.39	11.0479
2746.73	11.0616
2748.07	10.3585
2749.41	10.0143
2750.75	9.04646
2752.08	9.01754
2753.42	8.58311
2754.76	8.01126
2756.09	8.18223
2757.43	7.54784
2758.77	7.75883
2760.1	7.86385
2761.44	7.53839
2762.78	7.02304
2764.11	6.82518
2765.44	6.48248
2766.78	6.66336
2768.11	6.5274
2769.45	6.02549
2770.78	5.82558
2772.12	5.9753
2773.45	6.15811
2774.78	5.59294
2776.12	5.09328
2777.45	5.32186
2778.78	4.83885
2780.12	4.30065
2781.45	3.97169
2782.78	3.81946
2784.11	3.58394
2785.44	3.89117
2786.78	4.46579
2788.11	4.48166
2789.44	4.8175
2790.77	4.72169
2792.1	5.12454
2793.43	5.43618
2794.76	6.52178
2796.09	7.24141
2797.42	7.55297
2798.75	8.58254
2800.08	8.744
2801.4	9.35961
2802.73	10.0259
2804.06	10.4319
2805.39	11.2647
2806.72	11.413
2808.05	11.365
2809.37	11.389
2810.7	11.7502
2812.03	12.2926
2813.35	11.768
2814.68	11.3541
2816.01	11.476
2817.33	11.93
2818.66	12.5406
2819.98	12.8275
2821.31	13.4039
2822.63	13.6676
2823.96	14.1687
2825.28	15.424
2826.61	16.2371
2827.93	16.947
2829.25	17.9958
2830.58	19.1319
2831.9	19.6028
2833.23	20.3117
2834.55	21.1823
2835.87	21.4234
2837.19	22.4742
2838.52	23.1128
2839.84	23.9831
2841.16	24.9888
2842.48	26.439
2843.8	28.1286
2845.12	29.4981
2846.44	31.4091
2847.77	33.6441
2849.08	35.3279
2850.4	37.5411
2851.73	39.9865
2853.05	42.2449
2854.36	44.5654
2855.68	47.4701
2857	49.3492
2858.32	51.5172
2859.64	53.6055
2860.96	56.2197
2862.28	58.463
2863.59	60.7047
2864.91	62.7986
2866.23	64.2388
2867.55	66.2982
2868.86	67.9444
2870.18	69.5276
2871.5	71.1099
2872.81	72.6905
2874.13	73.9665
2875.44	75.1604
2876.76	76.7964
2878.07	78.5816
2879.39	79.594
2880.7	81.2909
2882.02	83.113
2883.33	84.6416
2884.65	85.5327
2885.96	87.1377
2887.28	88.562
2888.59	90.2296
2889.9	91.9006
2891.21	93.2382
2892.53	94.1621
2893.84	95.4831
2895.15	96.6369
2896.46	97.2221
2897.78	97.9271
2899.09	99.2142
2900.4	100.738
2901.71	102.794
2903.02	105.015
2904.33	107.112
2905.64	110.105
2906.95	112.765
2908.26	115.862
2909.57	118.733
2910.88	121.482
2912.19	124.849
2913.5	127.343
2914.81	129.811
2916.12	132.876
2917.43	135.382
2918.73	137.445
2920.04	139.532
2921.35	141.409
2922.66	142.603
2923.96	144.185
2925.27	145.643
2926.58	147.046
2927.88	147.41
2929.19	147.636
2930.5	148.308
2931.8	148.233
2933.11	148.485
2934.41	148.334
2935.72	147.483
2937.02	146.679
2938.33	146.361
2939.63	145.164
2940.94	143.946
2942.24	142.896
2943.54	142.285
2944.85	140.302
2946.15	138.682
2947.45	136.753
2948.76	134.438
2950.06	132.642
2951.36	130.882
2952.66	128.849
2953.97	126.038
2955.27	123.048
2956.57	120.475
2957.87	117.711
2959.17	115.226
2960.47	112.091
2961.77	109.883
2963.07	108.127
2964.37	105.803
2965.67	103.667
2966.97	102.331
2968.27	99.8361
2969.57	97.765
2970.87	96.213
2972.17	94.226
2973.47	92.4827
2974.77	90.6746
2976.07	88.7207
2977.36	86.1276
2978.66	83.687
2979.96	81.5416
2981.26	79.2048
2982.55	76.991
2983.85	74.4022
2985.15	72.3399
2986.44	69.8337
2987.74	67.3967
2989.03	65.0184
2990.33	62.7517
2991.63	60.4184
2992.92	57.9084
2994.21	56.419
2995.51	54.8065
2996.8	52.2749
2998.1	50.1985
2999.39	47.737
3000.69	45.2482
3001.98	43.5599
3003.27	41.942
3004.57	40.0251
3005.86	38.4456
3007.15	37.2031
3008.44	35.4731
3009.74	33.6425
3011.03	32.4124
3012.32	31.1954
3013.61	30.2118
3014.9	29.46
3016.19	28.2274
3017.48	27.2642
3018.78	26.3135
3020.07	25.9414
3021.36	25.3649
3022.65	24.3112
3023.94	23.6415
3025.23	23.2838
3026.51	23.4923
3027.8	22.9789
3029.09	22.569
3030.38	22.289
3031.67	22.8335
3032.96	22.8256
3034.24	22.8244
3035.53	23.1451
3036.82	23.3305
3038.11	23.3914
3039.39	23.0197
3040.68	22.9198
3041.97	22.7286
3043.25	23.2682
3044.54	23.1753
3045.83	23.264
3047.11	23.4727
3048.4	23.2607
3049.68	23.1709
3050.97	22.4086
3052.25	22.7164
3053.54	22.4809
3054.82	21.9473
3056.11	21.0865
3057.39	20.1337
3058.67	20.1901
3059.96	19.2939
3061.24	18.541
3062.52	17.6922
3063.81	16.8419
3065.09	16.5119
3066.37	16.0765
3067.65	15.9631
3068.94	15.4188
3070.22	14.9175
3071.5	14.5149
3072.78	14.2004
3074.06	14.2014
3075.34	13.566
3076.62	12.9894
3077.9	12.6687
3079.18	12.079
3080.46	11.7659
3081.74	11.6189
3083.02	11.2261
3084.3	10.5519
3085.58	9.6768
3086.86	9.09802
3088.14	9.0014
3089.42	8.49614
3090.69	7.78093
3091.97	7.53735
3093.25	7.72667
3094.53	7.48751
3095.8	7.43506
3097.08	7.18571
3098.36	6.70485
3099.63	6.75987
3100.91	6.63917
3102.19	5.8639
3103.46	5.76404
3104.74	5.63729
3106.01	5.1687
3107.29	4.87857
3108.56	4.6802
3109.84	4.48595
3111.11	4.03938
3112.39	3.48833
3113.66	3.26253
3114.94	3.19136
3116.21	3.17603
3117.48	2.75566
3118.76	2.15715
3120.03	1.79275
3121.3	1.8788
3122.57	2.24727
3123.85	1.79068
3125.12	1.5643
3126.39	1.21248
3127.66	1.31897
3128.93	1.60521
3130.21	1.62726
3131.48	1.68699
3132.75	1.22139
3134.02	1.27795
3135.29	0.993418
3136.56	0.826363
3137.83	0.582937
3139.1	0.323789
3140.37	0.437963
3141.64	0.413123
3142.91	0.105492
3144.17	-0.306069
3145.44	-0.927733
3146.71	-1.38292
3147.98	-1.82392
3149.25	-2.60043
