#Acq. time (s)=	45
#Accumulations=	2
#Range (cm-¹)=	200...3150
#Windows=	2
#Auto scanning=	Off
#Autofocus=	Off
#Macrospot=	Off
#AutoExposure=	Off
#Spike filter=	Multiple accum.
#Delay time (s)=	0
#Binning=	1
#Readout mode=	Signal
#DeNoise=	Off
#ICS correction=	On
#Dark correction=	Off
#Inst. Process=	Off
#Detector Gain=	Best Dynamic Range
#Detector ADC=	20 kHz       
#Detector temperature (°C)=	-69.85
#Instrument=	LabRAM HR Evol
#Detector=	Synapse
#Objective=	x100
#Grating=	600 gr/mm
#ND Filter=	100%
#Laser (nm)=	532 
#Hole=	100.021
#Range=	Auto
#Laser Pol.=	No
#Raman. Pol.=	No
#Laser Pol. (°)=	-0.0007625
#Raman Pol. (°)=	89.9995
#Collection=	Microscope
#StageXY=	Marzhauser
#StageZ=	Marzhauser
#X (µm)=	-5920.1
#Y (µm)=	2830.3
#Z (µm)=	-223.3
#Full time(mm:ss)=	3:18
#Project=	
#Sample=	
#Site=	
#Title=	Thy_20_09_06_2x_45s_532 nm_x100_100%_600 gr_mm
#Remark=	
#Date=	29.06.2022 11:09
#Acquired=	29.06.2022 11:09:57
#Base:Fit=	10.08.2022 09:49:32
#Base:Fit=	10.08.2022 09:49:42
#Base:Fit=	10.08.2022 09:49:53
#Base:Fit=	10.08.2022 09:50:12
#Base:Fit=	10.08.2022 09:50:26
#Base:Fit=	10.08.2022 09:50:30
#Base:Fit=	10.08.2022 09:50:43
#Base:Fit=	10.08.2022 09:52:02
#Base:Fit=	10.08.2022 09:52:12
#Base:Sub=	10.08.2022 09:54:21
#Filter:Polynom=	16.08.2022 10:24:04
#AxisType[0]=Intens
#AxisUnit[0]=Cnt
#AxisType[1]=Spectr
#AxisUnit[1]=1/cm
200.523	0.906038
202.339	4.54504
204.154	5.25457
205.967	6.67391
207.781	7.19452
209.596	7.73999
211.409	8.89898
213.222	9.63027
215.034	11.2115
216.848	10.8507
218.659	11.1468
220.47	12.4194
222.281	11.1276
224.091	10.7859
225.903	10.1627
227.713	10.2881
229.522	10.2122
231.331	10.6436
233.14	10.446
234.948	10.5149
236.756	11.4829
238.566	11.2084
240.373	10.1711
242.18	10.3688
243.986	9.59803
245.792	9.87355
247.598	10.1305
249.403	10.0808
251.208	9.58359
253.013	8.70904
254.818	6.48662
256.624	7.22362
258.427	6.68042
260.231	6.21601
262.034	6.43353
263.836	6.05451
265.638	5.90459
267.44	5.60546
269.242	5.87256
271.043	5.65332
272.844	6.34331
274.645	5.13578
276.445	5.25218
278.245	5.77217
280.044	5.49898
281.843	4.98648
283.642	4.06358
285.44	3.96354
287.238	5.01865
289.036	5.58736
290.833	4.49262
292.63	3.95791
294.425	5.44718
296.221	6.28142
298.017	7.78363
299.813	8.9843
301.608	9.09338
303.403	8.60108
305.198	8.99187
306.992	8.58858
308.786	8.93553
310.579	9.0041
312.371	8.60295
314.163	10.1819
315.956	9.62406
317.748	9.80567
319.54	10.2697
321.331	10.6057
323.122	10.348
324.911	10.3951
326.701	11.2828
328.491	11.0742
330.281	11.4207
332.071	12.2789
333.857	11.6183
335.646	11.982
337.434	12.3606
339.222	11.0546
341.008	10.8314
342.795	11.152
344.582	10.9853
346.369	12.3222
348.153	10.4607
349.939	11.0597
351.724	11.074
353.51	10.8997
355.292	11.1154
357.077	11.6025
358.861	10.9262
360.643	10.7206
362.426	10.4394
364.21	9.6132
365.99	9.6675
367.773	9.91027
369.555	9.07487
371.335	8.81229
373.116	8.71696
374.897	8.64906
376.676	8.34017
378.456	7.86437
380.236	7.28873
382.014	7.32152
383.793	7.67664
385.57	7.20337
387.349	6.04538
389.127	5.77809
390.903	5.14501
392.681	4.43407
394.456	4.1327
396.233	3.86816
398.007	2.7513
399.784	2.76996
401.56	2.92698
403.333	1.93349
405.108	1.3196
406.881	1.23449
408.656	1.48886
410.428	1.63782
412.202	1.7105
413.973	2.65014
415.746	3.23318
417.517	2.50297
419.29	2.1611
421.06	1.31706
422.831	1.02917
424.601	1.86691
426.37	2.17349
428.141	1.41204
429.909	1.71657
431.679	2.70157
433.447	2.29348
435.216	2.89743
436.983	3.4334
438.75	3.79246
440.519	3.93991
442.285	3.53934
444.052	3.86162
445.818	3.49706
447.583	3.3598
449.349	4.08753
451.114	4.68851
452.878	5.0458
454.643	5.58139
456.407	6.47406
458.169	6.71376
459.934	8.05287
461.696	8.28528
463.458	8.2063
465.222	9.6414
466.983	10.5689
468.744	10.8685
470.507	12.4921
472.267	12.6546
474.027	14.1013
475.787	13.9267
477.548	15.3313
479.307	15.1814
481.065	14.0218
482.823	15.8436
484.583	16.1195
486.341	16.6586
488.098	17.5433
489.855	17.2472
491.612	17.3528
493.37	17.7294
495.126	17.0875
496.881	17.1474
498.636	18.113
500.391	18.6131
502.148	18.2402
503.902	17.8804
505.656	17.5203
507.409	18.2757
509.162	18.5773
510.915	18.8788
512.668	18.5768
514.42	17.6699
516.174	17.4602
517.925	17.2666
519.676	17.8764
521.427	17.4067
523.178	18.3586
524.928	17.9275
526.678	16.7284
528.427	17.8936
530.176	17.4214
531.925	17.5326
533.673	17.0289
535.422	18.5658
537.169	19.5164
538.917	19.7814
540.664	20.2013
542.411	21.0664
544.157	20.2226
545.903	20.4044
547.649	20.3915
549.395	19.236
551.14	18.255
552.884	18.3261
554.629	18.0384
556.373	17.8449
558.117	17.6809
559.86	16.7069
561.603	16.3314
563.346	15.2129
565.089	14.8991
566.831	13.042
568.573	12.6377
570.314	12.5918
572.053	11.4563
573.794	10.795
575.534	9.72852
577.274	8.53046
579.014	8.06556
580.754	7.47521
582.493	6.30527
584.23	6.23253
585.968	6.44891
587.706	5.81996
589.444	3.37146
591.181	3.59608
592.919	2.46127
594.653	2.67745
596.39	1.3073
598.126	-0.46485
599.862	-0.684531
601.595	0.245257
603.33	0.966624
605.065	1.69667
606.8	2.66627
608.532	3.78869
610.266	3.94991
611.999	3.66485
613.732	3.60007
615.463	3.76863
617.196	4.08732
618.928	5.5816
620.66	6.1121
622.389	7.00078
624.12	6.32181
625.851	5.67679
627.58	5.95882
629.31	6.31369
631.04	6.61764
632.767	7.92497
634.497	7.81152
636.223	9.03378
637.952	9.76654
639.68	12.395
641.406	12.5713
643.134	13.5161
644.861	15.0576
646.586	16.1157
648.312	17.1557
650.037	17.9687
651.762	18.8326
653.486	19.4579
655.211	19.7583
656.936	20.5368
658.659	22.5512
660.383	22.4504
662.105	23.0576
663.829	22.9213
665.55	22.6209
667.273	22.6134
668.994	22.8458
670.716	23.493
672.436	23.6106
674.158	24.1519
675.877	22.824
677.598	24.4111
679.317	24.9955
681.035	25.9319
682.755	26.1623
684.473	27.0827
686.192	28.8529
687.909	29.5785
689.628	29.6692
691.344	30.0992
693.06	29.9969
694.778	30.0315
696.493	29.5448
698.211	29.6798
699.925	30.091
701.64	30.5977
703.356	31.6065
705.07	30.9707
706.783	31.0774
708.498	32.2674
710.211	32.8601
711.924	33.1377
713.638	34.8482
715.35	36.4023
717.061	37.3045
718.774	38.5573
720.485	39.1788
722.196	40.3054
723.906	40.7718
725.618	42.3812
727.328	42.1482
729.037	43.8403
730.746	44.5947
732.456	43.912
734.165	44.4299
735.873	45.0939
737.58	44.9704
739.289	44.9356
740.997	44.8699
742.703	45.8961
744.41	45.9913
746.116	46.3588
747.823	46.5599
749.529	46.6228
751.234	48.2335
752.938	49.4981
754.643	51.5277
756.347	52.7871
758.051	53.9997
759.756	54.2601
761.459	54.3502
763.162	56.377
764.865	57.4127
766.567	58.0431
768.269	58.2019
769.97	58.6385
771.671	59.408
773.372	60.4268
775.073	61.0762
776.773	61.2863
778.473	62.178
780.174	63.3774
781.874	63.9939
783.573	64.355
785.271	64.6959
786.97	65.3267
788.668	67.1731
790.365	68.4903
792.063	70.0506
793.76	71.421
795.456	72.3416
797.153	73.131
798.847	74.3879
800.543	74.5417
802.238	75.4942
803.933	75.6288
805.628	75.6749
807.322	75.0092
809.017	76.0512
810.71	75.7531
812.404	75.2799
814.097	73.8844
815.79	73.4019
817.483	73.335
819.173	73.8703
820.865	73.4019
822.556	72.3186
824.248	72.4418
825.939	71.7937
827.629	71.7013
829.318	71.6329
831.008	72.0171
832.697	71.7082
834.387	71.6761
836.076	71.8146
837.765	71.0689
839.451	70.519
841.139	69.636
842.827	67.7186
844.514	65.2293
846.2	65.0359
847.886	63.5487
849.573	62.9137
851.259	61.9703
852.943	60.9071
854.629	59.896
856.314	58.6527
857.997	57.485
859.682	55.8289
861.366	54.6384
863.05	54.7218
864.732	53.4799
866.415	52.0916
868.098	51.9651
869.779	51.683
871.461	52.49
873.141	52.0031
874.823	50.8307
876.505	50.6033
878.184	50.6536
879.865	50.0273
881.545	48.9645
883.223	47.7941
884.903	47.5667
886.581	47.35
888.26	46.3194
889.937	45.9814
891.616	44.4
893.294	44.8967
894.97	42.9107
896.648	42.9499
898.323	42.17
900	42.9135
901.675	42.6249
903.351	41.5171
905.026	40.2
906.701	39.5143
908.375	39.5014
910.05	39.2152
911.723	39.1424
913.398	38.9187
915.07	39.1765
916.742	39.292
918.415	37.5367
920.087	36.7756
921.76	35.3754
923.43	34.3208
925.103	34.139
926.773	32.857
928.443	32.008
930.114	32.3464
931.783	30.7589
933.454	31.4937
935.123	29.8475
936.791	29.0072
938.461	28.2615
940.128	28.5153
941.796	28.2517
943.464	27.9608
945.131	27.2934
946.797	26.9374
948.465	26.493
950.131	26.2364
951.797	26.5123
953.462	25.6871
955.128	25.8758
956.793	24.5509
958.457	23.2506
960.121	23.1587
961.786	22.47
963.45	22.6419
965.113	23.6582
966.775	23.9281
968.44	24.5298
970.102	26.369
971.763	27.3062
973.425	28.3866
975.086	29.0266
976.748	29.7268
978.409	30.2808
980.069	32.1406
981.729	32.0203
983.388	32.6043
985.048	31.8081
986.708	32.2277
988.367	33.0257
990.025	34.2477
991.683	35.0205
993.341	35.5641
994.998	35.6017
996.655	34.4837
998.312	34.6338
999.969	34.3642
1001.62	32.7395
1003.28	32.2696
1004.94	30.7513
1006.59	30.5266
1008.25	30.5328
1009.9	30.1932
1011.56	29.6273
1013.21	29.2034
1014.86	27.9755
1016.52	27.6286
1018.17	25.7251
1019.82	25.2172
1021.48	24.2544
1023.13	22.8488
1024.78	22.1826
1026.43	20.9649
1028.08	20.9323
1029.73	20.692
1031.38	20.1535
1033.03	18.2399
1034.68	17.9286
1036.33	17.0511
1037.98	16.8741
1039.63	15.7068
1041.28	14.5471
1042.93	16.7696
1044.57	18.0575
1046.22	18.243
1047.87	18.4373
1049.52	17.8738
1051.16	18.9081
1052.81	19.9361
1054.45	20.0527
1056.1	20.4891
1057.75	19.923
1059.39	20.3995
1061.04	20.4578
1062.68	20.1745
1064.32	20.2828
1065.97	20.1055
1067.61	19.8564
1069.25	20.8198
1070.9	20.3325
1072.54	20.1931
1074.18	18.8909
1075.82	18.5694
1077.47	17.8217
1079.11	17.2918
1080.75	17.171
1082.39	16.3693
1084.03	15.4084
1085.67	14.6338
1087.31	14.1432
1088.95	15.3243
1090.59	16.2058
1092.22	16.585
1093.86	16.7569
1095.5	17.1911
1097.14	17.3621
1098.78	18.4444
1100.41	18.5403
1102.05	18.3811
1103.69	18.7731
1105.32	18.8573
1106.96	19.3283
1108.59	19.1736
1110.23	18.8598
1111.86	17.5797
1113.5	16.5278
1115.13	15.8936
1116.77	16.9598
1118.4	15.7667
1120.03	15.7352
1121.67	15.7386
1123.3	15.7413
1124.93	15.933
1126.56	14.3889
1128.19	12.4374
1129.83	13.031
1131.46	14.4361
1133.09	14.6783
1134.72	14.9816
1136.35	14.9691
1137.98	13.7469
1139.61	13.5148
1141.24	14.0054
1142.86	13.3669
1144.49	13.7177
1146.12	13.6325
1147.75	13.7134
1149.38	13.5577
1151	13.4233
1152.63	12.2289
1154.26	12.1374
1155.88	10.981
1157.51	11.0512
1159.14	10.1607
1160.76	9.2542
1162.39	8.06433
1164.01	7.38313
1165.63	6.98739
1167.26	7.08533
1168.88	8.02029
1170.51	10.354
1172.13	11.1926
1173.75	11.2966
1175.38	11.8769
1177	11.9144
1178.62	11.0838
1180.24	10.4892
1181.86	9.92043
1183.48	9.30639
1185.1	10.3164
1186.72	10.652
1188.34	10.9321
1189.96	11.3162
1191.58	11.0873
1193.2	11.8651
1194.82	12.4464
1196.44	14.3575
1198.06	15.2091
1199.68	15.2895
1201.29	17.1289
1202.91	19.2282
1204.53	20.7795
1206.14	22.444
1207.76	25.01
1209.38	27.5296
1210.99	30.9791
1212.61	32.5804
1214.22	34.3638
1215.84	37.3033
1217.45	39.5312
1219.07	41.5246
1220.68	44.6714
1222.29	47.5123
1223.91	48.7222
1225.52	50.1825
1227.13	51.0643
1228.74	53.5609
1230.36	54.424
1231.97	56.4872
1233.58	57.7875
1235.19	59.7609
1236.8	60.2415
1238.41	62.1127
1240.02	63.2306
1241.63	63.9288
1243.24	64.7805
1244.85	66.0377
1246.46	68.2225
1248.07	69.5456
1249.67	70.9428
1251.28	71.9655
1252.89	71.7928
1254.5	71.7987
1256.1	73.2753
1257.71	72.7042
1259.32	73.3904
1260.92	74.4721
1262.53	75.9067
1264.13	76.5386
1265.74	77.6242
1267.34	76.9458
1268.95	77.281
1270.55	77.9862
1272.15	79.0519
1273.76	80.3024
1275.36	81.9355
1276.97	82.685
1278.57	82.5256
1280.17	84.4131
1281.77	86.3343
1283.37	88.8391
1284.97	90.265
1286.58	91.3696
1288.18	93.0173
1289.78	93.9054
1291.38	94.191
1292.98	95.4381
1294.58	97.5345
1296.18	98.8993
1297.78	99.7342
1299.37	101.211
1300.97	102.976
1302.57	104.783
1304.17	104.68
1305.77	106.707
1307.36	107.654
1308.96	110.572
1310.55	112.323
1312.15	114.295
1313.75	114.306
1315.34	115.358
1316.94	115.426
1318.53	116.012
1320.13	116.234
1321.72	115.926
1323.32	116.627
1324.91	116.476
1326.5	116.558
1328.1	116.112
1329.69	116.11
1331.28	115.657
1332.87	115.771
1334.47	114.386
1336.06	113.569
1337.65	112.748
1339.24	113.675
1340.83	111.765
1342.42	111.629
1344.01	110.527
1345.6	109.783
1347.19	107.775
1348.78	106.862
1350.37	105.042
1351.96	102.959
1353.54	101.261
1355.13	98.6928
1356.72	96.0125
1358.31	94.9365
1359.89	94.2631
1361.48	92.2511
1363.07	90.4182
1364.65	88.0303
1366.24	85.1689
1367.82	82.3518
1369.41	79.8418
1370.99	78.5626
1372.58	77.1552
1374.16	76.0368
1375.75	74.9251
1377.33	73.2373
1378.91	73.4553
1380.5	71.8733
1382.08	69.9225
1383.66	67.4588
1385.25	66.4792
1386.83	65.2587
1388.41	65.6654
1389.99	64.0509
1391.57	62.8922
1393.15	61.416
1394.73	60.2059
1396.31	59.1835
1397.89	58.6603
1399.47	58.4428
1401.05	58.3027
1402.63	58.392
1404.21	57.7173
1405.78	58.7386
1407.36	58.952
1408.94	58.5863
1410.52	59.6922
1412.1	60.7055
1413.67	61.5439
1415.25	63.9576
1416.82	66.4934
1418.4	68.2455
1419.98	70.7817
1421.55	74.0767
1423.13	76.3646
1424.7	79.0441
1426.28	80.7416
1427.85	84.3649
1429.42	87.808
1431	91.59
1432.57	94.847
1434.14	98.4209
1435.71	100.565
1437.29	103.604
1438.86	105.917
1440.43	107.054
1442	108.282
1443.57	108.92
1445.14	110.026
1446.71	110.51
1448.28	111.912
1449.85	111.831
1451.42	110.721
1452.99	110.891
1454.56	110.198
1456.13	109.278
1457.7	108.451
1459.26	105.195
1460.83	103.333
1462.4	101.933
1463.97	99.9469
1465.54	96.9457
1467.1	94.1417
1468.67	90.1682
1470.23	86.5247
1471.8	82.5753
1473.36	79.1746
1474.93	76.2437
1476.49	72.6622
1478.06	69.4279
1479.62	66.0859
1481.19	62.139
1482.75	58.8891
1484.31	56.1851
1485.88	53.2267
1487.44	50.3793
1489	49.3001
1490.56	47.8622
1492.13	46.7013
1493.69	45.3585
1495.25	44.5536
1496.81	43.9037
1498.37	43.9531
1499.93	42.4193
1501.49	42.3853
1503.05	42.6726
1504.61	42.2808
1506.17	42.7652
1507.73	42.5513
1509.28	42.1706
1510.84	41.844
1512.4	42.5532
1513.96	41.3907
1515.52	41.8033
1517.07	42.5034
1518.63	42.5907
1520.19	42.5527
1521.74	43.1131
1523.3	44.1748
1524.85	43.7737
1526.41	44.8194
1527.96	44.904
1529.52	46.1291
1531.07	47.7528
1532.63	48.7731
1534.18	49.9517
1535.73	51.6917
1537.29	52.1653
1538.84	53.9608
1540.39	54.8267
1541.94	56.1098
1543.5	56.987
1545.05	59.136
1546.6	60.1644
1548.15	62.7807
1549.7	65.5412
1551.25	67.3898
1552.8	68.3783
1554.35	70.873
1555.9	72.1367
1557.45	74.3582
1559	76.3596
1560.55	79.1383
1562.1	80.7168
1563.65	82.564
1565.19	84.8658
1566.74	87.4708
1568.29	89.1491
1569.83	90.7624
1571.38	92.0451
1572.93	94.6112
1574.47	95.9525
1576.02	97.7841
1577.56	99.3397
1579.11	101.5
1580.66	103.414
1582.2	104.072
1583.74	104.465
1585.29	106.45
1586.83	107.19
1588.38	107.998
1589.92	107.934
1591.46	107.911
1593.01	107.805
1594.55	108.707
1596.09	108.133
1597.63	108.08
1599.17	108.288
1600.71	106.208
1602.25	105.417
1603.79	105.449
1605.34	104.093
1606.88	104.003
1608.41	103.02
1609.95	101.606
1611.49	100.34
1613.03	99.1886
1614.57	96.7475
1616.11	95.8983
1617.65	95.3065
1619.18	95.0673
1620.72	94.1311
1622.26	93.9207
1623.79	93.0872
1625.33	92.0621
1626.87	90.5766
1628.4	89.8657
1629.94	89.6229
1631.48	89.769
1633.01	88.9519
1634.55	90.3549
1636.08	90.4503
1637.61	90.8966
1639.15	90.9841
1640.68	92.0274
1642.21	94.3435
1643.75	94.8157
1645.28	95.4906
1646.81	96.9044
1648.34	97.5089
1649.88	98.2394
1651.41	98.5834
1652.94	98.5356
1654.47	98.5427
1656	97.7775
1657.53	97.4258
1659.06	96.2958
1660.59	95.2962
1662.12	94.7806
1663.65	93.4016
1665.18	91.9095
1666.71	89.8533
1668.24	88.0412
1669.76	86.1254
1671.29	83.8133
1672.82	81.2387
1674.35	78.8294
1675.87	75.64
1677.4	72.5155
1678.93	70.502
1680.45	67.5989
1681.98	63.2874
1683.5	60.4947
1685.03	56.2308
1686.55	52.9501
1688.08	51.2084
1689.6	48.872
1691.13	46.7311
1692.65	45.4535
1694.17	43.5266
1695.7	40.9168
1697.22	37.9032
1698.74	34.7604
1700.27	31.915
1701.79	30.2653
1703.31	29.0226
1704.83	27.7327
1706.35	25.7925
1707.87	24.5372
1709.39	23.5213
1710.91	22.1584
1712.43	20.7411
1713.95	19.5224
1715.47	18.807
1716.99	17.9121
1718.51	16.9657
1720.03	15.2466
1721.55	13.8594
1723.07	13.3129
1724.58	12.2067
1726.1	10.9026
1727.62	10.4434
1729.13	9.45217
1730.65	8.85372
1732.17	7.96776
1733.68	7.76281
1735.2	6.78888
1736.72	5.87751
1738.23	5.72168
1739.74	5.45283
1741.26	4.33316
1742.77	3.43179
1744.29	2.66952
1745.8	2.89953
1747.32	2.54995
1748.83	2.84226
1750.34	2.42862
1751.85	2.37154
1753.37	2.62256
1754.88	2.59073
1756.39	3.13443
1757.9	3.34022
1759.41	4.0998
1760.92	4.57139
1762.44	5.34584
1763.95	5.8756
1765.46	5.23135
1766.96	5.48183
1768.47	5.38777
1769.98	4.99672
1771.49	4.41153
1773	4.0542
1774.51	4.17231
1776.02	4.98568
1777.53	5.10664
1779.03	4.78806
1780.54	4.14776
1782.05	4.08357
1783.55	4.00785
1785.06	3.70198
1786.57	3.31966
1788.07	3.91848
1789.58	3.86067
1791.08	3.91965
1792.59	3.94121
1794.09	3.8333
1795.6	3.77536
1797.1	3.48459
1798.61	3.41018
1800.11	2.93678
1801.61	2.70136
1803.12	2.98554
1804.62	3.40452
1806.12	2.92932
1807.62	2.76569
1809.12	2.66859
1810.63	2.17225
1812.13	1.98243
1813.63	1.95138
1815.13	1.91108
1816.63	2.27297
1818.13	2.21644
1819.63	2.45691
1821.13	3.14676
1822.63	2.7457
1824.13	2.95993
1825.63	3.4549
1827.13	4.16687
1828.62	4.74461
1830.12	4.47177
1831.62	4.36931
1833.12	3.78908
1834.61	3.52527
1836.11	3.42371
1837.61	3.1935
1839.1	3.3325
1840.6	3.25347
1842.09	3.69073
1843.59	3.47344
1845.09	3.56837
1846.58	3.50096
1848.08	2.96732
1849.57	2.80046
1851.06	2.503
1852.56	1.81017
1854.05	1.68293
1855.54	1.64348
1857.04	2.59337
1858.53	3.23172
1860.02	3.86044
1861.51	3.14571
1863.01	3.08567
1864.5	2.7647
1865.99	2.02977
1867.48	2.10507
1868.97	1.69691
1870.46	1.8542
1871.95	1.60715
1873.44	1.64961
1874.93	2.07107
1876.42	2.793
1877.91	3.02653
1879.4	3.35009
1880.89	2.87714
1882.37	2.96516
1882.46	3.35587
1883.95	3.28279
1885.45	3.5228
1886.94	4.2279
1888.43	5.07712
1889.93	5.62604
1891.42	5.56123
1892.91	5.62458
1894.41	5.90226
1895.9	6.51618
1897.39	6.9484
1898.88	7.27937
1900.37	7.45793
1901.86	7.90589
1903.36	8.43001
1904.85	8.19964
1906.34	8.01005
1907.83	8.65757
1909.32	8.46683
1910.81	8.45337
1912.29	9.1619
1913.78	8.78253
1915.27	8.63204
1916.76	8.06424
1918.25	8.55836
1919.74	7.94441
1921.23	7.47145
1922.71	8.39982
1924.2	8.13397
1925.69	8.0142
1927.17	8.88064
1928.66	9.4333
1930.15	9.57701
1931.63	9.35098
1933.12	8.71158
1934.6	8.14118
1936.09	9.11113
1937.57	8.91763
1939.06	9.10188
1940.54	9.21324
1942.02	9.44009
1943.51	9.9371
1944.99	9.25714
1946.47	9.02685
1947.96	9.08357
1949.44	8.75535
1950.92	7.76687
1952.4	7.68617
1953.88	7.29735
1955.37	7.3959
1956.85	7.58154
1958.33	7.16915
1959.81	7.29578
1961.29	7.46638
1962.77	6.74756
1964.25	5.72419
1965.73	5.08117
1967.21	5.37491
1968.69	5.51103
1970.16	5.23246
1971.64	5.19218
1973.12	5.05839
1974.6	4.49195
1976.08	4.34053
1977.55	4.06976
1979.03	3.27534
1980.51	3.8123
1981.98	3.75624
1983.46	3.3457
1984.94	3.85054
1986.41	4.73323
1987.89	4.15167
1989.36	3.91396
1990.84	4.26224
1992.31	4.67181
1993.79	4.45516
1995.26	4.5715
1996.73	4.12738
1998.21	4.00953
1999.68	4.15847
2001.15	4.54539
2002.63	4.71311
2004.1	5.32662
2005.57	5.50293
2007.04	5.97663
2008.51	6.00679
2009.99	6.14995
2011.46	5.37998
2012.93	5.48076
2014.4	5.13409
2015.87	6.08128
2017.34	5.86842
2018.81	5.50279
2020.28	5.38573
2021.75	5.66312
2023.21	5.66198
2024.68	6.52438
2026.15	7.44276
2027.62	8.21027
2029.09	8.82555
2030.56	9.27362
2032.02	9.51767
2033.49	9.8245
2034.96	9.89303
2036.42	9.67868
2037.89	10.2338
2039.36	10.5976
2040.82	10.783
2042.29	10.608
2043.75	11.3922
2045.22	11.7997
2046.68	11.2969
2048.14	11.453
2049.61	11.9033
2051.07	11.9656
2052.54	12.2088
2054	11.9879
2055.46	11.7573
2056.93	11.8007
2058.39	11.928
2059.85	12.0057
2061.31	11.8966
2062.77	12.1303
2064.23	12.3082
2065.7	11.9902
2067.16	12.4908
2068.62	12.6748
2070.08	12.6868
2071.54	12.4353
2073	12.8501
2074.46	12.4584
2075.92	12.4017
2077.38	12.2745
2078.83	11.3843
2080.29	10.9612
2081.75	10.7441
2083.21	11.0292
2084.67	10.9883
2086.12	11.046
2087.58	11.1546
2089.04	11.784
2090.49	11.5003
2091.95	11.4984
2093.41	11.6378
2094.86	11.7963
2096.32	11.785
2097.77	12.3597
2099.23	12.5884
2100.68	13.6998
2102.14	13.8686
2103.59	14.2747
2105.05	14.0637
2106.5	14.9276
2107.95	15.4973
2109.41	15.8733
2110.86	16.5502
2112.31	17.2382
2113.76	17.7548
2115.21	18.5382
2116.67	19.496
2118.12	19.5687
2119.57	20.9008
2121.02	21.7986
2122.47	22.9411
2123.92	23.9648
2125.37	25.0542
2126.82	26.0359
2128.27	27.6193
2129.72	29.0648
2131.17	29.9916
2132.62	32.1039
2134.07	33.15
2135.51	33.76
2136.96	34.6254
2138.41	35.7611
2139.86	37.2949
2141.31	38.2323
2142.75	38.3031
2144.2	38.6262
2145.65	39.7633
2147.09	39.7988
2148.54	41.1426
2149.98	41.7888
2151.43	42.0234
2152.87	42.8572
2154.32	43.7315
2155.76	44.0476
2157.21	44.4377
2158.65	45.0252
2160.1	46.1003
2161.54	46.6185
2162.98	47.4284
2164.43	47.7475
2165.87	48.332
2167.31	48.8485
2168.75	49.9279
2170.2	51.2148
2171.64	52.03
2173.08	52.4996
2174.52	52.2811
2175.96	52.4973
2177.4	52.9139
2178.84	53.5664
2180.28	53.2982
2181.72	53.1086
2183.16	52.1581
2184.6	52.0751
2186.04	51.2033
2187.48	51.4182
2188.92	50.672
2190.36	49.9083
2191.79	49.4178
2193.23	47.8238
2194.67	47.7095
2196.11	46.6352
2197.54	45.9401
2198.98	44.4274
2200.42	42.9294
2201.85	41.4538
2203.29	39.6654
2204.72	39.0345
2206.16	37.8047
2207.59	36.6112
2209.03	35.642
2210.46	34.3917
2211.9	33.1955
2213.33	31.6847
2214.77	29.4971
2216.2	27.8993
2217.63	27.0938
2219.07	25.9578
2220.5	24.7438
2221.93	23.4144
2223.36	22.4839
2224.8	22.3268
2226.23	22.0479
2227.66	21.6092
2229.09	21.144
2230.52	20.6359
2231.95	20.1768
2233.39	19.755
2234.81	19.7738
2236.25	19.3106
2237.67	19.441
2239.1	19.6164
2240.53	19.5732
2241.96	18.9156
2243.39	19.359
2244.82	18.9718
2246.25	19.071
2247.68	19.4188
2249.1	18.7769
2250.53	18.2819
2251.96	17.9399
2253.38	17.5867
2254.81	16.8434
2256.24	17.145
2257.66	16.4998
2259.09	16.2781
2260.51	16.7348
2261.94	16.7623
2263.36	16.7399
2264.79	16.4166
2266.21	16.7109
2267.64	16.104
2269.06	15.8155
2270.49	15.8104
2271.91	16.1563
2273.33	16.045
2274.76	15.985
2276.18	16.0109
2277.6	15.9311
2279.02	15.3119
2280.44	15.6705
2281.87	15.7793
2283.29	15.5393
2284.71	14.9489
2286.13	14.9387
2287.55	14.8757
2288.97	15.7103
2290.39	15.4985
2291.81	15.1379
2293.23	14.3156
2294.65	14.2886
2296.07	14.7895
2297.49	14.6353
2298.91	14.4912
2300.33	14.5445
2301.74	14.896
2303.16	15.708
2304.58	16.7373
2306	16.4125
2307.41	16.6452
2308.83	16.7764
2310.25	17.1215
2311.66	16.7381
2313.08	16.1626
2314.5	16.1336
2315.91	14.8957
2317.33	14.0644
2318.74	13.4046
2320.16	12.3635
2321.57	11.9829
2322.98	11.3431
2324.4	10.7639
2325.81	9.87214
2327.23	9.97095
2328.64	9.85331
2330.05	9.36969
2331.46	9.44816
2332.88	8.2341
2334.29	7.63328
2335.7	7.0894
2337.11	6.75354
2338.52	6.1129
2339.94	5.79724
2341.35	5.50084
2342.76	3.7455
2344.17	3.05212
2345.58	3.05058
2346.99	2.45423
2348.4	2.19555
2349.81	1.9805
2351.22	1.98089
2352.62	1.81332
2354.03	1.13758
2355.44	0.785176
2356.85	0.713184
2358.26	0.723342
2359.67	0.538979
2361.07	0.526538
2362.48	0.205096
2363.89	0.747135
2365.29	2.07841
2366.7	2.32123
2368.11	2.75388
2369.51	3.19571
2370.92	3.8696
2372.32	3.26366
2373.73	4.04156
2375.13	3.81683
2376.54	3.37503
2377.94	3.78446
2379.35	4.23342
2380.75	4.74613
2382.15	4.74534
2383.56	5.05581
2384.96	5.20309
2386.36	5.27413
2387.76	5.78637
2389.17	6.02922
2390.57	5.85799
2391.97	6.06148
2393.37	6.16001
2394.77	6.1963
2396.17	6.16564
2397.58	6.65634
2398.98	6.52805
2400.38	5.86056
2401.78	5.7077
2403.18	5.06778
2404.58	4.88929
2405.97	4.97828
2407.37	4.84412
2408.77	5.01634
2410.17	4.83077
2411.57	4.25219
2412.97	4.1389
2414.37	4.86325
2415.76	4.79978
2417.16	4.3348
2418.56	4.61193
2419.95	4.76089
2421.35	4.87515
2422.75	4.94722
2424.14	4.7231
2425.54	4.00068
2426.93	4.11259
2428.33	4.8092
2429.72	4.52416
2431.12	4.74525
2432.51	4.24455
2433.91	4.35644
2435.3	4.89529
2436.7	4.65365
2438.09	5.11816
2439.48	4.99623
2440.88	5.1603
2442.27	5.32282
2443.66	6.4913
2445.05	6.56958
2446.44	7.30418
2447.84	7.76183
2449.23	8.23619
2450.62	7.89138
2452.01	7.87616
2453.4	7.79521
2454.79	7.41149
2456.18	7.31707
2457.57	7.06991
2458.96	6.34959
2460.35	5.74778
2461.74	5.62203
2463.13	5.33905
2464.52	5.49128
2465.91	5.21455
2467.29	5.89141
2468.68	5.11722
2470.07	4.78195
2471.46	5.07411
2472.85	5.29382
2474.23	5.2846
2475.62	5.18665
2477.01	4.83436
2478.39	4.57642
2479.78	4.28206
2481.16	3.83564
2482.55	4.16174
2483.93	4.01366
2485.32	4.07719
2486.7	4.26746
2488.09	4.45451
2489.47	4.26025
2490.86	3.66697
2492.24	3.54039
2493.62	3.08646
2495.01	3.02629
2496.39	3.85341
2497.77	4.25919
2499.15	3.62446
2500.54	3.50988
2501.92	3.52106
2503.3	3.70696
2504.68	4.22332
2506.06	3.2829
2507.45	2.80043
2508.83	2.84745
2510.21	3.04225
2511.59	2.98188
2512.97	2.01743
2514.35	1.67513
2515.73	0.79799
2517.11	0.512126
2518.48	0.517235
2519.86	0.349929
2521.24	0.405822
2522.62	0.0749639
2524	-0.22548
2525.38	-0.486304
2526.75	-0.825125
2528.13	0.117633
2529.51	-0.0392432
2530.89	1.02683
2532.26	1.66837
2533.64	1.25713
2535.02	1.71178
2536.39	2.25391
2537.77	1.26395
2539.14	1.63164
2540.52	2.12883
2541.89	2.39795
2543.27	2.14034
2544.64	2.65746
2546.01	2.70247
2547.39	2.97625
2548.76	3.7448
2550.14	4.13514
2551.51	5.0757
2552.88	5.24229
2554.25	5.51156
2555.63	5.45317
2557	5.36737
2558.37	5.5337
2559.74	5.7344
2561.11	6.77552
2562.49	6.79365
2563.86	7.37506
2565.23	7.55288
2566.6	7.80702
2567.97	8.17721
2569.34	8.32634
2570.71	8.964
2572.08	9.51142
2573.45	9.57838
2574.82	9.07908
2576.18	9.20386
2577.55	9.67618
2578.92	9.56023
2580.29	9.51797
2581.66	9.08402
2583.02	9.81336
2584.39	10.1889
2585.76	11.0238
2587.13	10.9291
2588.49	10.812
2589.86	10.8316
2591.22	10.667
2592.59	10.4716
2593.96	10.6357
2595.32	10.8344
2596.69	10.8203
2598.05	9.55107
2599.42	9.18943
2600.78	8.7944
2602.14	7.89059
2603.51	8.53797
2604.87	8.58035
2606.23	8.40375
2607.6	9.0252
2608.96	9.40987
2610.32	8.90901
2611.69	8.05171
2613.05	7.75948
2614.41	7.31274
2615.77	7.31539
2617.13	7.74416
2618.49	7.43184
2619.86	6.73077
2621.22	5.92941
2622.58	5.4797
2623.94	6.03877
2625.3	5.92233
2626.66	6.62308
2628.02	6.81395
2629.37	6.3727
2630.73	6.22375
2632.09	6.4684
2633.45	6.34249
2634.81	6.09008
2636.17	5.74999
2637.53	5.16714
2638.88	5.84824
2640.24	5.40515
2641.6	5.31302
2642.96	5.09725
2644.31	5.36491
2645.67	5.92493
2647.02	6.56626
2648.38	6.55975
2649.74	6.54156
2651.09	6.60875
2652.45	6.52197
2653.8	6.01562
2655.16	5.59654
2656.51	5.33875
2657.86	5.08369
2659.22	4.80965
2660.57	5.0348
2661.93	4.88045
2663.28	4.06324
2664.63	4.27902
2665.98	4.60176
2667.34	4.7698
2668.69	4.99308
2670.04	4.72843
2671.39	5.53062
2672.75	5.66874
2674.09	5.17821
2675.45	4.81065
2676.8	4.07763
2678.15	3.71308
2679.5	3.84782
2680.85	4.16485
2682.2	4.12064
2683.55	4.43233
2684.9	4.58039
2686.25	3.83538
2687.6	3.7262
2688.94	4.08495
2690.29	4.79067
2691.64	4.96301
2692.99	4.54759
2694.34	4.57372
2695.68	4.01376
2697.03	4.05159
2698.38	4.44246
2699.73	4.7059
2701.07	4.35746
2702.42	4.94893
2703.76	5.71967
2705.11	6.62434
2706.45	7.44508
2707.8	8.00873
2709.15	8.3916
2710.49	9.26664
2711.83	10.2535
2713.18	11.3729
2714.52	11.8914
2715.87	11.5834
2717.21	11.8997
2718.55	11.9078
2719.9	12.4753
2721.24	12.7894
2722.58	13.1523
2723.93	13.8604
2725.27	14.424
2726.61	14.5352
2727.95	14.2325
2729.29	14.1642
2730.63	14.5889
2731.98	15.1253
2733.32	14.4492
2734.66	13.8145
2736	13.7355
2737.34	13.2461
2738.68	13.3992
2740.02	12.3608
2741.36	11.7773
2742.7	11.3071
2744.03	10.4964
2745.37	10.5984
2746.71	10.8084
2748.05	9.69086
2749.39	8.65077
2750.72	8.7754
2752.06	8.25777
2753.4	7.52239
2754.74	7.30718
2756.07	7.0135
2757.41	6.37918
2758.75	6.07351
2760.08	5.82375
2761.42	5.45243
2762.76	5.58385
2764.09	5.33897
2765.42	4.48464
2766.76	3.86632
2768.09	3.65663
2769.43	3.57153
2770.76	3.40831
2772.1	3.21557
2773.43	2.94701
2774.76	2.47941
2776.1	2.49156
2777.43	3.08761
2778.76	2.58709
2780.1	2.71184
2781.43	2.73869
2782.76	1.85668
2784.09	1.60775
2785.42	1.47519
2786.75	1.21328
2788.09	1.2461
2789.42	0.710685
2790.75	1.20732
2792.08	0.621683
2793.41	0.39264
2794.74	0.0792986
2796.07	0.0553232
2797.4	-0.360383
2798.73	-0.920777
2800.06	-1.05862
2801.39	-1.29009
2802.71	-1.6278
2804.04	-1.54003
2805.37	-1.29598
2806.7	-1.63202
2808.03	-1.83734
2809.35	-1.9069
2810.68	-2.07566
2812.01	-1.6354
2813.33	-1.61306
2814.66	-1.69718
2815.99	-0.979003
2817.31	0.0977994
2818.64	0.0475776
2819.96	1.00173
2821.29	2.187
2822.61	3.60745
2823.94	5.39855
2825.26	6.98109
2826.59	8.25953
2827.91	10.0686
2829.23	11.7922
2830.56	13.2524
2831.88	15.6372
2833.21	18.3717
2834.53	20.8792
2835.85	23.2005
2837.17	26.3154
2838.5	28.7762
2839.82	31.9438
2841.14	35.564
2842.46	39.7507
2843.78	43.4591
2845.1	47.1679
2846.42	51.1153
2847.74	55.1325
2849.06	58.7822
2850.38	63.6075
2851.71	68.2265
2853.03	72.2548
2854.34	76.8139
2855.66	81.0061
2856.98	84.9923
2858.3	89.0014
2859.62	93.2652
2860.94	98.0059
2862.26	102.15
2863.57	106.247
2864.89	110.014
2866.21	113.549
2867.53	116.993
2868.84	120.048
2870.16	122.569
2871.48	124.743
2872.79	127.497
2874.11	129.424
2875.42	131.807
2876.74	134.039
2878.05	136.261
2879.37	137.901
2880.68	139.684
2882	141.4
2883.31	143.432
2884.63	145.053
2885.94	147.333
2887.26	148.971
2888.57	151.109
2889.88	153.33
2891.19	155.074
2892.51	157.242
2893.82	159.521
2895.13	161.749
2896.44	164.563
2897.76	167.324
2899.07	170.706
2900.38	173.853
2901.69	177.662
2903	182.07
2904.31	186.937
2905.62	192.921
2906.93	198.482
2908.24	204.011
2909.55	209.271
2910.86	214.518
2912.17	220.096
2913.48	226.209
2914.79	231.154
2916.1	236.59
2917.41	241.416
2918.71	245.919
2920.02	250.161
2921.33	253.802
2922.64	257.393
2923.94	261.519
2925.25	263.143
2926.56	265.731
2927.86	266.739
2929.17	267.442
2930.48	267.639
2931.78	267.379
2933.09	266.612
2934.39	264.993
2935.7	262.835
2937	261.273
2938.31	258.818
2939.61	255.57
2940.92	252.376
2942.22	248.588
2943.53	244.204
2944.83	239.91
2946.13	235.505
2947.43	231.099
2948.74	226.163
2950.04	220.7
2951.34	216.095
2952.64	210.989
2953.95	206.455
2955.25	201.536
2956.55	196.336
2957.85	191.271
2959.15	186.638
2960.45	182.396
2961.75	177.982
2963.05	173.809
2964.35	170.257
2965.65	166.658
2966.95	162.878
2968.25	159.862
2969.55	156.071
2970.85	153.009
2972.15	149.217
2973.45	145.297
2974.75	141.235
2976.05	136.835
2977.34	133.38
2978.64	129.151
2979.94	124.708
2981.24	120.343
2982.53	115.499
2983.83	110.892
2985.13	106.231
2986.42	101.879
2987.72	97.5022
2989.01	92.8105
2990.31	87.3876
2991.61	83.5684
2992.9	78.7708
2994.19	74.1347
2995.49	69.3551
2996.78	65.2514
2998.08	60.9329
2999.37	56.6936
3000.67	52.5249
3001.96	49.1188
3003.25	45.3223
3004.55	41.4782
3005.84	37.5363
3007.13	34.2019
3008.42	31.4056
3009.72	28.7617
3011.01	25.8913
3012.3	23.8943
3013.59	21.5158
3014.88	19.591
3016.17	18.2364
3017.46	15.9747
3018.76	14.3808
3020.05	13.524
3021.34	12.3701
3022.63	11.7604
3023.92	11.582
3025.21	11.0624
3026.49	10.1786
3027.78	9.51895
3029.07	8.88688
3030.36	8.79531
3031.65	8.37363
3032.94	8.89784
3034.23	9.11745
3035.51	9.72105
3036.8	9.42175
3038.09	9.71356
3039.38	10.1572
3040.66	10.4892
3041.95	11.488
3043.23	11.3358
3044.52	12.1766
3045.81	12.875
3047.09	14.475
3048.38	15.0726
3049.66	15.509
3050.95	16.0704
3052.23	16.4633
3053.52	17.1639
3054.8	17.0399
3056.09	17.9004
3057.37	17.6412
3058.65	17.7599
3059.94	17.777
3061.22	17.6494
3062.5	16.6972
3063.79	16.299
3065.07	16.0178
3066.35	15.8676
3067.63	15.6776
3068.92	15.2244
3070.2	14.7957
3071.48	14.6118
3072.76	13.9227
3074.04	13.0544
3075.32	12.0475
3076.6	10.9755
3077.88	9.70814
3079.16	8.80967
3080.44	7.73921
3081.72	6.82006
3083	6.38737
3084.28	6.22228
3085.56	5.14648
3086.84	4.26673
3088.12	3.91403
3089.4	3.08243
3090.67	2.72444
3091.95	2.19773
3093.23	1.7878
3094.51	1.67381
3095.78	1.74991
3097.06	1.48243
3098.34	1.68555
3099.61	1.71043
3100.89	1.25511
3102.17	1.37917
3103.44	0.747895
3104.72	0.994605
3105.99	1.60075
3107.27	2.1649
3108.54	2.83503
3109.82	3.10294
3111.09	3.32654
3112.37	2.61645
3113.64	3.11706
3114.92	3.86345
3116.19	3.9534
3117.46	4.18805
3118.74	4.29959
3120.01	5.01333
3121.28	4.88889
3122.55	5.73404
3123.83	6.07652
3125.1	6.27971
3126.37	7.03935
3127.64	8.03629
3128.91	8.73218
3130.19	9.34411
3131.46	9.69205
3132.73	9.33875
3134	9.52862
3135.27	9.94125
3136.54	10.2292
3137.81	10.689
3139.08	11.2252
3140.35	11.8656
3141.62	12.7843
3142.89	13.6664
3144.16	14.6865
3145.42	15.6062
3146.69	16.3598
3147.96	17.3062
3149.23	18.379
