#Acq. time (s)=	45
#Accumulations=	2
#Range (cm-¹)=	200...3150
#Windows=	2
#Auto scanning=	Off
#Autofocus=	Off
#Macrospot=	Off
#AutoExposure=	Off
#Spike filter=	Multiple accum.
#Delay time (s)=	0
#Binning=	1
#Readout mode=	Signal
#DeNoise=	Off
#ICS correction=	On
#Dark correction=	Off
#Inst. Process=	Off
#Detector Gain=	Best Dynamic Range
#Detector ADC=	20 kHz       
#Detector temperature (°C)=	-69.85
#Instrument=	LabRAM HR Evol
#Detector=	Synapse
#Objective=	x100
#Grating=	600 gr/mm
#ND Filter=	100%
#Laser (nm)=	532 
#Hole=	100.021
#Range=	Auto
#Laser Pol.=	No
#Raman. Pol.=	No
#Laser Pol. (°)=	-0.0007625
#Raman Pol. (°)=	89.9995
#Collection=	Microscope
#StageXY=	Marzhauser
#StageZ=	Marzhauser
#X (µm)=	-5086.4
#Y (µm)=	1505.1
#Z (µm)=	62.8
#Full time(mm:ss)=	3:18
#Project=	
#Sample=	
#Site=	
#Title=	Thy_50_12_02_2x_45s_532 nm_x100_100%_600 gr_mm
#Remark=	
#Date=	07.07.2022 09:15
#Acquired=	07.07.2022 09:15:06
#Base:Fit=	10.08.2022 10:03:08
#Base:Fit=	10.08.2022 10:03:15
#Base:Fit=	10.08.2022 10:03:19
#Base:Fit=	10.08.2022 10:04:29
#Base:Sub=	10.08.2022 10:04:45
#Filter:Polynom=	16.08.2022 10:20:24
#AxisType[0]=Intens
#AxisUnit[0]=Cnt
#AxisType[1]=Spectr
#AxisUnit[1]=1/cm
200.43	37.0608
202.246	34.2272
204.061	30.9427
205.875	29.1002
207.688	28.0601
209.501	27.1308
211.316	26.4415
213.129	25.4338
214.941	24.0271
216.753	21.8197
218.566	20.7835
220.377	18.3914
222.188	17.719
223.999	16.5035
225.809	15.4989
227.618	14.4361
229.43	14.2047
231.239	13.0203
233.047	13.5529
234.855	14.2363
236.663	13.6177
238.471	13.6641
240.278	13.0334
242.087	12.6522
243.894	12.4049
245.7	12.2625
247.506	13.1755
249.311	13.4616
251.116	14.1215
252.921	14.2123
254.725	14.3892
256.529	14.7873
258.333	14.6725
260.136	14.8715
261.939	14.6078
263.744	14.2189
265.546	13.8752
267.348	11.8383
269.15	11.2619
270.951	11.3831
272.752	12.0736
274.552	11.019
276.353	10.8393
278.152	10.766
279.952	10.918
281.751	10.962
283.55	12.1832
285.348	12.1246
287.146	12.0972
288.942	12.0909
290.739	12.7074
292.536	12.6313
294.333	13.2308
296.129	12.8268
297.925	12.2042
299.721	12.3183
301.516	12.317
303.311	12.2907
305.106	12.2671
306.9	12.5476
308.694	13.3912
310.486	12.4871
312.279	13.3648
314.072	13.3952
315.864	13.9973
317.656	14.1649
319.448	14.2766
321.24	14.9134
323.029	15.8098
324.819	15.5
326.61	14.9052
328.4	15.7776
330.19	16.0083
331.977	16.821
333.766	16.9568
335.555	16.8324
337.343	17.3942
339.131	16.6553
340.917	16.5842
342.704	16.0834
344.491	16.0331
346.277	16.8914
348.062	16.3802
349.848	14.9676
351.633	14.2061
353.416	13.1173
355.201	12.6239
356.986	11.7572
358.77	12.6798
360.552	12.7028
362.335	11.6478
364.118	11.2983
365.899	12.0327
367.682	12.034
369.464	12.6563
371.243	12.3439
373.025	12.5695
374.806	12.8413
376.585	12.6125
378.365	13.4533
380.143	13.1417
381.923	12.5459
383.702	13.6202
385.479	14.076
387.258	14.1538
389.034	14.8541
390.812	15.3259
392.59	14.936
394.365	13.9416
396.142	13.4919
397.916	11.9446
399.693	10.9577
401.467	10.5321
403.242	10.0581
405.015	10.3054
406.79	9.55953
408.565	9.77076
410.337	9.65346
412.111	8.82683
413.882	8.14614
415.656	8.4803
417.426	8.93641
419.197	8.88251
420.969	7.94934
422.739	7.88946
424.51	6.94091
426.279	7.24562
428.05	6.39199
429.819	6.48587
431.589	6.76486
433.356	5.85896
435.124	6.06494
436.893	4.2932
438.66	4.26409
440.428	4.86715
442.194	5.29352
443.96	5.8284
445.727	5.91475
447.492	6.63482
449.259	7.27961
451.023	7.65192
452.787	8.86748
454.553	9.51068
456.316	9.73768
458.079	10.7182
459.844	11.4808
461.606	11.6576
463.368	11.4865
465.132	11.2818
466.893	12.9962
468.654	12.0558
470.415	13.0392
472.177	14.1178
473.937	14.9349
475.696	14.7285
477.456	14.9865
479.217	15.4748
480.975	16.7026
482.733	16.9469
484.491	17.0686
486.251	17.58
488.008	18.0918
489.765	18.7647
491.522	19.2037
493.278	20.4665
495.036	19.4231
496.791	19.9178
498.546	19.7075
500.301	20.3668
502.056	21.13
503.81	22.1752
505.566	21.7573
507.319	21.9967
509.073	22.2674
510.825	22.7499
512.578	22.1293
514.33	22.6729
516.082	22.6207
517.833	23.1119
519.587	23.3232
521.337	22.7813
523.088	23.9821
524.838	24.069
526.588	23.9145
528.337	24.0009
530.087	24.3459
531.835	23.4108
533.584	23.4751
535.332	23.7075
537.08	22.4649
538.827	21.2086
540.574	21.1789
542.321	20.6364
544.068	19.5509
545.814	19.2447
547.56	18.0124
549.305	16.5652
551.05	16.5953
552.795	16.023
554.54	16.0757
556.284	15.0806
558.027	14.6975
559.771	14.2143
561.514	14.3237
563.257	12.2639
564.999	11.9102
566.742	11.7431
568.481	10.5465
570.223	9.56314
571.964	7.63784
573.705	7.4076
575.445	5.21915
577.185	4.7758
578.925	3.68599
580.665	3.65348
582.402	2.34028
584.141	2.49699
585.879	2.20402
587.617	1.92223
589.355	1.97228
591.092	1.74327
592.828	1.62539
594.564	1.85742
596.301	2.244
598.037	2.65989
599.773	2.71937
601.506	3.3506
603.242	3.98313
604.976	4.35843
606.711	4.83127
608.443	5.09542
610.177	6.15267
611.91	6.29433
613.644	6.16582
615.374	6.92782
617.107	7.58836
618.839	8.04142
620.569	8.24569
622.3	7.71332
624.032	7.73006
625.761	8.01805
627.491	8.55588
629.221	8.79872
630.949	9.58759
632.679	11.0943
634.408	11.2933
636.135	11.9558
637.863	13.2371
639.592	12.9898
641.318	14.0157
643.045	13.8007
644.77	14.0143
646.497	14.0107
648.224	14.6241
649.948	14.7304
651.674	15.355
653.398	15.7831
655.123	15.7531
656.846	16.8037
658.57	16.4049
660.293	16.8325
662.017	16.914
663.738	18.0442
665.462	18.1686
667.185	18.0407
668.905	18.7536
670.628	18.9471
672.348	19.5114
674.067	21.1585
675.789	21.5786
677.508	22.5679
679.228	22.8887
680.947	22.9818
682.667	25.0999
684.385	25.798
686.104	26.2285
687.821	26.9075
689.538	27.618
691.256	27.6575
692.972	28.4517
694.69	28.4389
696.406	29.2689
698.121	29.5432
699.837	30.1548
701.552	31.4843
703.268	33.129
704.982	32.9538
706.695	32.7188
708.41	33.6352
710.123	35.1262
711.836	37.097
713.55	39.5536
715.262	41.3128
716.973	42.5716
718.685	43.5571
720.398	44.8334
722.108	46.805
723.818	47.4192
725.53	46.8501
727.24	47.5335
728.949	47.9993
730.658	48.5904
732.369	48.8903
734.077	50.1454
735.785	50.8017
737.493	51.6171
739.2	53.1373
740.909	53.6913
742.616	54.6513
744.322	54.7338
746.028	55.6126
747.734	57.2936
749.441	57.8915
751.146	59.4874
752.851	61.4446
754.555	63.9634
756.26	64.3454
757.963	66.0091
759.667	67.3351
761.372	67.9029
763.075	69.2802
764.777	69.3275
766.479	70.3805
768.181	70.8067
769.883	70.5023
771.584	71.3989
773.285	71.4881
774.986	72.8413
776.686	72.6238
778.386	73.1078
780.085	73.633
781.785	75.1584
783.484	76.2752
785.182	77.425
786.881	78.6152
788.579	79.4041
790.276	78.9972
791.974	79.9589
793.671	80.9243
795.367	82.149
797.064	82.9029
798.76	82.4555
800.456	81.9219
802.151	81.8475
803.846	82.3009
805.541	82.6106
807.236	81.9936
808.93	80.5158
810.624	79.2769
812.317	78.9709
814.01	79.2132
815.703	79.175
817.394	79.6093
819.086	78.6365
820.778	78.9962
822.47	79.2542
824.161	79.2143
825.852	78.5162
827.543	78.2204
829.231	77.7591
830.921	78.1602
832.611	78.2055
834.3	77.4584
835.989	77.9998
837.676	77.7503
839.364	76.1085
841.053	75.0215
842.74	74.302
844.426	72.8778
846.113	71.3888
847.8	69.3216
849.486	68.2378
851.171	67.308
852.857	64.9501
854.542	64.2605
856.227	64.1064
857.911	63.0501
859.595	61.8683
861.279	60.1405
862.961	60.0362
864.645	59.5158
866.329	57.9259
868.01	57.3084
869.692	56.4786
871.375	56.2537
873.055	55.2368
874.737	53.5093
876.418	51.815
878.097	51.1391
879.778	50.4391
881.457	49.3751
883.137	48.4493
884.817	48.6823
886.495	48.5503
888.174	47.9287
889.851	47.6178
891.53	46.4523
893.206	46.5201
894.884	45.9757
896.562	46.7769
898.237	47.8734
899.914	48.2472
901.589	48.0871
903.265	47.8176
904.94	49.4939
906.615	49.2443
908.289	48.5268
909.964	48.4362
911.637	48.0038
913.31	47.2945
914.984	47.7845
916.656	48.3106
918.33	48.0313
920.001	48.8918
921.674	48.1411
923.345	46.3047
925.015	46.2995
926.687	45.0633
928.357	44.3509
930.028	43.1921
931.698	42.3366
933.366	40.4623
935.037	38.8999
936.705	37.6177
938.373	37.6007
940.043	37.6341
941.71	37.1449
943.379	35.3525
945.046	34.4003
946.712	33.3381
948.378	31.8998
950.046	31.268
951.711	31.6764
953.376	31.6523
955.043	30.7307
956.708	29.4131
958.372	28.372
960.036	28.6077
961.701	28.7519
963.364	29.4289
965.027	29.4078
966.69	30.578
968.354	32.3264
970.016	32.2277
971.678	32.816
973.339	32.822
975	33.5233
976.661	35.2762
978.324	36.0142
979.984	38.2802
981.644	38.969
983.303	39.8792
984.962	39.6446
986.621	40.4382
988.282	41.7394
989.94	41.7717
991.598	42.2728
993.256	43.6212
994.913	43.6735
996.57	44.4231
998.227	45.2836
999.884	45.2729
1001.54	44.7803
1003.2	44.2237
1004.85	42.0948
1006.51	41.3635
1008.16	41.6518
1009.82	40.3272
1011.47	38.7825
1013.12	37.2888
1014.78	36.1245
1016.43	35.7651
1018.08	37.7505
1019.74	37.1102
1021.39	36.741
1023.04	36.7264
1024.69	37.4099
1026.34	36.0087
1028	36.4451
1029.65	36.3767
1031.3	36.9303
1032.95	37.7212
1034.6	37.9051
1036.25	37.6929
1037.9	37.0192
1039.55	37.4625
1041.19	36.53
1042.84	36.3063
1044.49	34.9404
1046.14	35.8473
1047.79	36.1081
1049.43	36.6067
1051.08	35.4151
1052.73	34.4135
1054.37	34.305
1056.02	34.3923
1057.66	35.73
1059.31	36.1059
1060.95	35.6899
1062.6	35.4703
1064.24	34.3364
1065.88	34.3373
1067.53	33.2097
1069.17	33.6537
1070.81	33.7651
1072.46	32.6881
1074.1	32.2934
1075.74	31.1116
1077.38	28.8315
1079.02	28.5802
1080.66	26.6579
1082.3	25.9019
1083.94	24.9225
1085.58	23.7283
1087.22	23.4993
1088.86	23.2717
1090.5	22.3416
1092.14	21.3025
1093.78	20.8068
1095.42	20.7429
1097.05	20.681
1098.69	20.7874
1100.33	21.2549
1101.97	19.9319
1103.6	20.9176
1105.24	21.6515
1106.87	21.478
1108.51	20.4318
1110.15	20.7215
1111.78	20.2705
1113.41	19.9051
1115.05	19.0361
1116.68	17.8667
1118.31	16.4792
1119.95	15.1643
1121.58	14.5696
1123.21	13.6972
1124.85	12.9361
1126.48	12.3498
1128.11	13.1676
1129.74	12.4284
1131.37	10.4628
1133	9.58319
1134.63	10.4864
1136.26	10.3965
1137.89	10.5922
1139.52	9.74846
1141.15	9.23932
1142.78	8.81407
1144.41	9.00704
1146.04	9.14049
1147.66	8.10794
1149.29	7.80077
1150.92	7.86128
1152.55	7.83412
1154.17	7.48923
1155.8	6.89749
1157.43	6.02273
1159.05	6.02657
1160.68	7.05398
1162.3	6.19047
1163.93	6.54343
1165.55	7.10165
1167.17	7.85658
1168.8	7.81726
1170.42	7.26875
1172.05	7.82877
1173.67	7.5123
1175.29	6.7566
1176.91	6.71363
1178.54	7.09111
1180.16	7.10516
1181.78	7.92341
1183.4	8.12528
1185.02	8.32916
1186.64	8.2353
1188.26	7.41488
1189.88	6.96463
1191.5	6.29203
1193.12	6.04146
1194.74	5.78605
1196.36	5.98059
1197.97	5.70969
1199.59	5.54302
1201.21	5.08274
1202.83	5.3489
1204.44	5.27385
1206.06	5.40642
1207.68	6.8748
1209.29	8.92153
1210.91	8.8105
1212.52	9.56346
1214.14	11.7899
1215.75	13.7629
1217.37	15.3132
1218.98	16.5977
1220.6	17.067
1222.21	19.2634
1223.82	20.8558
1225.44	21.8867
1227.05	24.1901
1228.66	25.5172
1230.27	28.4905
1231.88	30.0916
1233.49	30.8241
1235.1	32.7992
1236.72	35.2236
1238.33	37.3087
1239.94	38.8199
1241.55	41.2983
1243.16	42.8896
1244.76	45.9097
1246.37	48.6755
1247.98	50.4561
1249.59	51.3511
1251.2	52.326
1252.8	53.5966
1254.41	55.033
1256.02	57.0503
1257.63	59.6281
1259.23	60.7118
1260.84	62.726
1262.44	64.7643
1264.05	65.8316
1265.66	66.9511
1267.26	67.5703
1268.87	67.2416
1270.47	68.2744
1272.07	69.4459
1273.68	70.5024
1275.28	71.659
1276.88	72.2672
1278.48	73.5554
1280.09	74.4626
1281.69	74.2273
1283.29	75.4286
1284.89	76.2842
1286.49	77.8661
1288.09	79.458
1289.69	80.3733
1291.3	80.2029
1292.9	79.8436
1294.49	81.0279
1296.09	81.8513
1297.69	81.6703
1299.29	81.4916
1300.89	81.2058
1302.49	82.2482
1304.09	82.8708
1305.68	82.7217
1307.28	83.1145
1308.88	82.2435
1310.47	82.1825
1312.07	80.6605
1313.66	80.2444
1315.26	81.3721
1316.86	80.4528
1318.45	79.6548
1320.05	78.8836
1321.64	79.2021
1323.23	78.9341
1324.83	78.5903
1326.42	77.0323
1328.01	75.9734
1329.61	74.8439
1331.2	73.7577
1332.79	72.8898
1334.38	72.0453
1335.98	70.0234
1337.57	68.584
1339.16	66.377
1340.75	64.6281
1342.34	61.9502
1343.93	58.9391
1345.52	57.2481
1347.11	55.2547
1348.7	53.6484
1350.29	53.2651
1351.87	51.8808
1353.46	51.0713
1355.05	49.8406
1356.64	48.0729
1358.23	46.8203
1359.81	44.7787
1361.4	43.9332
1362.99	42.8213
1364.57	42.0237
1366.16	41.9206
1367.74	41.2599
1369.33	40.8293
1370.91	39.4669
1372.5	38.6273
1374.08	39.4922
1375.67	38.8296
1377.25	38.8081
1378.83	38.5948
1380.42	38.4916
1382	39.0797
1383.58	38.7297
1385.16	37.6997
1386.75	37.6055
1388.33	37.7063
1389.91	37.4277
1391.49	37.9176
1393.07	38.5443
1394.65	39.659
1396.23	40.4164
1397.81	41.6544
1399.39	41.1695
1400.97	41.0829
1402.55	40.8232
1404.13	41.4984
1405.7	41.8283
1407.28	43.0789
1408.86	44.2926
1410.44	44.929
1412.01	45.4064
1413.59	46.6266
1415.17	47.498
1416.74	48.413
1418.32	49.1685
1419.89	51.1856
1421.47	53.2529
1423.05	56.3432
1424.62	59.4196
1426.19	62.4176
1427.77	64.226
1429.34	67.4085
1430.92	69.9137
1432.49	72.7073
1434.06	73.9597
1435.63	76.8034
1437.2	79.502
1438.78	81.292
1440.35	83.4949
1441.92	85.0841
1443.49	87.3389
1445.06	89.0521
1446.63	90.0776
1448.2	91.0548
1449.77	90.548
1451.34	90.8975
1452.91	89.9904
1454.48	89.5263
1456.05	88.4067
1457.62	87.3335
1459.18	86.311
1460.75	85.3818
1462.32	83.5629
1463.89	81.8729
1465.45	79.9228
1467.02	77.9513
1468.59	75.0002
1470.15	72.3435
1471.72	69.0753
1473.28	66.2845
1474.85	63.0249
1476.41	59.5022
1477.98	55.7509
1479.54	52.9589
1481.11	51.1041
1482.67	48.8499
1484.23	45.3473
1485.8	42.4402
1487.36	39.3998
1488.92	36.0625
1490.48	33.054
1492.05	30.6501
1493.61	27.5555
1495.17	25.4215
1496.73	24.2643
1498.29	23.5846
1499.85	22.0082
1501.41	21.7686
1502.97	20.4586
1504.53	19.7599
1506.09	18.8656
1507.65	18.6388
1509.2	17.6044
1510.76	16.4206
1512.32	16.0784
1513.88	15.9415
1515.44	15.0563
1516.99	15.2637
1518.55	15.702
1520.1	16.3936
1521.66	17.0391
1523.22	17.6596
1524.77	18.4413
1526.33	19.1768
1527.88	20.1644
1529.44	21.4434
1530.99	22.5016
1532.55	23.7772
1534.1	25.1651
1535.65	27.3657
1537.21	28.9301
1538.76	31.6941
1540.31	32.945
1541.86	34.6272
1543.42	37.2336
1544.97	39.5882
1546.52	41.7192
1548.07	44.8419
1549.62	47.4072
1551.17	49.3514
1552.72	52.5125
1554.27	54.946
1555.82	56.9889
1557.37	59.8071
1558.92	61.941
1560.47	63.9016
1562.02	65.7823
1563.57	67.4221
1565.11	70.6799
1566.66	72.2278
1568.21	74.061
1569.75	76.0198
1571.3	77.9063
1572.85	79.9247
1574.39	81.703
1575.94	83.0166
1577.49	83.2028
1579.03	84.3643
1580.58	84.972
1582.12	86.0958
1583.67	86.3627
1585.21	85.2491
1586.75	85.048
1588.3	84.799
1589.84	84.5224
1591.38	83.9946
1592.93	84.5247
1594.47	84.8726
1596.01	83.8832
1597.55	82.989
1599.09	81.3129
1600.63	80.0516
1602.18	79.3182
1603.72	78.043
1605.26	76.6036
1606.8	75.5862
1608.34	74.1205
1609.87	73.1489
1611.41	73.3137
1612.95	73.1532
1614.49	72.2888
1616.03	72.7473
1617.57	72.4175
1619.11	72.2839
1620.64	73.1113
1622.18	72.8914
1623.72	72.8034
1625.25	72.6664
1626.79	72.6641
1628.32	73.8229
1629.86	75.5292
1631.4	76.6749
1632.93	78.4708
1634.47	80.6668
1636	82.7121
1637.53	84.7228
1639.07	86.1522
1640.6	88.3494
1642.14	90.7792
1643.67	91.8876
1645.2	94.2034
1646.73	95.474
1648.27	96.2392
1649.8	97.3709
1651.33	98.4869
1652.86	98.8613
1654.39	99.2855
1655.92	100.338
1657.45	99.9637
1658.98	99.7254
1660.51	97.9892
1662.04	96.8835
1663.57	96.6396
1665.1	94.6493
1666.63	92.4839
1668.16	90.861
1669.69	88.2813
1671.21	85.9366
1672.74	82.8339
1674.27	79.3927
1675.79	76.9841
1677.32	74.0463
1678.85	70.4056
1680.37	66.4221
1681.9	63.1422
1683.42	59.5873
1684.95	55.3425
1686.47	52.3953
1688	48.7271
1689.52	45.3166
1691.05	41.892
1692.57	39.3404
1694.1	35.9785
1695.62	32.7558
1697.14	29.3338
1698.66	25.9361
1700.19	23.2056
1701.71	20.9072
1703.23	18.7903
1704.75	17.1116
1706.27	15.0817
1707.79	14.4244
1709.32	14.0115
1710.83	13.0446
1712.35	12.9542
1713.88	12.2101
1715.39	11.6085
1716.91	10.8366
1718.43	10.5835
1719.95	9.91712
1721.47	9.7405
1722.99	9.3321
1724.5	9.43063
1726.02	9.19552
1727.54	9.08528
1729.06	9.12065
1730.57	9.30176
1732.09	9.34852
1733.61	9.71098
1735.12	10.1261
1736.64	10.6124
1738.15	10.4841
1739.67	10.1895
1741.18	9.62683
1742.7	9.93139
1744.21	10.2727
1745.72	9.76617
1747.24	9.4244
1748.75	8.62901
1750.26	8.31194
1751.78	8.16247
1753.29	7.27247
1754.8	6.8535
1756.31	6.95434
1757.82	6.6093
1759.34	6.16198
1760.85	6.26276
1762.36	6.37229
1763.87	5.89417
1765.38	5.76961
1766.89	5.30541
1768.4	4.90151
1769.91	4.79094
1771.41	3.51797
1772.92	2.72386
1774.43	2.57082
1775.94	2.36031
1777.45	2.20288
1778.96	1.98152
1780.46	2.7075
1781.97	2.8808
1783.48	4.08279
1784.98	4.34785
1786.49	4.38265
1788	5.01104
1789.5	4.8546
1791.01	4.59292
1792.51	4.37562
1794.01	4.65378
1795.52	4.16081
1797.02	5.08926
1798.53	4.874
1800.03	4.99179
1801.54	5.15252
1803.04	5.6491
1804.54	5.76617
1806.04	6.07984
1807.54	6.17594
1809.05	6.69164
1810.55	6.22516
1812.05	6.06946
1813.55	5.09583
1815.05	5.2389
1816.55	4.99057
1818.05	4.39256
1819.55	3.80937
1821.05	3.70547
1822.55	3.97778
1824.05	3.51284
1825.55	3.17473
1827.05	2.8441
1828.55	2.66532
1830.04	2.05032
1831.54	1.98465
1833.04	2.10129
1834.54	2.09906
1836.03	1.81601
1837.53	1.91663
1839.03	1.52476
1840.52	1.462
1842.02	1.80613
1843.51	1.44185
1845.01	1.19737
1846.5	0.827595
1848	1.16357
1849.49	1.48774
1850.99	1.62015
1852.48	1.02579
1853.97	0.280341
1855.47	-0.132567
1856.96	-0.350442
1858.45	-0.218852
1859.94	-0.104878
1861.44	0.120475
1862.93	0.257491
1864.42	0.242216
1865.91	0.191058
1867.4	0.0758978
1868.89	-0.374268
1870.38	0.0890042
1871.87	1.05961
1873.36	0.537812
1874.85	0.855365
1876.34	1.17718
1877.83	1.51124
1879.32	2.16053
1880.81	2.50743
1882.3	2.62516
1882.56	2.64158
1884.06	1.93674
1885.55	2.9939
1887.04	2.42945
1888.54	2.61308
1890.03	3.54503
1891.52	3.89729
1893.02	4.18289
1894.51	4.97563
1896	4.46668
1897.49	4.84455
1898.99	5.15182
1900.48	5.61457
1901.97	5.98549
1903.46	6.00985
1904.95	7.47706
1906.44	8.05705
1907.93	8.09614
1909.42	8.97912
1910.91	9.65105
1912.4	9.99128
1913.89	10.6827
1915.38	10.8694
1916.86	10.863
1918.35	11.3883
1919.84	11.2723
1921.33	10.5893
1922.82	10.813
1924.3	10.1878
1925.79	10.1695
1927.28	9.74781
1928.76	9.55203
1930.25	9.82408
1931.74	9.55
1933.22	10.5028
1934.71	10.9897
1936.19	10.2081
1937.67	10.8443
1939.16	10.468
1940.64	10.2864
1942.13	9.60051
1943.61	9.60384
1945.09	8.86407
1946.58	8.5855
1948.06	9.0253
1949.54	9.35245
1951.03	9.0993
1952.51	8.69486
1953.99	7.92404
1955.47	8.08787
1956.95	7.7161
1958.43	7.84511
1959.91	8.74222
1961.39	7.97747
1962.87	7.9369
1964.35	8.28662
1965.83	6.96488
1967.31	5.85482
1968.79	5.81868
1970.27	5.06927
1971.75	5.54685
1973.22	5.21388
1974.7	5.43827
1976.18	5.56556
1977.66	5.92068
1979.13	6.84507
1980.61	7.43598
1982.09	7.41714
1983.56	7.86811
1985.04	7.91576
1986.52	8.40563
1987.99	8.42305
1989.47	8.10358
1990.94	7.92335
1992.41	8.68154
1993.89	8.33421
1995.36	8.47149
1996.84	9.52344
1998.31	9.58984
1999.78	9.34916
2001.26	9.02619
2002.73	9.42209
2004.2	9.60399
2005.67	10.0211
2007.15	11.5063
2008.62	11.3529
2010.09	11.2163
2011.56	12.2501
2013.03	11.7899
2014.5	12.2543
2015.97	11.7704
2017.44	12.1618
2018.91	12.8526
2020.38	13.8141
2021.85	14.2907
2023.32	13.9949
2024.79	14.2586
2026.25	14.381
2027.72	15.3152
2029.19	16.4842
2030.66	16.2336
2032.13	17.2151
2033.59	18.0711
2035.06	17.3597
2036.53	17.0365
2037.99	17.8285
2039.46	17.6244
2040.92	17.4578
2042.39	17.7391
2043.85	18.4116
2045.32	19.162
2046.78	19.1459
2048.25	19.1076
2049.71	19.9659
2051.18	19.5411
2052.64	19.6149
2054.1	18.9968
2055.56	17.8109
2057.03	18.3158
2058.49	18.145
2059.95	18.5996
2061.42	18.5929
2062.88	19.1741
2064.34	19.6019
2065.8	20.8885
2067.26	20.5444
2068.72	21.6407
2070.18	22.3199
2071.64	22.4172
2073.1	22.8032
2074.56	23.9804
2076.02	24.7693
2077.48	26.3135
2078.94	28.0969
2080.39	29.8398
2081.85	30.53
2083.31	31.8786
2084.77	32.813
2086.22	33.7227
2087.68	35.064
2089.14	35.7388
2090.6	36.4334
2092.05	38.1963
2093.51	40.1984
2094.96	42.2438
2096.42	43.7451
2097.87	45.8895
2099.33	46.9053
2100.78	49.2651
2102.24	50.5775
2103.69	51.1465
2105.15	53.1544
2106.6	55.0168
2108.05	55.8156
2109.51	57.018
2110.96	58.2494
2112.41	58.9859
2113.86	60.1246
2115.32	61.6458
2116.77	63.5129
2118.22	64.2937
2119.67	66.123
2121.12	67.901
2122.57	69.4603
2124.02	70.3101
2125.47	72.4246
2126.92	73.557
2128.37	76.0559
2129.82	78.8554
2131.27	81.5726
2132.72	84.502
2134.17	87.5987
2135.62	89.8646
2137.06	91.7392
2138.51	94.8132
2139.96	96.559
2141.41	99.3505
2142.85	101.713
2144.3	104.381
2145.75	107.362
2147.19	109.954
2148.64	112.34
2150.09	115.322
2151.53	117.276
2152.97	119.729
2154.42	121.322
2155.86	123.008
2157.31	123.53
2158.75	125.047
2160.2	126.811
2161.64	127.133
2163.08	127.81
2164.53	129.819
2165.97	130.229
2167.41	129.656
2168.86	128.543
2170.3	128.199
2171.74	128.063
2173.18	128.37
2174.62	127.464
2176.06	127.222
2177.5	126.834
2178.94	126.299
2180.38	125.052
2181.82	123.512
2183.26	122.822
2184.7	121.914
2186.14	120.811
2187.58	120.095
2189.02	118.737
2190.46	117.524
2191.89	116.249
2193.33	114.776
2194.77	112.658
2196.21	110.539
2197.64	108.72
2199.08	107.043
2200.52	105.521
2201.95	103.986
2203.39	102.398
2204.83	100.405
2206.26	98.3963
2207.7	95.7776
2209.13	93.5688
2210.57	91.9933
2212	90.1993
2213.43	88.581
2214.87	85.9584
2216.3	83.4895
2217.73	81.455
2219.17	78.9979
2220.6	76.6763
2222.03	74.7484
2223.47	71.805
2224.9	69.6613
2226.33	66.7696
2227.76	64.4174
2229.19	61.8842
2230.62	60.1002
2232.05	58.3208
2233.49	55.3064
2234.91	53.7149
2236.34	52.059
2237.77	49.3931
2239.2	47.6967
2240.63	46.9246
2242.06	46.5387
2243.49	45.8719
2244.92	44.6774
2246.35	43.1089
2247.78	42.8922
2249.2	41.6337
2250.63	41.2787
2252.06	40.3194
2253.48	39.6844
2254.91	39.3053
2256.34	38.5706
2257.76	37.6167
2259.19	37.0289
2260.61	36.0609
2262.04	36.0796
2263.46	35.2001
2264.89	34.3213
2266.31	33.1053
2267.74	32.4904
2269.16	32.3103
2270.59	32.1264
2272.01	31.7591
2273.43	31.3612
2274.85	30.5057
2276.28	30.1898
2277.7	29.2115
2279.12	28.4792
2280.54	27.5325
2281.97	26.7722
2283.39	25.6786
2284.81	24.1047
2286.23	22.9151
2287.65	22.5758
2289.07	22.1408
2290.49	20.2134
2291.91	19.4464
2293.33	18.2581
2294.75	16.5062
2296.17	16.5771
2297.59	16.2109
2299.01	16.0165
2300.42	15.9844
2301.84	15.7917
2303.26	16.097
2304.68	15.2936
2306.1	15.3282
2307.51	15.2439
2308.93	15.8744
2310.35	16.4777
2311.76	16.5507
2313.18	15.458
2314.59	15.7982
2316.01	15.7774
2317.43	15.5256
2318.84	15.4644
2320.26	15.2456
2321.67	14.8776
2323.08	14.2109
2324.5	14.5672
2325.91	13.3662
2327.33	12.6515
2328.74	12.2996
2330.15	11.8175
2331.56	12.234
2332.98	11.833
2334.39	11.1904
2335.8	10.9273
2337.21	10.7182
2338.62	10.516
2340.04	10.1973
2341.45	9.45215
2342.86	8.31203
2344.27	6.8954
2345.68	6.08743
2347.09	5.21814
2348.5	4.6723
2349.91	4.41891
2351.31	4.20197
2352.72	4.07006
2354.13	3.35488
2355.54	2.58479
2356.95	2.08394
2358.36	1.42055
2359.76	0.602596
2361.17	-0.210835
2362.58	0.217828
2363.98	-0.145839
2365.39	-0.0168994
2366.8	0.689533
2368.21	0.845734
2369.61	1.28573
2371.02	1.86782
2372.42	1.6408
2373.83	1.69459
2375.23	1.71358
2376.64	2.21685
2378.04	2.82161
2379.44	3.19077
2380.85	2.17623
2382.25	1.77097
2383.66	1.70037
2385.06	2.3918
2386.46	2.49043
2387.86	2.47843
2389.26	2.86988
2390.67	3.52318
2392.07	3.26292
2393.47	4.43644
2394.87	4.8641
2396.27	4.41343
2397.67	4.85433
2399.07	4.96237
2400.47	4.95387
2401.87	5.61352
2403.27	5.96329
2404.67	6.56558
2406.07	6.60175
2407.47	7.26817
2408.87	7.74744
2410.27	7.5088
2411.67	7.88008
2413.07	7.88168
2414.46	9.17044
2415.86	10.3339
2417.26	11.6228
2418.66	13.0384
2420.05	13.3807
2421.45	13.4035
2422.84	13.2136
2424.24	12.7384
2425.64	12.6052
2427.03	12.7128
2428.43	12.3542
2429.82	12.3364
2431.22	12.9962
2432.61	12.7054
2434.01	12.0529
2435.4	11.6776
2436.79	11.6414
2438.19	11.6958
2439.58	11.9653
2440.97	12.2323
2442.37	11.9223
2443.76	10.7635
2445.15	10.2861
2446.54	9.75314
2447.93	9.08501
2449.33	7.95377
2450.72	6.93251
2452.11	7.27875
2453.5	6.89434
2454.89	5.96002
2456.28	6.67727
2457.67	6.18911
2459.06	6.18211
2460.45	5.98097
2461.84	5.87783
2463.23	5.3398
2464.62	4.15261
2466	4.33815
2467.39	4.44919
2468.78	3.73746
2470.17	3.29367
2471.55	3.54978
2472.94	3.72285
2474.33	3.87243
2475.72	3.65619
2477.1	4.20502
2478.49	3.99535
2479.87	4.3547
2481.26	5.20002
2482.65	5.68626
2484.03	5.90743
2485.42	5.29911
2486.8	5.29239
2488.19	4.72398
2489.57	4.30263
2490.95	4.142
2492.34	4.0963
2493.72	3.64139
2495.1	3.01073
2496.49	3.12363
2497.87	2.35483
2499.25	2.91616
2500.63	3.5569
2502.02	2.99069
2503.4	2.86835
2504.78	3.0614
2506.16	2.94693
2507.54	3.36639
2508.92	3.31438
2510.3	2.65573
2511.68	2.19319
2513.06	1.26231
2514.44	0.795012
2515.82	0.972561
2517.2	0.616586
2518.58	0.499336
2519.96	0.657987
2521.34	0.984849
2522.72	0.914993
2524.1	0.480677
2525.47	1.21464
2526.85	0.744757
2528.23	0.820751
2529.6	0.423355
2530.98	0.441265
2532.36	0.745626
2533.74	1.01043
2535.11	0.759926
2536.49	0.103901
2537.86	-0.526643
2539.24	0.120383
2540.61	0.669836
2541.99	0.933448
2543.36	0.725013
2544.74	1.00105
2546.11	1.51794
2547.49	1.31204
2548.86	1.66244
2550.23	1.55102
2551.61	1.26167
2552.98	0.856879
2554.35	1.20351
2555.72	1.82053
2557.09	1.73289
2558.47	2.02206
2559.84	2.72198
2561.21	3.00023
2562.58	3.39534
2563.95	3.84965
2565.32	4.63403
2566.69	4.77512
2568.06	5.77003
2569.43	6.08415
2570.8	5.69102
2572.17	5.22176
2573.54	6.10697
2574.91	6.04524
2576.28	6.06336
2577.65	5.73683
2579.02	5.94369
2580.39	6.36293
2581.75	5.70178
2583.12	5.35697
2584.49	6.15707
2585.85	6.24705
2587.22	6.35854
2588.59	6.07975
2589.95	6.14996
2591.32	6.05074
2592.68	5.96312
2594.05	6.01894
2595.42	5.88082
2596.78	6.24263
2598.15	6.58683
2599.51	7.09044
2600.88	6.8633
2602.24	5.96952
2603.6	5.9742
2604.97	5.73315
2606.33	5.3607
2607.69	5.31423
2609.06	4.57633
2610.42	4.36868
2611.78	4.18915
2613.14	4.57464
2614.51	3.95763
2615.87	3.11614
2617.23	3.16129
2618.59	2.54562
2619.95	2.78162
2621.31	2.59652
2622.67	2.07178
2624.03	2.50028
2625.39	2.4255
2626.75	2.20949
2628.11	2.92918
2629.47	2.83339
2630.83	2.58409
2632.19	1.99894
2633.55	1.80155
2634.91	1.46988
2636.26	1.02319
2637.62	0.580301
2638.98	0.767656
2640.34	1.32242
2641.69	1.67529
2643.05	0.649799
2644.41	-0.0256868
2645.76	0.0345609
2647.12	0.00950884
2648.48	0.133904
2649.83	-0.292013
2651.19	0.0587862
2652.54	0.725388
2653.9	0.999622
2655.25	1.38424
2656.6	1.19454
2657.96	2.58007
2659.31	3.02529
2660.67	3.62869
2662.02	3.38412
2663.37	4.08163
2664.73	4.52765
2666.08	4.61641
2667.43	4.6004
2668.78	3.94935
2670.14	3.01509
2671.49	2.86882
2672.84	2.50271
2674.19	2.51857
2675.54	2.96032
2676.89	2.8705
2678.24	2.68024
2679.59	2.83242
2680.94	2.92806
2682.29	3.03933
2683.64	2.93526
2684.99	2.80849
2686.34	2.64197
2687.69	2.62235
2689.04	2.24377
2690.39	2.06221
2691.74	2.60091
2693.08	2.39884
2694.43	1.77007
2695.78	2.83911
2697.13	2.79472
2698.47	3.07134
2699.82	3.44398
2701.17	4.11102
2702.51	4.42332
2703.86	4.62027
2705.21	4.98221
2706.55	6.4625
2707.9	6.49624
2709.24	6.60768
2710.58	7.68428
2711.93	7.79683
2713.27	8.92657
2714.62	9.60307
2715.96	9.92424
2717.3	10.4528
2718.65	11.9007
2719.99	12.1373
2721.33	12.4048
2722.68	13.3076
2724.02	13.519
2725.36	14.9303
2726.71	14.4511
2728.05	14.8412
2729.39	14.87
2730.73	15.503
2732.07	15.197
2733.41	14.5259
2734.75	13.8173
2736.09	13.3857
2737.43	12.7375
2738.77	12.9115
2740.11	12.9738
2741.45	12.654
2742.79	12.9655
2744.13	12.7011
2745.47	12.132
2746.81	11.5926
2748.14	10.8897
2749.48	9.90645
2750.82	8.85596
2752.16	7.97456
2753.49	7.32101
2754.83	6.58214
2756.17	6.35927
2757.5	5.71548
2758.84	5.33983
2760.18	5.21696
2761.51	5.58031
2762.85	6.40775
2764.18	5.63599
2765.52	5.63118
2766.85	5.73437
2768.19	5.78556
2769.52	5.81456
2770.86	6.32676
2772.19	6.54817
2773.52	6.88548
2774.86	6.78157
2776.19	7.30481
2777.52	7.1019
2778.86	6.31515
2780.19	7.01843
2781.52	7.23172
2782.85	6.8813
2784.19	7.19601
2785.52	7.06589
2786.85	6.88745
2788.18	6.80175
2789.51	6.95882
2790.84	6.32276
2792.17	5.97318
2793.5	5.30747
2794.83	5.45397
2796.16	4.90573
2797.49	5.03629
2798.82	4.70582
2800.15	4.40523
2801.48	4.59269
2802.81	4.41289
2804.13	4.1664
2805.46	4.58802
2806.79	5.10913
2808.12	4.83996
2809.45	4.78839
2810.77	4.20416
2812.1	3.40961
2813.43	3.36342
2814.75	3.5428
2816.08	3.70546
2817.41	3.83057
2818.73	4.26784
2820.06	6.096
2821.38	7.93044
2822.71	9.9138
2824.03	12.4234
2825.36	15.4568
2826.68	18.9235
2828	21.9574
2829.33	24.7193
2830.65	27.7044
2831.98	31.8208
2833.3	35.3979
2834.62	38.8419
2835.94	42.7202
2837.27	46.9676
2838.59	50.2763
2839.91	53.8412
2841.23	58.3007
2842.55	62.1107
2843.87	66.4242
2845.2	71.1014
2846.52	74.8979
2847.84	79.5441
2849.16	84.4251
2850.48	89.9229
2851.8	94.6703
2853.12	100.28
2854.44	104.999
2855.76	110.199
2857.08	114.804
2858.39	120.2
2859.71	125.724
2861.03	131.156
2862.35	136.014
2863.67	141.803
2864.98	145.568
2866.3	149.374
2867.62	153.157
2868.94	156.48
2870.25	160.576
2871.57	163.585
2872.88	166.263
2874.2	168.073
2875.52	170.946
2876.83	173.247
2878.15	175.309
2879.46	177.636
2880.78	179.381
2882.09	181.616
2883.41	184.275
2884.72	187.725
2886.03	191.838
2887.35	194.526
2888.66	197.763
2889.97	200.202
2891.29	202.778
2892.6	205.493
2893.91	207.297
2895.22	210.368
2896.54	213.544
2897.85	217.369
2899.16	220.552
2900.47	224.225
2901.78	228.454
2903.09	232.246
2904.4	236.199
2905.71	241.384
2907.02	247.354
2908.33	252.771
2909.64	259.139
2910.95	264.386
2912.26	270.609
2913.57	277.535
2914.88	283.582
2916.19	289.449
2917.5	294.768
2918.81	300.88
2920.11	305.134
2921.42	310.021
2922.73	314.298
2924.04	318.248
2925.34	321.015
2926.65	323.853
2927.96	325.305
2929.26	326.59
2930.57	326.695
2931.87	327.076
2933.18	326.797
2934.49	326.34
2935.79	325.655
2937.1	323.303
2938.4	321.134
2939.7	317.324
2941.01	313.889
2942.31	310.156
2943.62	306.51
2944.92	301.642
2946.22	297.417
2947.53	292.359
2948.83	287.18
2950.13	281.971
2951.43	276.318
2952.74	270.616
2954.04	264.331
2955.34	257.798
2956.64	251.845
2957.94	245.737
2959.24	239.654
2960.54	234.628
2961.84	229.063
2963.15	223.614
2964.45	217.807
2965.75	212.537
2967.05	207.291
2968.34	202.179
2969.64	197.793
2970.94	192.844
2972.24	187.853
2973.54	182.454
2974.84	178.092
2976.14	172.557
2977.43	167.599
2978.73	162.524
2980.03	157.009
2981.33	152.217
2982.62	147.297
2983.92	141.837
2985.22	135.941
2986.51	130.72
2987.81	124.301
2989.11	118.398
2990.4	112.152
2991.7	106.231
2992.99	100.391
2994.29	95.3572
2995.58	90.5712
2996.88	86.0826
2998.17	81.4032
2999.46	77.005
3000.76	72.607
3002.05	67.6916
3003.34	63.313
3004.64	58.6549
3005.93	55.5243
3007.22	52.3462
3008.52	48.713
3009.81	44.7152
3011.1	41.5741
3012.39	38.2281
3013.68	35.9926
3014.97	34.0008
3016.27	31.4358
3017.56	29.7346
3018.85	27.5028
3020.14	25.8224
3021.43	24.0019
3022.72	23.3642
3024.01	22.6365
3025.3	21.435
3026.59	20.7602
3027.88	19.7927
3029.16	19.2402
3030.45	18.9288
3031.74	18.3801
3033.03	18.2909
3034.32	18.2307
3035.6	18.5741
3036.89	19.2842
3038.18	19.8907
3039.47	20.3782
3040.75	20.3716
3042.04	20.8166
3043.33	20.7905
3044.61	20.7459
3045.9	21.2485
3047.18	21.2122
3048.47	20.8069
3049.75	20.8287
3051.04	20.5341
3052.32	21.0077
3053.61	20.6977
3054.89	20.7231
3056.18	22.0811
3057.46	22.4693
3058.74	22.1382
3060.03	22.4109
3061.31	21.9677
3062.59	21.0987
3063.88	20.6804
3065.16	20.0292
3066.44	18.6666
3067.72	17.8823
3069	17.3165
3070.29	16.0878
3071.57	15.3455
3072.85	14.6464
3074.13	13.263
3075.41	11.9737
3076.69	11.4962
3077.97	10.3921
3079.25	9.44124
3080.53	8.32235
3081.81	7.88915
3083.09	7.12569
3084.37	6.02918
3085.65	4.98443
3086.93	4.26287
3088.21	3.23742
3089.49	1.98055
3090.76	2.01198
3092.04	1.60856
3093.32	1.74617
3094.6	1.24908
3095.87	1.03526
3097.15	1.43814
3098.43	1.57195
3099.7	1.635
3100.98	1.18585
3102.26	0.538531
3103.53	-0.123295
3104.81	0.0723216
3106.08	-0.424676
3107.36	-0.674019
3108.63	0.0466745
3109.91	-0.107726
3111.18	0.522062
3112.46	0.738051
3113.73	1.30978
3115	1.55287
3116.28	2.1735
3117.55	1.96191
3118.83	2.74776
3120.1	2.90465
3121.37	2.00953
3122.64	2.32796
3123.92	2.84249
3125.19	2.51779
3126.46	2.78105
3127.73	3.00788
3129	3.38419
3130.27	3.562
3131.55	4.37575
3132.82	4.85334
3134.09	4.68561
3135.36	5.55789
3136.63	5.72097
3137.9	5.95759
3139.17	6.89144
3140.44	7.8755
3141.71	8.55959
3142.98	9.39863
3144.24	10.2639
3145.51	11.1305
3146.78	12.0601
3148.05	13.8638
3149.32	15.6699
