#Acq. time (s)=	45
#Accumulations=	2
#Range (cm-¹)=	200...3150
#Windows=	2
#Auto scanning=	Off
#Autofocus=	Off
#Macrospot=	Off
#AutoExposure=	Off
#Spike filter=	Multiple accum.
#Delay time (s)=	0
#Binning=	1
#Readout mode=	Signal
#DeNoise=	Off
#ICS correction=	On
#Dark correction=	Off
#Inst. Process=	Off
#Detector Gain=	Best Dynamic Range
#Detector ADC=	20 kHz       
#Detector temperature (°C)=	-69.85
#Instrument=	LabRAM HR Evol
#Detector=	Synapse
#Objective=	x100
#Grating=	600 gr/mm
#ND Filter=	100%
#Laser (nm)=	532 
#Hole=	100.021
#Range=	Auto
#Laser Pol.=	No
#Raman. Pol.=	No
#Laser Pol. (°)=	-0.0007625
#Raman Pol. (°)=	89.9995
#Collection=	Microscope
#StageXY=	Marzhauser
#StageZ=	Marzhauser
#X (µm)=	231.2
#Y (µm)=	1688.1
#Z (µm)=	427.55
#Full time(mm:ss)=	3:18
#Project=	
#Sample=	
#Site=	
#Title=	Thy_40_11_37_2x_45s_532 nm_x100_100%_600 gr_mm
#Remark=	
#Date=	05.07.2022 12:38
#Acquired=	05.07.2022 12:38:37
#Base:Fit=	10.08.2022 10:01:35
#Base:Sub=	10.08.2022 10:01:52
#Filter:Polynom=	16.08.2022 10:21:53
#AxisType[0]=Intens
#AxisUnit[0]=Cnt
#AxisType[1]=Spectr
#AxisUnit[1]=1/cm
200.43	23.6476
202.244	23.5188
204.059	22.4542
205.873	21.5307
207.688	20.7767
209.501	19.8079
211.314	18.4056
213.127	16.9656
214.941	15.5649
216.753	15.4191
218.564	13.6366
220.375	12.172
222.186	10.6266
223.999	9.44291
225.809	8.94753
227.618	8.67557
229.428	6.96914
231.236	6.51038
233.045	6.34696
234.855	6.29214
236.663	5.94503
238.471	5.78606
240.278	6.07195
242.085	6.07573
243.891	6.17284
245.698	5.82999
247.503	5.21106
249.309	5.24922
251.116	5.0688
252.921	6.0151
254.725	5.15071
256.529	4.93301
258.333	5.1788
260.136	4.3176
261.939	4.45867
263.742	4.81355
265.544	5.10113
267.346	5.29405
269.148	5.95892
270.949	5.11122
272.75	4.88444
274.55	4.8409
276.351	5.21917
278.15	5.18988
279.95	5.54633
281.749	5.15764
283.548	6.34862
285.346	6.48298
287.144	6.01151
288.942	6.04498
290.739	5.08062
292.536	5.36974
294.333	5.34753
296.129	5.79666
297.925	5.29855
299.721	5.50746
301.514	5.18601
303.309	5.63769
305.104	5.56057
306.898	6.10406
308.692	5.0729
310.486	5.20833
312.279	4.85742
314.072	4.70937
315.862	4.98096
317.654	4.82631
319.446	4.80345
321.238	5.65738
323.029	5.96001
324.819	5.93367
326.608	6.27822
328.398	7.23853
330.188	7.56843
331.977	6.87494
333.766	6.13306
335.553	6.38742
337.341	6.67813
339.129	7.26991
340.917	6.5572
342.704	6.48503
344.489	5.88908
346.275	6.13514
348.062	5.7271
349.845	4.94776
351.631	5.07974
353.416	5.37466
355.201	5.00662
356.984	4.33555
358.768	3.5125
360.552	2.34866
362.333	2.61925
364.116	2.73147
365.899	2.46403
367.68	2.3081
369.462	1.60669
371.243	2.15313
373.023	2.38821
374.804	1.64984
376.585	2.09299
378.363	2.76725
380.143	3.34984
381.923	4.31314
383.7	4.61074
385.479	5.20301
387.256	4.75872
389.034	4.1735
390.812	3.68623
392.588	4.01635
394.365	3.68393
396.14	4.67238
397.916	4.51538
399.691	4.98275
401.467	4.82339
403.24	5.38227
405.015	6.40683
406.788	5.93439
408.563	6.58758
410.335	7.19322
412.109	8.23479
413.88	9.11843
415.654	9.98019
417.424	10.6645
419.197	10.0376
420.967	9.77935
422.739	9.72777
424.508	10.925
426.279	9.74534
428.048	10.2603
429.819	9.73252
431.587	10.2178
433.356	9.86082
435.124	10.0657
436.891	9.69859
438.66	9.45012
440.426	9.02603
442.194	9.14035
443.96	8.06148
445.725	7.31942
447.492	6.93455
449.257	7.08349
451.021	7.46888
452.787	7.70576
454.551	8.01742
456.314	9.29786
458.079	9.37073
459.842	10.5653
461.604	10.9008
463.368	11.9802
465.13	12.7576
466.891	12.5392
468.654	12.5449
470.415	12.3632
472.175	12.8278
473.935	12.6951
475.696	13.263
477.456	13.4489
479.215	15.0069
480.973	15.8245
482.733	16.7229
484.491	17.7449
486.249	17.9661
488.006	18.4106
489.765	18.2028
491.522	19.0982
493.278	19.2314
495.034	19.1265
496.789	20.3616
498.544	20.6975
500.301	20.9623
502.056	19.9778
503.81	19.6549
505.564	19.8445
507.317	19.968
509.071	20.4113
510.825	20.7956
512.578	20.9691
514.33	21.2878
516.082	22.142
517.833	21.1022
519.585	21.5791
521.335	21.0908
523.086	20.5928
524.836	20.4997
526.586	20.1145
528.335	19.2097
530.085	19.7161
531.835	18.6725
533.584	19.0422
535.332	18.4713
537.08	18.5622
538.827	18.7778
540.574	18.6512
542.321	18.9694
544.068	17.7641
545.814	16.4483
547.56	16.8362
549.305	16.5207
551.05	15.4838
552.795	14.3162
554.54	12.7967
556.282	11.8317
558.025	11.1488
559.769	11.1663
561.512	10.7486
563.255	10.4422
564.997	9.99462
566.739	9.66783
568.481	8.89229
570.223	7.4074
571.964	6.5668
573.705	5.343
575.443	5.03545
577.183	4.45273
578.923	4.01351
580.663	3.23632
582.402	3.01091
584.141	2.89061
585.879	2.83626
587.615	3.19609
589.353	3.24929
591.09	4.10313
592.828	4.97808
594.564	5.70538
596.299	6.2179
598.035	6.62862
599.771	7.25309
601.506	8.30352
603.242	8.47941
604.974	9.65465
606.709	10.7611
608.443	10.8116
610.177	11.2262
611.908	12.5527
613.642	13.1189
615.374	14.073
617.105	14.8282
618.837	14.5792
620.569	15.4364
622.3	15.2718
624.03	15.2946
625.761	15.3318
627.491	15.3459
629.219	15.535
630.949	14.851
632.677	15.7984
634.406	16.3516
636.135	15.6874
637.861	15.1471
639.59	15.4773
641.318	15.6509
643.043	16.2939
644.77	17.5145
646.495	17.7173
648.222	17.7309
649.948	18.1825
651.672	18.2334
653.398	17.9762
655.121	18.7021
656.846	19.0114
658.569	19.2979
660.293	19.3401
662.015	20.1039
663.738	19.7937
665.46	20.2277
667.183	20.6201
668.903	21.6098
670.626	22.714
672.346	22.529
674.067	23.5604
675.787	24.7923
677.508	25.4987
679.226	26.7462
680.947	27.347
682.665	28.0628
684.385	29.217
686.102	30.4052
687.821	32.0447
689.538	33.4614
691.254	34.3791
692.972	34.4085
694.688	34.6783
696.406	35.4441
698.121	36.8352
699.835	37.7613
701.552	38.1439
703.266	38.4452
704.98	38.8384
706.695	39.1901
708.409	40.0961
710.121	40.7725
711.836	42.3624
713.548	43.7282
715.26	44.9327
716.973	45.5063
718.685	45.81
720.396	46.2654
722.108	47.339
723.818	48.7815
725.528	49.9384
727.238	49.9719
728.949	49.7876
730.658	50.4992
732.367	51.0638
734.075	52.99
735.785	54.6402
737.493	55.8548
739.2	57.7905
740.907	59.3858
742.614	59.8659
744.322	60.7042
746.028	62.4877
747.734	63.7847
749.439	65.06
751.144	67.1215
752.849	69.0691
754.555	71.0176
756.26	72.3534
757.963	73.6214
759.667	76.3536
761.37	78.145
763.073	78.3757
764.775	79.9891
766.477	81.6453
768.179	83.179
769.883	85.0727
771.584	85.7843
773.285	87.304
774.986	88.0392
776.686	88.6667
778.386	89.1345
780.085	89.9002
781.785	91.2691
783.484	91.8795
785.182	91.9608
786.881	92.4963
788.579	93.077
790.276	93.3971
791.974	94.0955
793.671	94.8367
795.367	93.8233
797.064	93.8687
798.76	92.926
800.456	91.7252
802.151	90.4628
803.846	89.1552
805.541	88.6027
807.234	89.0685
808.928	88.3799
810.622	87.1821
812.315	85.9814
814.008	85.8333
815.701	86.1177
817.394	86.4314
819.086	86.7763
820.778	86.0586
822.468	86.1486
824.159	86.1863
825.85	85.511
827.541	85.4942
829.231	85.645
830.921	85.521
832.609	85.5542
834.298	85.3141
835.987	85.6861
837.676	85.9486
839.364	85.6415
841.051	85.6593
842.738	84.9329
844.426	84.4235
846.113	83.0657
847.798	81.8759
849.484	81.6523
851.171	80.7677
852.857	79.6721
854.54	78.705
856.226	77.4683
857.911	76.4214
859.593	75.1768
861.278	73.6875
862.961	71.684
864.645	71.1173
866.327	69.4248
868.01	68.5695
869.692	67.9223
871.373	67.5362
873.055	65.6511
874.735	64.4907
876.416	63.5574
878.097	61.8843
879.776	60.324
881.457	59.6188
883.135	58.399
884.815	57.9993
886.495	57.4887
888.172	56.9022
889.851	56.1493
891.528	56.2272
893.206	54.9262
894.882	53.5504
896.56	53.276
898.237	52.4293
899.912	51.8919
901.589	51.3831
903.263	50.8779
904.94	50.3874
906.614	49.7708
908.289	49.4795
909.962	49.2851
911.635	49.4058
913.31	49.6334
914.982	49.62
916.656	49.2918
918.328	49.9426
920.001	50.1646
921.672	49.7919
923.345	48.6921
925.015	47.8285
926.685	47.0964
928.357	46.5775
930.026	45.6183
931.698	45.5328
933.366	44.4034
935.035	44.0046
936.705	43.9056
938.373	43.4018
940.041	43.0385
941.71	42.6539
943.377	42.5304
945.044	41.8884
946.712	41.0134
948.378	41.177
950.044	40.403
951.709	41.8447
953.376	41.1795
955.041	41.1909
956.706	40.9259
958.372	40.727
960.036	40.4899
961.699	40.0055
963.362	40.2395
965.027	40.4683
966.69	40.9024
968.352	40.9214
970.014	40.3829
971.676	40.2365
973.339	40.9698
975	41.5671
976.661	41.3119
978.322	40.9101
979.982	40.3372
981.642	39.5925
983.303	39.163
984.962	39.1337
986.621	39.2908
988.28	39.973
989.938	40.2741
991.596	41.2497
993.254	41.3177
994.911	41.5637
996.57	41.4748
998.227	41.1503
999.884	40.8761
1001.54	40.4111
1003.2	38.6458
1004.85	38.4092
1006.51	38.2782
1008.16	38.2551
1009.82	37.6376
1011.47	36.952
1013.12	36.6833
1014.78	35.952
1016.43	36.3688
1018.08	36.6625
1019.74	35.3183
1021.39	34.4898
1023.04	33.501
1024.69	32.7811
1026.34	31.972
1028	31.0117
1029.65	31.3753
1031.3	31.8508
1032.95	32.6153
1034.6	32.11
1036.25	32.0079
1037.9	32.8598
1039.54	32.4438
1041.19	31.4803
1042.84	31.992
1044.49	31.5292
1046.14	32.1086
1047.78	31.5807
1049.43	31.094
1051.08	30.3287
1052.72	30.1485
1054.37	29.3524
1056.02	29.0658
1057.66	27.8449
1059.31	27.0366
1060.95	26.6831
1062.6	26.6605
1064.24	27.7466
1065.88	27.4399
1067.53	27.7063
1069.17	27.2473
1070.81	26.8185
1072.45	25.7063
1074.1	25.0081
1075.74	24.1825
1077.38	23.2134
1079.02	22.0175
1080.66	21.5909
1082.3	20.2869
1083.94	19.7584
1085.58	19.3038
1087.22	18.9614
1088.86	17.6234
1090.5	17.4243
1092.14	16.3759
1093.78	16.6128
1095.42	15.5696
1097.05	15.1923
1098.69	15.8228
1100.33	14.1474
1101.96	13.5366
1103.6	13.9109
1105.24	12.919
1106.87	13.2743
1108.51	13.1622
1110.14	13.6657
1111.78	14.2685
1113.41	13.5478
1115.05	13.302
1116.68	12.9505
1118.31	12.7974
1119.95	11.1146
1121.58	9.13473
1123.21	8.33859
1124.85	8.41203
1126.48	7.23847
1128.11	6.18816
1129.74	5.02984
1131.37	5.0132
1133	4.89134
1134.63	4.64137
1136.26	4.0174
1137.89	4.09138
1139.52	4.40555
1141.15	4.27361
1142.78	4.80622
1144.41	4.85197
1146.04	4.28582
1147.66	3.19013
1149.29	2.55345
1150.92	2.61625
1152.55	2.21352
1154.17	2.12326
1155.8	2.05985
1157.43	1.5736
1159.05	1.56909
1160.68	2.00809
1162.3	2.71726
1163.93	2.849
1165.55	3.04571
1167.17	2.58457
1168.8	2.72719
1170.42	3.38037
1172.05	3.8073
1173.67	3.05106
1175.29	3.47158
1176.91	3.59484
1178.54	4.36157
1180.16	4.73984
1181.78	4.86235
1183.4	5.58503
1185.02	5.46685
1186.64	5.64344
1188.26	6.5028
1189.88	6.85242
1191.5	6.80665
1193.12	6.99722
1194.74	7.08871
1196.36	7.24231
1197.97	7.33329
1199.59	6.96615
1201.21	8.55872
1202.83	10.3259
1204.44	12.4751
1206.06	14.2367
1207.68	13.9706
1209.29	15.4167
1210.91	16.6763
1212.52	17.182
1214.14	17.8814
1215.75	17.8779
1217.37	18.5034
1218.98	19.1447
1220.59	20.4538
1222.21	21.5797
1223.82	22.6773
1225.43	23.2842
1227.05	24.4262
1228.66	25.2593
1230.27	26.161
1231.88	27.3439
1233.49	28.882
1235.1	30.4188
1236.72	31.248
1238.33	32.3182
1239.94	33.8606
1241.55	34.6422
1243.16	35.387
1244.76	35.6502
1246.37	35.3871
1247.98	36.1795
1249.59	36.9927
1251.2	38.4626
1252.8	38.2191
1254.41	38.6057
1256.02	39.0323
1257.62	39.599
1259.23	40.1292
1260.84	40.7636
1262.44	41.5312
1264.05	42.0509
1265.66	42.1056
1267.26	43.598
1268.86	44.171
1270.47	44.782
1272.07	45.2751
1273.67	46.7122
1275.28	47.2395
1276.88	47.5226
1278.48	49.3186
1280.09	51.3249
1281.69	52.8856
1283.29	53.1332
1284.89	53.5078
1286.49	53.164
1288.09	53.0953
1289.69	53.809
1291.29	53.5416
1292.89	53.8312
1294.49	54.8339
1296.09	54.4967
1297.69	55.3828
1299.29	56.1047
1300.89	56.6024
1302.49	57.2431
1304.08	57.5345
1305.68	58.174
1307.28	58.2554
1308.88	58.5333
1310.47	59.4945
1312.07	59.861
1313.66	60.169
1315.26	58.834
1316.85	58.1729
1318.45	57.3297
1320.04	56.8667
1321.64	56.451
1323.23	56.0077
1324.83	55.1471
1326.42	53.645
1328.01	52.9739
1329.61	51.9386
1331.2	50.9523
1332.79	49.4799
1334.38	49.1676
1335.97	48.1023
1337.56	47.1436
1339.16	46.3825
1340.75	45.4063
1342.34	44.6852
1343.93	43.4374
1345.52	42.1078
1347.11	41.6756
1348.7	40.4132
1350.29	39.7739
1351.87	38.2566
1353.46	37.0459
1355.05	36.0591
1356.64	35.3204
1358.22	35.3317
1359.81	34.4036
1361.4	32.8959
1362.98	31.5527
1364.57	30.322
1366.16	29.1383
1367.74	28.2856
1369.33	28.2001
1370.91	27.9425
1372.5	27.3585
1374.08	26.3779
1375.67	25.2782
1377.25	25.6112
1378.83	24.9728
1380.41	23.9292
1382	23.107
1383.58	22.7135
1385.16	21.6437
1386.74	21.5689
1388.33	21.5115
1389.91	20.4664
1391.49	19.4131
1393.07	18.7627
1394.65	17.438
1396.23	17.6905
1397.81	16.7821
1399.39	16.8011
1400.97	17.0148
1402.55	16.3554
1404.13	15.2856
1405.7	15.0443
1407.28	15.348
1408.86	16.7033
1410.44	16.9618
1412.01	17.653
1413.59	17.5319
1415.17	18.0706
1416.74	19.7606
1418.32	21.8188
1419.89	23.4378
1421.47	24.5819
1423.04	25.4577
1424.62	27.4392
1426.19	29.5552
1427.77	31.0188
1429.34	32.6898
1430.91	34.618
1432.49	37.6453
1434.06	39.8224
1435.63	41.5993
1437.2	43.3243
1438.78	45.2067
1440.35	46.4806
1441.92	47.5465
1443.49	49.2781
1445.06	51.1257
1446.63	52.5648
1448.2	53.7879
1449.77	53.8706
1451.34	54.0191
1452.91	54.071
1454.48	54.2254
1456.05	53.6669
1457.62	52.8761
1459.18	51.7009
1460.75	51.2096
1462.32	49.9345
1463.89	48.976
1465.45	47.4964
1467.02	45.1508
1468.59	43.1372
1470.15	40.477
1471.72	38.0275
1473.28	35.0504
1474.85	32.8679
1476.41	29.6387
1477.98	27.3714
1479.54	25.0913
1481.1	21.9343
1482.67	19.1068
1484.23	17.5331
1485.79	15.5452
1487.36	14.1591
1488.92	11.4071
1490.48	10.094
1492.04	8.93649
1493.61	8.34826
1495.17	7.31354
1496.73	5.61452
1498.29	4.03294
1499.85	2.37379
1501.41	2.09202
1502.97	3.05153
1504.53	2.85956
1506.09	2.93468
1507.65	4.06084
1509.2	4.01016
1510.76	4.66268
1512.32	4.51245
1513.88	4.63448
1515.43	5.18216
1516.99	6.15312
1518.55	7.43995
1520.1	8.34997
1521.66	9.79217
1523.22	11.009
1524.77	11.8846
1526.33	12.8154
1527.88	13.983
1529.44	13.8822
1530.99	14.0938
1532.54	15.1648
1534.1	15.2011
1535.65	15.6322
1537.21	15.019
1538.76	15.5025
1540.31	16.1075
1541.86	17.3398
1543.42	18.2755
1544.97	18.9966
1546.52	19.8122
1548.07	21.0022
1549.62	22.2387
1551.17	22.8205
1552.72	23.5021
1554.27	23.623
1555.82	24.0352
1557.37	24.8519
1558.92	25.8034
1560.47	26.9245
1562.02	28.6608
1563.56	29.9067
1565.11	31.317
1566.66	31.5469
1568.21	32.7305
1569.75	33.5326
1571.3	34.7663
1572.85	35.1889
1574.39	35.403
1575.94	37.0014
1577.49	38.5409
1579.03	40.4418
1580.57	41.689
1582.12	42.6037
1583.66	44.1202
1585.21	45.2364
1586.75	45.5788
1588.3	47.3363
1589.84	47.8199
1591.38	48.7052
1592.92	49.6175
1594.47	50.2181
1596.01	50.442
1597.55	50.0799
1599.09	49.4906
1600.63	49.0738
1602.17	48.363
1603.71	47.9004
1605.25	46.6191
1606.79	46.0957
1608.33	45.0825
1609.87	45.0411
1611.41	44.0612
1612.95	44.5631
1614.49	45.0286
1616.03	45.3679
1617.57	46.2915
1619.1	46.5021
1620.64	47.2109
1622.18	46.7204
1623.72	47.4684
1625.25	48.8338
1626.79	48.6176
1628.32	48.8817
1629.86	49.8571
1631.39	50.767
1632.93	51.1612
1634.46	51.6338
1636	52.7712
1637.53	53.2571
1639.07	53.5315
1640.6	55.0467
1642.13	56.3546
1643.67	56.5306
1645.2	57.8266
1646.73	58.686
1648.26	59.8233
1649.8	60.8537
1651.33	62.0187
1652.86	63.7545
1654.39	64.4789
1655.92	64.7307
1657.45	65.679
1658.98	66.5066
1660.51	65.9282
1662.04	65.3143
1663.57	64.9132
1665.1	64.1048
1666.63	63.2685
1668.16	62.4283
1669.68	60.8183
1671.21	59.7597
1672.74	58.9836
1674.27	57.1839
1675.79	55.5073
1677.32	54.4924
1678.85	53.3529
1680.37	51.0732
1681.9	48.1539
1683.42	46.7133
1684.95	45.2814
1686.47	44.7833
1688	42.6387
1689.52	40.9454
1691.05	38.5126
1692.57	35.9672
1694.09	34.447
1695.62	33.1793
1697.14	32.3017
1698.66	31.1176
1700.18	30.0559
1701.71	28.4431
1703.23	26.6015
1704.75	24.9951
1706.27	23.8068
1707.79	22.0639
1709.31	20.2864
1710.83	19.2848
1712.35	18.8225
1713.87	17.8085
1715.39	17.6136
1716.91	18.0761
1718.43	16.6124
1719.95	15.8365
1721.47	15.6849
1722.99	15.5112
1724.5	15.3433
1726.02	14.9258
1727.54	13.976
1729.06	13.4873
1730.57	13.1058
1732.09	12.7813
1733.61	12.836
1735.12	11.7427
1736.64	10.6032
1738.15	10.635
1739.67	10.6118
1741.18	10.0337
1742.7	10.1771
1744.21	9.51595
1745.72	8.63794
1747.24	8.76984
1748.75	8.3969
1750.26	8.18979
1751.77	7.89286
1753.29	7.33973
1754.8	6.65125
1756.31	5.59583
1757.82	5.45902
1759.33	5.92022
1760.84	6.12604
1762.36	5.05806
1763.87	3.67983
1765.38	3.57436
1766.89	2.52622
1768.4	2.65495
1769.91	2.83548
1771.41	3.15993
1772.92	2.51603
1774.43	2.35118
1775.94	1.81187
1777.45	1.61179
1778.95	1.5086
1780.46	1.59774
1781.97	1.61343
1783.48	1.68524
1784.98	1.12328
1786.49	1.13755
1787.99	1.88129
1789.5	2.10313
1791.01	2.62775
1792.51	2.55146
1794.01	2.14044
1795.52	2.24469
1797.02	2.10827
1798.53	2.21058
1800.03	2.27558
1801.53	1.9687
1803.04	2.18141
1804.54	2.35138
1806.04	2.76037
1807.54	2.59506
1809.05	2.44049
1810.55	2.03987
1812.05	1.91596
1813.55	1.84244
1815.05	1.94685
1816.55	1.61601
1818.05	1.84881
1819.55	2.21964
1821.05	2.29891
1822.55	2.85913
1824.05	3.28423
1825.55	3.56898
1827.05	2.97134
1828.55	2.65559
1830.04	2.24677
1831.54	2.44202
1833.04	2.62986
1834.54	3.05852
1836.03	2.74155
1837.53	2.26393
1839.03	1.86372
1840.52	1.80549
1842.02	1.12708
1843.51	1.18068
1845.01	1.24856
1846.5	1.65308
1848	1.13734
1849.49	0.945447
1850.99	0.475298
1852.48	0.388268
1853.97	0.211368
1855.47	0.00792096
1856.96	-0.0678386
1858.45	0.285606
1859.94	-0.0164896
1861.44	0.144801
1862.93	0.176471
1864.42	0.343997
1865.91	0.705045
1867.4	0.22201
1868.89	0.36426
1870.38	0.554193
1871.87	1.18167
1873.36	1.54194
1874.85	1.23222
1876.34	1.57988
1877.83	2.15796
1879.32	2.10329
1880.81	1.79007
1882.3	1.81373
1882.57	1.47295
1884.07	1.56243
1885.56	1.24303
1887.06	1.59029
1888.55	2.03721
1890.04	2.74644
1891.54	3.51986
1893.03	3.88345
1894.52	3.96361
1896.02	4.48204
1897.51	5.00069
1899	4.3923
1900.49	4.59877
1901.98	4.93006
1903.47	4.77667
1904.96	4.79734
1906.45	4.93535
1907.94	5.25434
1909.43	4.93899
1910.92	5.12518
1912.41	4.48886
1913.9	4.25118
1915.39	4.32642
1916.88	4.32656
1918.37	4.452
1919.85	4.16849
1921.34	3.6431
1922.83	3.55598
1924.32	4.16897
1925.8	4.19459
1927.29	4.19837
1928.78	4.40257
1930.26	4.7196
1931.75	4.38877
1933.23	4.13082
1934.72	4.56451
1936.2	5.22209
1937.69	4.82066
1939.17	4.4461
1940.66	4.4392
1942.14	4.60255
1943.63	4.77542
1945.11	4.67273
1946.59	4.13707
1948.07	3.41928
1949.56	3.59836
1951.04	2.96282
1952.52	2.67682
1954	2.67337
1955.48	2.97649
1956.96	2.2319
1958.45	1.90804
1959.93	1.71415
1961.41	2.63957
1962.89	2.74838
1964.37	3.12968
1965.85	2.541
1967.32	2.25504
1968.8	1.75755
1970.28	1.98083
1971.76	2.20542
1973.24	1.79672
1974.72	2.40617
1976.19	2.12315
1977.67	1.11262
1979.15	1.54413
1980.63	1.9462
1982.1	1.78723
1983.58	1.82113
1985.05	1.21668
1986.53	0.913663
1988	1.50225
1989.48	2.21335
1990.95	2.38836
1992.43	2.41949
1993.9	2.97337
1995.38	2.70406
1996.85	3.1093
1998.32	3.88747
1999.8	4.33004
2001.27	4.06494
2002.74	4.29922
2004.22	5.0617
2005.69	5.66875
2007.16	6.3598
2008.63	6.91726
2010.1	6.80518
2011.57	6.58679
2013.04	6.67531
2014.51	7.22156
2015.98	7.20617
2017.45	7.05567
2018.92	6.29636
2020.39	5.93792
2021.86	6.40907
2023.33	7.05311
2024.8	7.23116
2026.27	7.59589
2027.74	7.49232
2029.2	7.75745
2030.67	7.64217
2032.14	7.91772
2033.61	8.58451
2035.07	8.67109
2036.54	8.19016
2038.01	8.1987
2039.47	7.76127
2040.94	7.94821
2042.4	7.71424
2043.87	8.17214
2045.33	7.84344
2046.8	7.35971
2048.26	7.27034
2049.72	6.74853
2051.19	5.97564
2052.65	6.81559
2054.12	6.64125
2055.58	6.82856
2057.04	7.45092
2058.5	6.62945
2059.97	6.76206
2061.43	7.12548
2062.89	7.20223
2064.35	6.88276
2065.81	7.08304
2067.27	7.74875
2068.73	7.52628
2070.19	8.74832
2071.65	9.48657
2073.11	9.91917
2074.57	10.1528
2076.03	11.1145
2077.49	11.6854
2078.95	11.2077
2080.41	11.4001
2081.87	11.7053
2083.32	11.9329
2084.78	12.7112
2086.24	12.7034
2087.7	13.5015
2089.15	13.9587
2090.61	13.9846
2092.07	14.2695
2093.52	15.2235
2094.98	16.2424
2096.43	16.9991
2097.89	17.881
2099.34	18.8097
2100.8	19.5115
2102.25	20.4323
2103.71	20.8055
2105.16	21.1611
2106.61	21.9062
2108.07	22.2885
2109.52	22.8541
2110.97	23.6483
2112.43	25.2065
2113.88	26.5085
2115.33	26.9163
2116.78	27.6566
2118.23	28.5178
2119.68	29.6427
2121.13	30.4339
2122.59	30.8917
2124.04	31.8393
2125.49	33.4217
2126.94	34.206
2128.39	35.1085
2129.83	35.7425
2131.28	36.3022
2132.73	38.0146
2134.18	39.1217
2135.63	40.4275
2137.08	41.9083
2138.53	43.7554
2139.97	45.0319
2141.42	46.5427
2142.87	48.2981
2144.31	49.3188
2145.76	50.2792
2147.21	51.3877
2148.65	52.2806
2150.1	53.4779
2151.54	54.4704
2152.99	56.1111
2154.43	57.8567
2155.88	59.0663
2157.32	60.1513
2158.77	60.5321
2160.21	61.7344
2161.65	62.6182
2163.1	62.8917
2164.54	63.8778
2165.98	64.9487
2167.43	65.4831
2168.87	65.8804
2170.31	66.1598
2171.75	66.7601
2173.19	66.6274
2174.64	67.0825
2176.07	67.0368
2177.52	66.6304
2178.96	66.7059
2180.4	66.1928
2181.84	66.0956
2183.28	66.3692
2184.72	65.6229
2186.15	63.815
2187.59	62.45
2189.03	61.4048
2190.47	60.0274
2191.91	58.8239
2193.35	57.4544
2194.78	55.9187
2196.22	54.8514
2197.66	52.9356
2199.09	51.1913
2200.53	49.0901
2201.97	47.6778
2203.4	46.4366
2204.84	44.9873
2206.27	43.1745
2207.71	41.9101
2209.14	40.7728
2210.58	39.4002
2212.01	37.7862
2213.45	36.5647
2214.88	35.3564
2216.31	34.0682
2217.75	33.1699
2219.18	32.103
2220.61	31.7443
2222.05	31.1057
2223.48	30.3567
2224.91	30.1257
2226.34	29.229
2227.78	27.8625
2229.21	26.6804
2230.64	25.4661
2232.07	25.0896
2233.5	24.324
2234.93	23.3728
2236.36	23.2748
2237.79	22.8271
2239.22	22.4346
2240.65	22.2647
2242.08	22.5277
2243.5	22.5131
2244.93	22.0092
2246.36	21.911
2247.79	21.5835
2249.22	21.3554
2250.64	21.2542
2252.07	20.7839
2253.5	20.9079
2254.92	20.9797
2256.35	19.8468
2257.78	19.1574
2259.2	18.3849
2260.63	17.6007
2262.05	16.8711
2263.48	16.7949
2264.9	16.3558
2266.33	15.111
2267.75	14.5936
2269.18	13.8146
2270.6	13.5802
2272.02	13.1616
2273.45	13.181
2274.87	13.0917
2276.29	12.392
2277.71	11.9798
2279.14	11.8785
2280.56	12.6005
2281.98	11.9109
2283.4	11.7366
2284.82	11.5896
2286.24	11.4033
2287.66	10.5543
2289.08	10.2639
2290.5	9.18997
2291.92	8.76459
2293.34	7.61567
2294.76	6.89007
2296.18	6.22274
2297.6	5.92381
2299.02	6.29068
2300.44	6.56117
2301.86	6.54084
2303.27	7.31996
2304.69	7.45855
2306.11	7.20579
2307.53	7.59946
2308.94	7.61318
2310.36	8.07316
2311.78	8.36118
2313.19	8.31179
2314.61	8.29757
2316.02	8.13168
2317.44	7.97864
2318.85	8.36005
2320.27	8.11022
2321.68	8.1495
2323.1	8.20212
2324.51	8.58951
2325.92	8.70735
2327.34	7.72594
2328.75	7.83154
2330.16	7.49925
2331.58	7.59937
2332.99	7.4451
2334.4	7.78342
2335.81	7.79309
2337.23	7.71836
2338.64	8.1936
2340.05	9.05418
2341.46	8.88184
2342.87	9.10816
2344.28	9.00155
2345.69	8.57082
2347.1	8.28065
2348.51	7.81103
2349.92	8.08095
2351.33	8.18062
2352.74	7.39602
2354.15	7.28974
2355.55	6.74351
2356.96	6.42719
2358.37	6.02865
2359.78	5.87595
2361.19	5.00062
2362.59	5.21223
2364	5.45462
2365.41	6.1342
2366.81	6.56196
2368.22	7.22364
2369.62	7.02622
2371.03	6.28401
2372.44	5.64595
2373.84	5.44143
2375.24	4.45505
2376.65	4.04307
2378.05	3.96123
2379.46	4.14939
2380.86	3.80193
2382.26	3.27282
2383.67	2.73721
2385.07	2.44233
2386.47	2.07147
2387.88	1.90304
2389.28	1.91426
2390.68	1.61178
2392.08	1.55375
2393.48	1.17711
2394.89	1.28149
2396.29	0.900283
2397.69	-0.221901
2399.09	0.13139
2400.49	-0.324941
2401.89	-0.188284
2403.29	0.331015
2404.69	1.05557
2406.09	1.45374
2407.48	1.89479
2408.88	2.19556
2410.28	2.45171
2411.68	1.90056
2413.08	1.95509
2414.48	2.61773
2415.87	2.89442
2417.27	3.37694
2418.67	3.16214
2420.06	3.76478
2421.46	3.6641
2422.86	3.75207
2424.25	4.25246
2425.65	4.84859
2427.04	5.48515
2428.44	5.58876
2429.83	6.23034
2431.23	6.06994
2432.62	6.8521
2434.02	7.10446
2435.41	7.06077
2436.81	6.52709
2438.2	6.86544
2439.59	6.8327
2440.99	7.13678
2442.38	7.33047
2443.77	7.10609
2445.16	7.22183
2446.56	7.33721
2447.95	7.17558
2449.34	7.28753
2450.73	6.88383
2452.12	6.72615
2453.51	6.38335
2454.9	6.12244
2456.29	5.69029
2457.68	5.65654
2459.07	5.28946
2460.46	5.2153
2461.85	5.33109
2463.24	5.23061
2464.63	5.18152
2466.02	4.86741
2467.4	4.41996
2468.79	4.82586
2470.18	4.88249
2471.57	4.36314
2472.95	4.40247
2474.34	4.57328
2475.73	4.03478
2477.12	3.28992
2478.5	2.72225
2479.89	2.55378
2481.27	2.36862
2482.66	2.0263
2484.04	1.96866
2485.43	0.678231
2486.81	0.0401604
2488.2	-0.00419676
2489.58	0.0323643
2490.97	0.0837594
2492.35	0.419309
2493.73	0.38762
2495.12	0.428107
2496.5	0.506899
2497.88	0.513237
2499.27	0.71978
2500.65	0.412947
2502.03	0.924268
2503.41	0.820789
2504.79	1.60428
2506.17	1.85088
2507.56	2.59233
2508.94	2.58564
2510.32	2.81433
2511.7	2.96829
2513.08	2.69809
2514.46	2.9235
2515.84	2.90447
2517.22	3.2565
2518.59	3.58797
2519.97	3.35367
2521.35	3.64298
2522.73	3.71534
2524.11	3.95212
2525.49	4.25184
2526.86	4.63749
2528.24	5.00255
2529.62	5.651
2530.99	5.53964
2532.37	5.45144
2533.75	5.50103
2535.12	5.47967
2536.5	5.2973
2537.88	6.08439
2539.25	6.2469
2540.63	5.53719
2542	5.22843
2543.38	5.46517
2544.75	4.78163
2546.12	4.6909
2547.5	5.46978
2548.87	5.43804
2550.24	5.33339
2551.62	4.911
2552.99	4.6453
2554.36	4.37994
2555.74	4.42006
2557.11	4.57773
2558.48	4.8003
2559.85	4.62919
2561.22	4.89219
2562.59	5.32374
2563.96	5.39714
2565.34	5.10853
2566.71	5.22641
2568.08	4.9972
2569.45	5.17094
2570.82	4.77148
2572.18	4.57582
2573.55	4.70869
2574.92	4.05999
2576.29	3.86482
2577.66	3.60861
2579.03	3.57099
2580.4	3.20087
2581.77	2.3499
2583.13	2.71896
2584.5	2.70783
2585.87	2.9451
2587.23	2.96103
2588.6	2.48036
2589.97	3.25625
2591.33	2.91868
2592.7	3.30577
2594.06	3.37397
2595.43	3.74255
2596.79	3.9956
2598.16	3.65288
2599.52	3.36521
2600.89	3.43107
2602.25	3.31524
2603.62	3.27675
2604.98	3.74529
2606.34	3.76287
2607.71	3.917
2609.07	3.69504
2610.43	3.73646
2611.79	4.47658
2613.16	4.27713
2614.52	4.54164
2615.88	4.62421
2617.24	4.52916
2618.6	4.77924
2619.96	4.99691
2621.32	5.08905
2622.68	4.87227
2624.04	4.59863
2625.4	4.74884
2626.76	4.82225
2628.12	4.413
2629.48	4.83509
2630.84	4.99272
2632.2	4.18063
2633.56	4.14341
2634.92	4.15099
2636.28	4.01979
2637.63	4.78081
2638.99	4.38236
2640.35	4.50609
2641.71	4.43501
2643.06	4.27052
2644.42	4.32835
2645.77	4.44632
2647.13	4.61092
2648.49	4.35711
2649.84	4.37854
2651.2	4.80256
2652.55	4.97775
2653.91	5.18454
2655.26	4.71002
2656.62	4.98434
2657.97	4.84051
2659.33	4.7132
2660.68	4.96275
2662.03	4.42134
2663.39	4.50992
2664.74	3.94362
2666.09	3.65435
2667.44	3.62071
2668.8	4.1328
2670.15	4.03665
2671.5	3.7793
2672.85	4.1489
2674.2	4.05803
2675.55	4.69794
2676.91	4.17384
2678.26	4.07882
2679.61	4.16496
2680.96	4.55371
2682.31	4.44644
2683.66	4.42641
2685	4.8491
2686.35	4.69494
2687.7	5.24991
2689.05	4.77341
2690.4	4.90947
2691.75	5.36127
2693.1	5.93644
2694.44	6.42547
2695.79	6.71268
2697.14	6.97655
2698.49	7.1101
2699.83	7.409
2701.18	8.37574
2702.52	8.63612
2703.87	8.94393
2705.22	8.7363
2706.56	8.18238
2707.91	8.20163
2709.25	7.90678
2710.6	8.26235
2711.94	8.4796
2713.29	8.3749
2714.63	8.67451
2715.97	8.49529
2717.32	8.84976
2718.66	8.90519
2720.01	8.75264
2721.35	8.44423
2722.69	8.33887
2724.03	8.73956
2725.38	7.87786
2726.72	8.52992
2728.06	8.13111
2729.4	7.60327
2730.74	7.78655
2732.08	7.60237
2733.42	7.72952
2734.76	7.16207
2736.1	7.21585
2737.44	6.72799
2738.78	6.58544
2740.12	6.41188
2741.46	6.56806
2742.8	6.2827
2744.14	5.88684
2745.48	5.70242
2746.82	5.44985
2748.16	5.60856
2749.49	4.81258
2750.83	4.72667
2752.17	4.58835
2753.51	4.66443
2754.84	4.91256
2756.18	4.2122
2757.52	4.20046
2758.85	4.03815
2760.19	4.1472
2761.53	3.88196
2762.86	3.90402
2764.2	4.05697
2765.53	4.38858
2766.87	5.03666
2768.2	4.8083
2769.54	4.02299
2770.87	4.12484
2772.2	3.90369
2773.54	4.36318
2774.87	4.26855
2776.2	4.57853
2777.54	4.70763
2778.87	4.36075
2780.2	4.04991
2781.53	4.53369
2782.87	4.10237
2784.2	4.01533
2785.53	3.60078
2786.86	3.59897
2788.19	3.56527
2789.52	3.35665
2790.85	2.76827
2792.18	2.45728
2793.51	2.81973
2794.84	2.36147
2796.17	2.12662
2797.5	2.5494
2798.83	2.43986
2800.16	2.30609
2801.49	1.81866
2802.82	2.25518
2804.15	1.96644
2805.47	1.61577
2806.8	1.20692
2808.13	1.15717
2809.46	0.458143
2810.78	0.238569
2812.11	-0.000232081
2813.44	0.162568
2814.76	0.00426789
2816.09	-0.720479
2817.42	-0.33255
2818.74	-0.0163011
2820.07	0.321378
2821.39	0.632213
2822.72	1.1346
2824.04	1.94299
2825.37	2.66189
2826.69	3.78087
2828.02	4.70939
2829.34	6.19986
2830.66	7.26157
2831.99	9.04627
2833.31	10.5519
2834.63	11.5553
2835.96	13.202
2837.28	15.1654
2838.6	15.8582
2839.92	17.794
2841.24	19.1691
2842.57	20.8112
2843.89	22.7355
2845.21	24.8947
2846.53	27.5958
2847.85	29.9018
2849.17	32.0569
2850.49	34.2299
2851.81	36.8495
2853.13	39.7544
2854.45	41.9529
2855.77	44.4767
2857.09	46.7996
2858.41	49.7872
2859.72	52.2014
2861.04	54.9093
2862.36	57.8284
2863.68	59.7779
2865	61.9022
2866.31	64.0368
2867.63	66.1597
2868.95	68.0332
2870.26	69.7746
2871.58	71.3135
2872.9	72.2712
2874.21	73.3189
2875.53	74.7083
2876.84	76.2634
2878.16	77.0477
2879.47	78.0083
2880.79	78.5183
2882.1	79.4845
2883.42	80.796
2884.73	81.3467
2886.05	82.1855
2887.36	83.626
2888.67	83.9804
2889.99	85.019
2891.3	85.979
2892.61	87.7755
2893.92	89.6119
2895.24	90.5409
2896.55	92.1984
2897.86	93.9736
2899.17	95.5874
2900.48	96.9375
2901.79	98.9231
2903.11	101.167
2904.42	102.785
2905.73	105.594
2907.04	108.214
2908.35	111.42
2909.66	114.732
2910.97	118.045
2912.27	121.306
2913.58	124.323
2914.89	127.635
2916.2	130.345
2917.51	134.124
2918.82	137.434
2920.13	140.187
2921.43	142.878
2922.74	145.013
2924.05	147.781
2925.35	150.096
2926.66	152.004
2927.97	153.249
2929.27	153.901
2930.58	155.18
2931.89	155.682
2933.19	155.97
2934.5	155.585
2935.8	155.445
2937.11	154.931
2938.41	153.671
2939.72	152.623
2941.02	151.279
2942.32	149.827
2943.63	147.575
2944.93	145.495
2946.24	143.128
2947.54	141.196
2948.84	137.957
2950.14	135.027
2951.45	131.862
2952.75	128.964
2954.05	125.411
2955.35	123.011
2956.65	119.789
2957.95	116.738
2959.26	113.127
2960.56	109.29
2961.86	106.763
2963.16	103.663
2964.46	100.316
2965.76	97.5312
2967.06	94.6672
2968.36	91.9063
2969.66	88.7011
2970.96	86.3197
2972.25	83.8591
2973.55	81.7988
2974.85	79.2817
2976.15	76.9536
2977.45	74.4165
2978.74	72.244
2980.04	69.8655
2981.34	67.695
2982.64	65.7351
2983.93	62.8314
2985.23	60.1623
2986.52	57.1342
2987.82	54.2269
2989.12	52.0926
2990.41	49.6381
2991.71	47.1574
2993	44.7286
2994.3	42.3229
2995.59	40.1905
2996.89	38.4511
2998.18	36.0873
2999.48	34.1457
3000.77	32.4249
3002.06	29.9885
3003.36	27.3422
3004.65	25.3857
3005.94	23.4333
3007.23	22.0964
3008.53	19.883
3009.82	18.2049
3011.11	16.5311
3012.4	14.8806
3013.69	12.2341
3014.99	11.0395
3016.28	9.77322
3017.57	8.83814
3018.86	7.63062
3020.15	6.41895
3021.44	5.46366
3022.73	4.70475
3024.02	3.9443
3025.31	3.30152
3026.6	3.10188
3027.89	2.42392
3029.18	1.86219
3030.46	1.95523
3031.75	1.21664
3033.04	1.09264
3034.33	1.2115
3035.62	1.15171
3036.9	1.07256
3038.19	1.683
3039.48	1.55933
3040.76	1.52843
3042.05	1.94012
3043.34	2.09539
3044.62	2.61658
3045.91	2.95605
3047.19	2.96047
3048.48	2.94656
3049.77	3.48308
3051.05	3.49606
3052.34	3.73103
3053.62	4.34556
3054.9	4.80978
3056.19	4.63108
3057.47	4.67825
3058.76	4.9115
3060.04	4.93693
3061.32	5.07389
3062.61	4.82052
3063.89	4.86193
3065.17	4.75285
3066.45	3.84452
3067.74	4.03553
3069.02	4.24381
3070.3	3.93121
3071.58	3.9514
3072.86	3.17929
3074.14	3.09674
3075.42	2.48157
3076.7	2.32663
3077.99	2.28665
3079.26	2.5717
3080.54	2.41657
3081.82	1.97076
3083.1	1.85395
3084.38	1.06055
3085.66	0.480169
3086.94	0.382407
3088.22	0.0731962
3089.5	0.197918
3090.78	0.476334
3092.05	-0.122878
3093.33	-0.0697931
3094.61	-0.628841
3095.89	-1.0728
3097.16	-0.8964
3098.44	-0.614689
3099.72	-1.08577
3100.99	-1.08747
3102.27	-1.01758
3103.54	-1.19372
3104.82	-0.793733
3106.1	-0.253629
3107.37	-0.0786642
3108.65	0.393603
3109.92	0.371876
3111.2	0.357881
3112.47	0.90654
3113.74	1.64858
3115.02	1.57409
3116.29	1.69279
3117.56	2.07607
3118.84	2.42609
3120.11	2.64749
3121.38	3.38409
3122.66	3.66043
3123.93	4.06161
3125.2	4.67911
3126.47	4.91554
3127.74	5.12825
3129.01	5.80676
3130.29	5.98887
3131.56	7.29181
3132.83	7.83817
3134.1	8.02247
3135.37	8.82626
3136.64	9.21693
3137.91	10.139
3139.18	10.701
3140.45	11.4871
3141.72	11.9674
3142.99	12.2393
3144.26	12.6359
3145.52	13.125
3146.79	13.6521
3148.06	14.8112
3149.33	14.497
