#Acq. time (s)=	45
#Accumulations=	2
#Range (cm-¹)=	200...3150
#Windows=	2
#Auto scanning=	Off
#Autofocus=	Off
#Macrospot=	Off
#AutoExposure=	Off
#Spike filter=	Multiple accum.
#Delay time (s)=	0
#Binning=	1
#Readout mode=	Signal
#DeNoise=	Off
#ICS correction=	On
#Dark correction=	Off
#Inst. Process=	Off
#Detector Gain=	Best Dynamic Range
#Detector ADC=	20 kHz       
#Detector temperature (°C)=	-69.85
#Instrument=	LabRAM HR Evol
#Detector=	Synapse
#Objective=	x100
#Grating=	600 gr/mm
#ND Filter=	100%
#Laser (nm)=	532 
#Hole=	100.021
#Range=	Auto
#Laser Pol.=	No
#Raman. Pol.=	No
#Laser Pol. (°)=	-0.0007625
#Raman Pol. (°)=	89.9995
#Collection=	Microscope
#StageXY=	Marzhauser
#StageZ=	Marzhauser
#X (µm)=	-5141.9
#Y (µm)=	1516.5
#Z (µm)=	63.7
#Full time(mm:ss)=	3:18
#Project=	
#Sample=	
#Site=	
#Title=	Thy_50_12_33_2x_45s_532 nm_x100_100%_600 gr_mm
#Remark=	
#Date=	07.07.2022 11:39
#Acquired=	07.07.2022 11:39:31
#Base:Fit=	10.08.2022 10:04:30
#Base:Sub=	10.08.2022 10:04:45
#Filter:Polynom=	16.08.2022 10:20:25
#AxisType[0]=Intens
#AxisUnit[0]=Cnt
#AxisType[1]=Spectr
#AxisUnit[1]=1/cm
200.43	32.8643
202.246	36.3154
204.061	38.3746
205.875	38.8222
207.688	38.1945
209.501	37.0565
211.316	35.6436
213.129	34.1809
214.941	31.8333
216.753	29.9339
218.566	28.5962
220.377	26.0701
222.188	24.5381
223.999	23.3918
225.809	20.7037
227.618	18.4929
229.43	17.4481
231.239	16.2657
233.047	14.5618
234.855	13.0634
236.663	12.4833
238.471	11.4258
240.278	10.9519
242.087	11.08
243.894	10.1389
245.7	9.5678
247.506	9.1997
249.311	9.67529
251.116	9.26328
252.921	8.37759
254.725	9.20752
256.529	10.3764
258.333	11.1249
260.136	11.4096
261.939	11.8385
263.744	12.7968
265.546	14.4479
267.348	14.4095
269.15	15.3208
270.951	15.6388
272.752	15.2419
274.552	16.1136
276.353	16.2337
278.152	15.3391
279.952	16.9425
281.751	17.7803
283.55	17.6924
285.348	17.5948
287.146	17.8425
288.942	17.6631
290.739	17.6877
292.536	16.2884
294.333	15.0391
296.129	13.8023
297.925	13.266
299.721	12.6179
301.516	12.643
303.311	12.0897
305.106	11.2694
306.9	11.153
308.694	10.5283
310.486	9.12048
312.279	8.46445
314.072	7.39564
315.864	6.74848
317.656	6.44978
319.448	6.6864
321.24	4.54679
323.029	3.60566
324.819	3.77117
326.61	4.02228
328.4	3.69876
330.19	4.2506
331.977	3.3213
333.766	4.11572
335.555	5.03714
337.343	5.81519
339.131	6.08719
340.917	5.99164
342.704	6.56424
344.491	6.09809
346.277	6.20027
348.062	6.17402
349.848	6.28383
351.633	6.6951
353.416	7.11578
355.201	6.42448
356.986	6.49213
358.77	6.70885
360.552	6.49569
362.335	6.35939
364.118	6.36804
365.899	5.99792
367.682	5.17227
369.464	6.8293
371.243	6.40625
373.025	6.56
374.806	7.14462
376.585	7.09628
378.365	6.64075
380.143	5.19692
381.923	4.78314
383.702	4.99534
385.479	4.93575
387.258	5.16806
389.034	5.21406
390.812	4.68231
392.59	4.59093
394.365	3.87635
396.142	3.11528
397.916	2.91616
399.693	2.7553
401.467	2.42427
403.242	2.56877
405.015	2.37178
406.79	1.22324
408.565	1.05048
410.337	0.615826
412.111	1.5361
413.882	2.09309
415.656	1.54769
417.426	1.66509
419.197	2.52709
420.969	2.29955
422.739	3.53549
424.51	2.41272
426.279	1.83346
428.05	2.27752
429.819	2.70856
431.589	2.20816
433.356	2.55188
435.124	2.98281
436.893	3.303
438.66	3.16371
440.428	3.04712
442.194	2.5059
443.96	2.64665
445.727	3.29893
447.492	3.05721
449.259	3.30426
451.023	3.78624
452.787	3.88488
454.553	3.55199
456.316	3.86088
458.079	5.06338
459.844	5.67828
461.606	6.18886
463.368	6.01542
465.132	5.97819
466.893	6.65192
468.654	6.87893
470.415	7.60784
472.177	8.336
473.937	7.7805
475.696	7.8033
477.456	8.65831
479.217	8.59689
480.975	9.24923
482.733	9.28568
484.491	9.94976
486.251	10.5942
488.008	10.727
489.765	11.2324
491.522	12.021
493.278	12.5897
495.036	13.6508
496.791	14.5591
498.546	15.203
500.301	15.7462
502.056	16.8285
503.81	16.8723
505.566	17.8455
507.319	18.4617
509.073	17.8679
510.825	17.6604
512.578	17.6477
514.33	17.3871
516.082	17.8732
517.833	18.3786
519.587	18.1836
521.337	18.4462
523.088	17.4442
524.838	17.8654
526.588	17.8194
528.337	18.3528
530.087	18.7255
531.835	19.1127
533.584	18.8637
535.332	19.2767
537.08	19.3807
538.827	19.199
540.574	17.7805
542.321	17.4131
544.068	17.4276
545.814	17.4789
547.56	17.2342
549.305	16.7729
551.05	15.9514
552.795	16.0582
554.54	15.6379
556.284	15.5321
558.027	15.7256
559.771	15.7259
561.514	14.6362
563.257	13.9519
564.999	13.1125
566.742	11.8902
568.481	12.125
570.223	12.1227
571.964	12.6658
573.705	12.4154
575.445	13.3624
577.185	14.4588
578.925	14.2086
580.665	13.0123
582.402	12.8369
584.141	12.189
585.879	11.593
587.617	11.4887
589.355	11.6058
591.092	10.5771
592.828	10.6332
594.564	10.8596
596.301	11.0197
598.037	11.0332
599.773	11.294
601.506	11.0379
603.242	11.6235
604.976	11.8349
606.711	11.5145
608.443	10.87
610.177	11.4582
611.91	12.3406
613.644	12.6159
615.374	12.1491
617.107	12.7704
618.839	12.0737
620.569	11.6614
622.3	11.4331
624.032	10.9479
625.761	10.8109
627.491	10.4719
629.221	10.9492
630.949	11.6798
632.679	12.2166
634.408	12.6354
636.135	13.7457
637.863	13.4923
639.592	14.1888
641.318	14.8273
643.045	16.1823
644.77	16.3128
646.497	16.2577
648.224	16.4368
649.948	17.5353
651.674	18.323
653.398	19.8473
655.123	21.0856
656.846	21.881
658.57	23.425
660.293	23.2054
662.017	24.3805
663.738	23.7797
665.462	23.3173
667.185	23.0606
668.905	24.6033
670.628	25.324
672.348	26.6501
674.067	28.2648
675.789	29.941
677.508	29.9371
679.228	32.0958
680.947	34.4558
682.667	36.001
684.385	36.6399
686.104	37.77
687.821	38.6917
689.538	40.195
691.256	41.7954
692.972	42.6959
694.69	43.4646
696.406	45.6416
698.121	46.2663
699.837	47.3068
701.552	47.6766
703.268	49.0007
704.982	48.6272
706.695	49.3332
708.41	49.7398
710.123	50.5732
711.836	50.923
713.55	50.9091
715.262	51.4932
716.973	51.2562
718.685	50.9249
720.398	51.2836
722.108	51.6337
723.818	51.2127
725.53	51.8278
727.24	51.7732
728.949	51.9218
730.658	51.4433
732.369	52.044
734.077	51.9238
735.785	52.184
737.493	51.6555
739.2	51.4689
740.909	51.4536
742.616	52.0033
744.322	52.4328
746.028	52.2487
747.734	53.0628
749.441	53.2814
751.146	54.64
752.851	55.4944
754.555	57.0347
756.26	58.1367
757.963	60.1488
759.667	61.5699
761.372	62.2367
763.075	63.2449
764.777	67.027
766.479	69.1169
768.181	70.2228
769.883	70.9204
771.584	72.2052
773.285	74.2413
774.986	75.5298
776.686	77.0293
778.386	77.9458
780.085	79.5257
781.785	79.7571
783.484	80.567
785.182	81.588
786.881	81.958
788.579	83.4963
790.276	83.5969
791.974	84.7128
793.671	85.1005
795.367	85.6218
797.064	86.4152
798.76	86.964
800.456	87.2043
802.151	87.211
803.846	87.4885
805.541	87.5921
807.236	88.3311
808.93	88.4792
810.624	88.6723
812.317	87.9573
814.01	88.6998
815.703	88.4354
817.394	88.0764
819.086	86.9459
820.778	86.2095
822.47	85.6721
824.161	85.4391
825.852	85.5973
827.543	84.6442
829.231	83.5539
830.921	83.1176
832.611	82.0337
834.3	80.6614
835.989	78.6502
837.676	77.4741
839.364	75.7303
841.053	74.2483
842.74	73.9324
844.426	72.1676
846.113	70.5209
847.8	70.592
849.486	68.9849
851.171	66.3857
852.857	64.4855
854.542	62.6878
856.227	62.4979
857.911	61.8408
859.595	60.5437
861.279	60.2077
862.961	59.1359
864.645	58.3297
866.329	57.6677
868.01	58.0477
869.692	58.0699
871.375	58.1389
873.055	58.3493
874.737	57.1066
876.418	57.1408
878.097	56.7151
879.778	56.9588
881.457	56.3706
883.137	56.3281
884.817	56.675
886.495	56.9391
888.174	57.5462
889.851	58.6623
891.53	59.2999
893.206	59.2025
894.884	59.2565
896.562	59.7247
898.237	59.624
899.914	58.1693
901.589	56.3705
903.265	56.0878
904.94	55.9099
906.615	56.07
908.289	55.5041
909.964	55.2517
911.637	53.1568
913.31	52.649
914.984	51.3166
916.656	49.3866
918.33	48.128
920.001	47.2588
921.674	47.4514
923.345	45.9836
925.015	45.1486
926.687	45.1987
928.357	43.9152
930.028	42.3226
931.698	40.9236
933.366	38.802
935.037	39.1228
936.705	38.6657
938.373	38.428
940.043	38.7248
941.71	37.6009
943.379	37.2213
945.046	36.1247
946.712	34.4254
948.378	34.6714
950.046	34.6846
951.711	34.9044
953.376	35.4517
955.043	35.1644
956.708	34.2723
958.372	33.6413
960.036	34.6621
961.701	34.6952
963.364	35.3064
965.027	35.4522
966.69	37.0353
968.354	37.0816
970.016	36.6844
971.678	36.512
973.339	35.313
975	35.7004
976.661	35.3153
978.324	35.5232
979.984	34.9171
981.644	33.4571
983.303	33.2647
984.962	33.4843
986.621	33.9961
988.282	34.5103
989.94	33.9107
991.598	33.3524
993.256	32.8454
994.913	31.4145
996.57	31.9573
998.227	32.0455
999.884	31.4245
1001.54	31.6352
1003.2	31.6223
1004.85	30.5217
1006.51	29.7
1008.16	29.3929
1009.82	30.0523
1011.47	29.5938
1013.12	28.9335
1014.78	28.7653
1016.43	28.9713
1018.08	29.923
1019.74	28.8944
1021.39	28.364
1023.04	27.6267
1024.69	27.2793
1026.34	27.6802
1028	27.4441
1029.65	27.5616
1031.3	29.1562
1032.95	29.0841
1034.6	29.4193
1036.25	30.0313
1037.9	29.2754
1039.55	28.5618
1041.19	28.997
1042.84	29.8261
1044.49	28.5664
1046.14	29.2081
1047.79	28.1121
1049.43	27.2675
1051.08	25.9257
1052.73	24.4637
1054.37	23.9094
1056.02	23.017
1057.66	22.9387
1059.31	21.9823
1060.95	21.2422
1062.6	20.911
1064.24	20.1437
1065.88	20.1289
1067.53	19.1213
1069.17	18.0583
1070.81	18.4006
1072.46	17.3709
1074.1	16.5276
1075.74	15.8202
1077.38	15.3594
1079.02	15.3099
1080.66	14.8394
1082.3	14.0843
1083.94	13.6903
1085.58	12.8575
1087.22	13.0335
1088.86	14.0858
1090.5	14.4826
1092.14	15.1763
1093.78	16.361
1095.42	16.2592
1097.05	15.7355
1098.69	15.8698
1100.33	16.3461
1101.97	15.4175
1103.6	15.9439
1105.24	17.127
1106.87	17.9501
1108.51	18.2739
1110.15	18.2615
1111.78	17.7869
1113.41	18.1829
1115.05	18.2655
1116.68	18.6157
1118.31	18.453
1119.95	17.5641
1121.58	17.6977
1123.21	17.2576
1124.85	16.9021
1126.48	15.5972
1128.11	15.5932
1129.74	14.5878
1131.37	14.3289
1133	13.1029
1134.63	12.009
1136.26	12.1357
1137.89	11.6932
1139.52	11.037
1141.15	10.7745
1142.78	10.1048
1144.41	9.63366
1146.04	7.88178
1147.66	6.41782
1149.29	5.94104
1150.92	5.77257
1152.55	5.5761
1154.17	3.9637
1155.8	2.62255
1157.43	1.61917
1159.05	0.638296
1160.68	0.825102
1162.3	0.596546
1163.93	-0.103441
1165.55	-0.157019
1167.17	0.924267
1168.8	1.43417
1170.42	0.947919
1172.05	0.802638
1173.67	0.701861
1175.29	1.17623
1176.91	0.287616
1178.54	-0.369748
1180.16	-1.09913
1181.78	-1.21763
1183.4	-1.42744
1185.02	-0.590829
1186.64	-0.64
1188.26	-0.921766
1189.88	-0.379368
1191.5	0.149522
1193.12	-0.148032
1194.74	0.868857
1196.36	1.26724
1197.97	1.58246
1199.59	2.41427
1201.21	3.53609
1202.83	2.83628
1204.44	3.64142
1206.06	4.88563
1207.68	5.99092
1209.29	7.32058
1210.91	8.20034
1212.52	9.07633
1214.14	9.93579
1215.75	11.6363
1217.37	12.6524
1218.98	13.4037
1220.6	14.5448
1222.21	15.5658
1223.82	16.1856
1225.44	17.4479
1227.05	18.2982
1228.66	20.572
1230.27	22.4068
1231.88	23.3077
1233.49	24.0734
1235.1	24.0022
1236.72	24.5582
1238.33	26.6411
1239.94	27.8287
1241.55	29.0138
1243.16	30.0381
1244.76	31.708
1246.37	33.3887
1247.98	33.5152
1249.59	34.1979
1251.2	34.6994
1252.8	36.1829
1254.41	36.6989
1256.02	37.4926
1257.63	38.0265
1259.23	37.8592
1260.84	39.4434
1262.44	41.8052
1264.05	43.6289
1265.66	44.8226
1267.26	45.8696
1268.87	47.338
1270.47	48.4479
1272.07	49.1022
1273.68	49.9166
1275.28	51.4546
1276.88	52.1573
1278.48	53.9411
1280.09	54.3468
1281.69	54.4247
1283.29	55.4792
1284.89	58.228
1286.49	59.3886
1288.09	60.5562
1289.69	61.3569
1291.3	61.5919
1292.9	63.3128
1294.49	64.1736
1296.09	63.5941
1297.69	63.9805
1299.29	64.6967
1300.89	65.0949
1302.49	65.199
1304.09	65.7477
1305.68	65.9482
1307.28	65.5495
1308.88	66.2036
1310.47	65.9647
1312.07	65.9773
1313.66	65.7487
1315.26	66.0114
1316.86	66.5831
1318.45	67.13
1320.05	65.9671
1321.64	65.3147
1323.23	64.9604
1324.83	63.5612
1326.42	62.0316
1328.01	61.297
1329.61	61.0446
1331.2	60.0751
1332.79	59.7399
1334.38	58.1618
1335.98	57.5629
1337.57	57.1444
1339.16	55.7612
1340.75	55.7805
1342.34	54.2923
1343.93	52.8316
1345.52	51.7871
1347.11	50.1968
1348.7	49.1482
1350.29	48.3881
1351.87	47.2791
1353.46	45.7958
1355.05	44.9965
1356.64	43.9022
1358.23	43.5707
1359.81	41.1893
1361.4	41.3885
1362.99	41.8728
1364.57	40.1488
1366.16	38.7782
1367.74	36.6505
1369.33	35.0565
1370.91	34.7754
1372.5	34.2884
1374.08	32.6497
1375.67	31.1439
1377.25	31.5076
1378.83	31.4707
1380.42	30.8308
1382	30.6418
1383.58	30.0653
1385.16	29.3494
1386.75	30.011
1388.33	29.6742
1389.91	28.9249
1391.49	27.3449
1393.07	27.1571
1394.65	26.8243
1396.23	26.903
1397.81	26.9024
1399.39	26.9373
1400.97	27.1755
1402.55	27.6168
1404.13	28.6961
1405.7	30.8373
1407.28	31.4978
1408.86	32.6356
1410.44	33.6715
1412.01	34.3898
1413.59	35.0254
1415.17	34.5473
1416.74	34.7889
1418.32	36.7107
1419.89	39.9607
1421.47	42.2834
1423.05	45.5515
1424.62	48.9618
1426.19	52.5489
1427.77	55.8979
1429.34	58.9397
1430.92	61.8561
1432.49	64.943
1434.06	67.9403
1435.63	69.9183
1437.2	72.1863
1438.78	73.2705
1440.35	75.9892
1441.92	77.734
1443.49	78.2082
1445.06	79.702
1446.63	80.0016
1448.2	81.5396
1449.77	81.866
1451.34	80.4772
1452.91	80.2134
1454.48	79.4022
1456.05	79.1445
1457.62	77.9096
1459.18	75.8845
1460.75	74.6297
1462.32	71.8185
1463.89	69.3772
1465.45	66.9762
1467.02	63.6408
1468.59	60.7816
1470.15	58.2439
1471.72	56.3691
1473.28	54.4459
1474.85	52.2174
1476.41	49.4206
1477.98	46.9497
1479.54	44.1391
1481.11	41.2192
1482.67	38.5316
1484.23	36.042
1485.8	32.3795
1487.36	30.0255
1488.92	27.4151
1490.48	24.9312
1492.05	23.1021
1493.61	21.7905
1495.17	22.8831
1496.73	23.8177
1498.29	23.7986
1499.85	24.0406
1501.41	24.191
1502.97	24.116
1504.53	24.2702
1506.09	22.6224
1507.65	22.4261
1509.2	22.1344
1510.76	21.8207
1512.32	21.1556
1513.88	21.1442
1515.44	20.8378
1516.99	21.1382
1518.55	21.9386
1520.1	21.8738
1521.66	21.0724
1523.22	20.9336
1524.77	20.7564
1526.33	21.1534
1527.88	20.8331
1529.44	21.9579
1530.99	22.247
1532.55	22.376
1534.1	23.1015
1535.65	23.4575
1537.21	24.0079
1538.76	24.3643
1540.31	25.0287
1541.86	25.8153
1543.42	26.6219
1544.97	27.7195
1546.52	28.2648
1548.07	30.2039
1549.62	31.646
1551.17	32.9593
1552.72	34.0828
1554.27	35.7814
1555.82	37.3923
1557.37	39.0037
1558.92	40.0255
1560.47	41.3763
1562.02	42.8313
1563.57	43.4476
1565.11	44.9126
1566.66	46.9487
1568.21	49.1111
1569.75	50.1024
1571.3	51.4361
1572.85	52.4573
1574.39	53.7158
1575.94	55.0213
1577.49	56.2684
1579.03	56.632
1580.58	57.0827
1582.12	57.5159
1583.67	58.18
1585.21	58.5543
1586.75	58.31
1588.3	58.2418
1589.84	57.2607
1591.38	56.7816
1592.93	56.0185
1594.47	55.9491
1596.01	55.7128
1597.55	55.5001
1599.09	54.6456
1600.63	54.0915
1602.18	54.0755
1603.72	54.3881
1605.26	54.0658
1606.8	52.9331
1608.34	51.9635
1609.87	51.9375
1611.41	52.0966
1612.95	52.0548
1614.49	52.0541
1616.03	51.9943
1617.57	52.7546
1619.11	52.845
1620.64	54.3128
1622.18	54.6294
1623.72	56.0457
1625.25	57.1702
1626.79	58.3264
1628.32	59.9799
1629.86	60.7384
1631.4	62.7721
1632.93	64.4714
1634.47	66.0655
1636	67.3934
1637.53	69.056
1639.07	69.9544
1640.6	71.1244
1642.14	73.2934
1643.67	74.6394
1645.2	75.4319
1646.73	75.3616
1648.27	76.2282
1649.8	77.2357
1651.33	78.0407
1652.86	79.0217
1654.39	79.6993
1655.92	80.2768
1657.45	80.108
1658.98	79.9585
1660.51	79.1984
1662.04	77.6627
1663.57	76.7025
1665.1	75.8734
1666.63	74.4983
1668.16	73.4228
1669.69	72.2023
1671.21	71.6006
1672.74	70.2855
1674.27	67.2781
1675.79	65.1633
1677.32	63.0314
1678.85	61.4134
1680.37	59.7133
1681.9	56.4602
1683.42	53.8616
1684.95	51.3199
1686.47	48.4911
1688	45.9263
1689.52	42.9908
1691.05	41.2458
1692.57	39.4588
1694.1	37.1341
1695.62	35.355
1697.14	33.1549
1698.66	30.9896
1700.19	30.1312
1701.71	28.412
1703.23	27.4517
1704.75	25.4317
1706.27	24.3726
1707.79	24.4128
1709.32	22.5981
1710.83	21.45
1712.35	19.796
1713.88	18.4353
1715.39	16.8668
1716.91	16.4113
1718.43	15.1056
1719.95	13.8137
1721.47	13.0035
1722.99	12.904
1724.5	13.0597
1726.02	13.5995
1727.54	13.0254
1729.06	13.7314
1730.57	12.9762
1732.09	12.5253
1733.61	11.6152
1735.12	11.2833
1736.64	10.9712
1738.15	10.1871
1739.67	9.93561
1741.18	9.771
1742.7	9.64153
1744.21	9.2635
1745.72	9.28057
1747.24	9.10834
1748.75	8.22638
1750.26	7.97713
1751.78	8.62631
1753.29	8.09241
1754.8	8.4878
1756.31	8.28225
1757.82	6.98768
1759.34	6.86643
1760.85	6.62124
1762.36	7.00386
1763.87	7.57157
1765.38	7.75311
1766.89	8.76396
1768.4	8.50971
1769.91	8.35038
1771.41	8.85746
1772.92	8.74404
1774.43	9.14732
1775.94	9.73042
1777.45	10.0997
1778.96	10.1535
1780.46	10.1353
1781.97	10.419
1783.48	10.1566
1784.98	9.54
1786.49	9.58406
1788	9.18689
1789.5	8.98266
1791.01	8.97199
1792.51	9.05887
1794.01	8.45538
1795.52	8.67414
1797.02	8.74206
1798.53	8.7137
1800.03	8.37822
1801.54	8.04338
1803.04	7.60274
1804.54	7.65839
1806.04	6.93595
1807.54	6.75281
1809.05	6.27514
1810.55	6.04638
1812.05	5.66418
1813.55	5.33912
1815.05	6.13736
1816.55	5.68281
1818.05	5.77718
1819.55	5.07752
1821.05	5.09084
1822.55	4.69086
1824.05	4.94807
1825.55	5.89952
1827.05	6.47409
1828.55	6.73058
1830.04	7.66101
1831.54	7.49254
1833.04	7.43326
1834.54	8.01994
1836.03	8.4572
1837.53	8.63968
1839.03	8.86538
1840.52	8.65086
1842.02	8.672
1843.51	7.91941
1845.01	7.65882
1846.5	7.41161
1848	7.45224
1849.49	7.02603
1850.99	6.65619
1852.48	6.26545
1853.97	5.81955
1855.47	4.78373
1856.96	4.81052
1858.45	4.46952
1859.94	4.12392
1861.44	3.92923
1862.93	3.25394
1864.42	3.27532
1865.91	3.62459
1867.4	2.99984
1868.89	2.44769
1870.38	2.22467
1871.87	2.24218
1873.36	2.19601
1874.85	3.04304
1876.34	3.39642
1877.83	2.89984
1879.32	2.89433
1880.81	2.96539
1882.3	2.71462
1882.56	2.88165
1884.06	2.75971
1885.55	2.19218
1887.04	2.50509
1888.54	1.86776
1890.03	1.98993
1891.52	1.94006
1893.02	1.74141
1894.51	3.15747
1896	3.72607
1897.49	4.90986
1898.99	5.4386
1900.48	5.07317
1901.97	4.80235
1903.46	4.85228
1904.95	4.37442
1906.44	4.86369
1907.93	5.69797
1909.42	6.04342
1910.91	6.32541
1912.4	5.86478
1913.89	5.25825
1915.38	5.03692
1916.86	4.99893
1918.35	5.06256
1919.84	4.35671
1921.33	4.38588
1922.82	4.07467
1924.3	4.0616
1925.79	4.77435
1927.28	4.72732
1928.76	4.47256
1930.25	4.55621
1931.74	3.95746
1933.22	3.75445
1934.71	3.93006
1936.19	4.02132
1937.67	5.31724
1939.16	5.76652
1940.64	6.41029
1942.13	6.97355
1943.61	7.53823
1945.09	8.31094
1946.58	8.67342
1948.06	8.61832
1949.54	7.86446
1951.03	7.91042
1952.51	7.74369
1953.99	8.03466
1955.47	7.88022
1956.95	7.04433
1958.43	5.94732
1959.91	5.77935
1961.39	5.83121
1962.87	5.57192
1964.35	6.13086
1965.83	5.68595
1967.31	6.0157
1968.79	6.37142
1970.27	6.4666
1971.75	6.23402
1973.22	5.99624
1974.7	6.1576
1976.18	6.02435
1977.66	6.04867
1979.13	6.29451
1980.61	6.07616
1982.09	6.00251
1983.56	5.52788
1985.04	5.38312
1986.52	4.68453
1987.99	4.88892
1989.47	4.63917
1990.94	4.07533
1992.41	3.39289
1993.89	3.14714
1995.36	2.83141
1996.84	2.39975
1998.31	2.28839
1999.78	2.61742
2001.26	2.25459
2002.73	2.23514
2004.2	1.97628
2005.67	2.22794
2007.15	2.64095
2008.62	3.87796
2010.09	4.09902
2011.56	4.53531
2013.03	4.10039
2014.5	4.01407
2015.97	2.96056
2017.44	3.02689
2018.91	2.65544
2020.38	2.17526
2021.85	2.70949
2023.32	3.03783
2024.79	3.35218
2026.25	2.86622
2027.72	3.61853
2029.19	3.38937
2030.66	3.12494
2032.13	3.92038
2033.59	4.70296
2035.06	4.84222
2036.53	5.76525
2037.99	6.19197
2039.46	6.8194
2040.92	7.65386
2042.39	8.31456
2043.85	9.06818
2045.32	9.41462
2046.78	10.0453
2048.25	10.6386
2049.71	10.574
2051.18	11.9066
2052.64	13.1934
2054.1	13.2347
2055.56	13.889
2057.03	14.0316
2058.49	13.9357
2059.95	13.8686
2061.42	14.0431
2062.88	13.277
2064.34	13.2966
2065.8	13.9603
2067.26	15.158
2068.72	15.5933
2070.18	16.0758
2071.64	16.6437
2073.1	17.2215
2074.56	17.5259
2076.02	18.0552
2077.48	18.2139
2078.94	18.583
2080.39	19.2291
2081.85	19.8901
2083.31	20.2065
2084.77	20.525
2086.22	21.5767
2087.68	22.5234
2089.14	23.2185
2090.6	24.347
2092.05	25.3448
2093.51	26.514
2094.96	28.0068
2096.42	29.1952
2097.87	30.7157
2099.33	32.015
2100.78	33.5907
2102.24	35.0961
2103.69	36.7577
2105.15	38.7597
2106.6	40.173
2108.05	41.858
2109.51	43.6515
2110.96	45.1634
2112.41	46.9362
2113.86	48.8366
2115.32	50.8988
2116.77	52.9748
2118.22	54.4857
2119.67	55.9444
2121.12	57.6285
2122.57	59.6002
2124.02	61.4526
2125.47	62.4772
2126.92	63.0719
2128.37	65.0655
2129.82	66.3686
2131.27	68.2121
2132.72	70.757
2134.17	72.689
2135.62	74.2154
2137.06	76.3591
2138.51	78.5245
2139.96	79.056
2141.41	80.0435
2142.85	81.2938
2144.3	82.7226
2145.75	83.9008
2147.19	85.0031
2148.64	85.673
2150.09	86.3055
2151.53	87.4967
2152.97	88.4961
2154.42	90.0015
2155.86	91.4414
2157.31	92.5654
2158.75	93.8035
2160.2	94.0264
2161.64	94.5323
2163.08	95.0399
2164.53	95.9592
2165.97	95.7764
2167.41	95.6997
2168.86	95.997
2170.3	95.5892
2171.74	95.133
2173.18	94.747
2174.62	94.616
2176.06	93.6252
2177.5	92.8224
2178.94	91.2457
2180.38	90.4577
2181.82	89.1034
2183.26	88.2928
2184.7	86.8198
2186.14	85.3093
2187.58	83.6682
2189.02	81.8295
2190.46	80.2
2191.89	78.8433
2193.33	77.5009
2194.77	75.9911
2196.21	74.0725
2197.64	72.599
2199.08	70.836
2200.52	70.1013
2201.95	68.3443
2203.39	67.2582
2204.83	65.7734
2206.26	63.2785
2207.7	60.7195
2209.13	59.2658
2210.57	57.0522
2212	54.8924
2213.43	53.4573
2214.87	52.0592
2216.3	50.6251
2217.73	49.6447
2219.17	49.0791
2220.6	47.748
2222.03	46.7895
2223.47	45.5309
2224.9	44.7589
2226.33	43.9701
2227.76	42.6038
2229.19	41.1478
2230.62	39.6094
2232.05	37.9788
2233.49	36.4647
2234.91	34.9933
2236.34	34.2102
2237.77	32.327
2239.2	31.0956
2240.63	30.47
2242.06	29.681
2243.49	28.2469
2244.92	27.5772
2246.35	26.2316
2247.78	25.2459
2249.2	25.2792
2250.63	24.3197
2252.06	24.0192
2253.48	23.0638
2254.91	22.3446
2256.34	21.295
2257.76	20.7072
2259.19	20.1076
2260.61	20.0985
2262.04	19.7918
2263.46	18.5314
2264.89	17.7712
2266.31	16.8166
2267.74	16.9541
2269.16	16.4781
2270.59	15.6608
2272.01	14.9901
2273.43	14.3886
2274.85	14.2009
2276.28	13.8017
2277.7	13.3859
2279.12	12.8504
2280.54	12.9326
2281.97	12.6709
2283.39	12.4379
2284.81	12.4047
2286.23	12.7854
2287.65	12.0329
2289.07	11.0489
2290.49	9.93446
2291.91	8.17299
2293.33	7.28045
2294.75	6.96533
2296.17	6.89119
2297.59	6.80512
2299.01	7.20071
2300.42	7.33782
2301.84	7.52901
2303.26	7.45047
2304.68	7.20185
2306.1	7.67824
2307.51	7.757
2308.93	7.91915
2310.35	8.32428
2311.76	8.57094
2313.18	8.80765
2314.59	9.14687
2316.01	9.16262
2317.43	8.63065
2318.84	9.61625
2320.26	9.85433
2321.67	9.06274
2323.08	8.86635
2324.5	8.13868
2325.91	8.0411
2327.33	8.0917
2328.74	8.23487
2330.15	8.04832
2331.56	8.18639
2332.98	7.4967
2334.39	6.89703
2335.8	6.37641
2337.21	6.19654
2338.62	6.29937
2340.04	5.16824
2341.45	4.73826
2342.86	4.46066
2344.27	4.35285
2345.68	3.69907
2347.09	3.47831
2348.5	3.15204
2349.91	2.82999
2351.31	2.62099
2352.72	2.16155
2354.13	1.10457
2355.54	1.20077
2356.95	0.295847
2358.36	-0.353176
2359.76	-0.571843
2361.17	-0.526537
2362.58	-0.313393
2363.98	0.465858
2365.39	1.18186
2366.8	1.50891
2368.21	1.63319
2369.61	1.72829
2371.02	2.37935
2372.42	1.98733
2373.83	1.83567
2375.23	2.28131
2376.64	2.41223
2378.04	2.65175
2379.44	2.52379
2380.85	2.55532
2382.25	2.44312
2383.66	2.78047
2385.06	3.09569
2386.46	2.33748
2387.86	2.93519
2389.26	3.09443
2390.67	2.88002
2392.07	2.25336
2393.47	2.53212
2394.87	2.90719
2396.27	3.3012
2397.67	3.41997
2399.07	3.77266
2400.47	3.4402
2401.87	3.72496
2403.27	3.29114
2404.67	3.48013
2406.07	3.40569
2407.47	3.95305
2408.87	4.08122
2410.27	3.72742
2411.67	4.2696
2413.07	4.84324
2414.46	4.81479
2415.86	5.21883
2417.26	5.28024
2418.66	6.06709
2420.05	6.45634
2421.45	6.54064
2422.84	7.11589
2424.24	6.79641
2425.64	7.46352
2427.03	7.4087
2428.43	7.48718
2429.82	7.71258
2431.22	7.70128
2432.61	7.3813
2434.01	7.44438
2435.4	7.40094
2436.79	7.59553
2438.19	7.67727
2439.58	7.52913
2440.97	7.11195
2442.37	6.46127
2443.76	6.87984
2445.15	6.75346
2446.54	5.91386
2447.93	5.94376
2449.33	5.38845
2450.72	5.65214
2452.11	5.24769
2453.5	5.17269
2454.89	5.26944
2456.28	5.33539
2457.67	5.08329
2459.06	4.42595
2460.45	4.78826
2461.84	5.08441
2463.23	5.67775
2464.62	5.82912
2466	5.76042
2467.39	5.52994
2468.78	5.59057
2470.17	5.23795
2471.55	5.85035
2472.94	5.91106
2474.33	6.2243
2475.72	5.92364
2477.1	5.9842
2478.49	6.122
2479.87	5.46953
2481.26	5.84453
2482.65	5.26204
2484.03	5.14323
2485.42	5.72997
2486.8	5.91331
2488.19	6.84816
2489.57	6.53893
2490.95	6.62317
2492.34	6.52107
2493.72	5.99726
2495.1	6.41774
2496.49	6.21793
2497.87	5.87713
2499.25	5.73346
2500.63	5.43879
2502.02	5.24038
2503.4	5.12068
2504.78	4.99285
2506.16	4.80242
2507.54	4.38266
2508.92	3.36101
2510.3	3.35768
2511.68	3.06818
2513.06	2.59109
2514.44	1.70988
2515.82	0.88168
2517.2	1.21453
2518.58	0.984585
2519.96	0.59288
2521.34	0.413615
2522.72	0.599455
2524.1	0.737983
2525.47	0.192317
2526.85	-0.576715
2528.23	-0.485874
2529.6	-0.155649
2530.98	-0.0914428
2532.36	-0.50249
2533.74	-0.841567
2535.11	-1.26144
2536.49	-1.35022
2537.86	-0.756707
2539.24	-0.594929
2540.61	-0.147117
2541.99	-0.136661
2543.36	-0.227898
2544.74	-0.00714238
2546.11	0.335272
2547.49	0.720311
2548.86	0.503038
2550.23	0.927611
2551.61	1.57668
2552.98	2.57955
2554.35	3.12379
2555.72	2.98395
2557.09	3.6855
2558.47	3.77915
2559.84	4.14681
2561.21	4.17352
2562.58	5.257
2563.95	5.51258
2565.32	5.55326
2566.69	5.38256
2568.06	5.14153
2569.43	5.07732
2570.8	4.83677
2572.17	4.79373
2573.54	4.50563
2574.91	4.40342
2576.28	3.71886
2577.65	3.22428
2579.02	3.48698
2580.39	3.20549
2581.75	4.23473
2583.12	4.38622
2584.49	4.75606
2585.85	4.95746
2587.22	4.72149
2588.59	4.50636
2589.95	4.68154
2591.32	4.61854
2592.68	4.74672
2594.05	4.9939
2595.42	5.73971
2596.78	5.84605
2598.15	6.3199
2599.51	6.88855
2600.88	6.84912
2602.24	7.00573
2603.6	7.2204
2604.97	7.64253
2606.33	7.99471
2607.69	8.33821
2609.06	8.27419
2610.42	8.31166
2611.78	8.48453
2613.14	8.87285
2614.51	8.63164
2615.87	8.47209
2617.23	8.30449
2618.59	8.40887
2619.95	9.29943
2621.31	8.96692
2622.67	9.12406
2624.03	9.15747
2625.39	9.26494
2626.75	9.3413
2628.11	9.67475
2629.47	9.39267
2630.83	9.44635
2632.19	8.3159
2633.55	7.82069
2634.91	7.33535
2636.26	7.22607
2637.62	7.03695
2638.98	7.09393
2640.34	7.39542
2641.69	7.1798
2643.05	7.04342
2644.41	7.08756
2645.76	7.57319
2647.12	7.7569
2648.48	7.91453
2649.83	8.2698
2651.19	7.13739
2652.54	7.44573
2653.9	6.90189
2655.25	7.57434
2656.6	7.55177
2657.96	7.70569
2659.31	7.69775
2660.67	8.70574
2662.02	8.56521
2663.37	8.60593
2664.73	8.7172
2666.08	9.3426
2667.43	8.82032
2668.78	8.34476
2670.14	8.95044
2671.49	9.22329
2672.84	8.62078
2674.19	8.45633
2675.54	8.28716
2676.89	7.9774
2678.24	8.52939
2679.59	9.08427
2680.94	9.02366
2682.29	9.2487
2683.64	9.51981
2684.99	9.69868
2686.34	9.90846
2687.69	10.3078
2689.04	10.0854
2690.39	10.0386
2691.74	9.90495
2693.08	9.76361
2694.43	9.71663
2695.78	9.36591
2697.13	9.64791
2698.47	10.1805
2699.82	9.69654
2701.17	9.86018
2702.51	10.5983
2703.86	11.3045
2705.21	11.4678
2706.55	11.659
2707.9	11.6117
2709.24	11.4599
2710.58	11.2976
2711.93	11.7903
2713.27	11.9729
2714.62	12.1148
2715.96	11.9108
2717.3	11.9404
2718.65	11.9578
2719.99	12.2413
2721.33	11.5722
2722.68	11.7205
2724.02	11.111
2725.36	11.1051
2726.71	11.4165
2728.05	12.1518
2729.39	11.936
2730.73	11.5803
2732.07	11.5866
2733.41	10.9252
2734.75	10.3196
2736.09	10.1544
2737.43	10.3613
2738.77	9.70937
2740.11	9.03997
2741.45	9.11753
2742.79	8.76584
2744.13	8.41768
2745.47	8.44323
2746.81	8.12265
2748.14	7.38191
2749.48	6.83029
2750.82	6.22206
2752.16	5.64923
2753.49	5.15756
2754.83	4.52116
2756.17	4.00198
2757.5	3.86018
2758.84	3.72315
2760.18	3.07654
2761.51	2.48745
2762.85	2.33211
2764.18	2.49346
2765.52	1.78182
2766.85	1.1628
2768.19	1.46031
2769.52	1.38739
2770.86	0.723324
2772.19	0.19121
2773.52	0.26232
2774.86	0.178475
2776.19	-0.536326
2777.52	-0.959106
2778.86	-0.623461
2780.19	-0.607786
2781.52	-0.358119
2782.85	-0.388793
2784.19	-0.2276
2785.52	-0.792648
2786.85	-1.15365
2788.18	-1.23602
2789.51	-1.04635
2790.84	-0.707525
2792.17	-0.403923
2793.5	-0.350875
2794.83	-0.166635
2796.16	-0.43282
2797.49	-0.944386
2798.82	-0.815149
2800.15	-0.955513
2801.48	-1.09158
2802.81	-0.705451
2804.13	-0.323074
2805.46	-0.425722
2806.79	-0.982852
2808.12	-1.02448
2809.45	-1.12457
2810.77	-0.542514
2812.1	-0.443502
2813.43	-0.854226
2814.75	-0.555079
2816.08	0.129264
2817.41	1.05041
2818.73	2.18343
2820.06	3.76571
2821.38	5.77717
2822.71	8.60214
2824.03	10.6546
2825.36	12.9166
2826.68	15.4086
2828	18.5292
2829.33	21.5147
2830.65	24.7241
2831.98	27.9267
2833.3	31.6425
2834.62	35.3722
2835.94	38.5256
2837.27	42.1042
2838.59	45.4185
2839.91	48.8377
2841.23	51.8537
2842.55	55.2342
2843.87	59.3547
2845.2	64.1076
2846.52	68.1855
2847.84	72.628
2849.16	76.4207
2850.48	80.1601
2851.8	84.3853
2853.12	88.5736
2854.44	92.9332
2855.76	97.0668
2857.08	101.545
2858.39	105.698
2859.71	109.836
2861.03	113.412
2862.35	117.186
2863.67	120.36
2864.98	123.537
2866.3	126.026
2867.62	128.774
2868.94	130.919
2870.25	132.324
2871.57	134.011
2872.88	135.96
2874.2	138.228
2875.52	139.681
2876.83	141.32
2878.15	142.617
2879.46	144.045
2880.78	145.697
2882.09	147.427
2883.41	148.631
2884.72	150.315
2886.03	151.949
2887.35	153.762
2888.66	155.474
2889.97	156.714
2891.29	158.338
2892.6	159.284
2893.91	160.443
2895.22	161.312
2896.54	163.044
2897.85	164.888
2899.16	166.525
2900.47	168.224
2901.78	169.652
2903.09	172.176
2904.4	174.855
2905.71	177.574
2907.02	180.183
2908.33	183.479
2909.64	187.088
2910.95	190.899
2912.26	194.674
2913.57	198.657
2914.88	201.972
2916.19	205.651
2917.5	208.864
2918.81	211.999
2920.11	214.796
2921.42	217.393
2922.73	219.729
2924.04	221.316
2925.34	223.283
2926.65	224.747
2927.96	226.233
2929.26	226.234
2930.57	226.858
2931.87	226.508
2933.18	225.886
2934.49	225.07
2935.79	224.044
2937.1	222.373
2938.4	220.095
2939.7	217.522
2941.01	214.356
2942.31	211.057
2943.62	207.646
2944.92	203.244
2946.22	198.93
2947.53	194.665
2948.83	189.683
2950.13	185.424
2951.43	180.638
2952.74	176.302
2954.04	171.495
2955.34	167.046
2956.64	161.604
2957.94	156.577
2959.24	152.458
2960.54	148.097
2961.84	144.669
2963.15	140.26
2964.45	135.972
2965.75	131.899
2967.05	127.764
2968.34	123.84
2969.64	120.004
2970.94	115.831
2972.24	111.57
2973.54	108.53
2974.84	105.595
2976.14	101.73
2977.43	98.1899
2978.73	94.0576
2980.03	89.5072
2981.33	85.4754
2982.62	81.3227
2983.92	77.5906
2985.22	73.2335
2986.51	69.419
2987.81	65.2073
2989.11	61.807
2990.4	58.7938
2991.7	54.9292
2992.99	51.4083
2994.29	48.1877
2995.58	45.1843
2996.88	41.4257
2998.17	38.1197
2999.46	35.5
3000.76	32.2105
3002.05	28.805
3003.34	26.1133
3004.64	24.2464
3005.93	21.9677
3007.22	19.7009
3008.52	17.3522
3009.81	14.9728
3011.1	12.859
3012.39	10.9735
3013.68	9.51248
3014.97	8.25798
3016.27	6.88085
3017.56	6.54332
3018.85	5.86006
3020.14	5.39029
3021.43	4.30192
3022.72	4.10877
3024.01	4.03159
3025.3	3.3698
3026.59	3.60661
3027.88	3.25349
3029.16	3.18851
3030.45	2.98683
3031.74	3.77873
3033.03	4.24338
3034.32	4.83555
3035.6	5.18122
3036.89	5.4103
3038.18	6.25753
3039.47	6.58613
3040.75	6.13255
3042.04	6.66157
3043.33	6.86831
3044.61	6.50907
3045.9	6.89145
3047.18	7.14651
3048.47	7.18542
3049.75	6.89722
3051.04	7.37275
3052.32	7.35961
3053.61	7.83479
3054.89	8.12896
3056.18	8.3695
3057.46	8.91919
3058.74	9.27805
3060.03	9.02773
3061.31	8.67739
3062.59	8.73897
3063.88	8.4854
3065.16	7.89276
3066.44	7.43252
3067.72	7.60356
3069	7.60899
3070.29	6.87398
3071.57	6.02176
3072.85	5.21799
3074.13	4.9078
3075.41	3.78062
3076.69	3.4018
3077.97	2.66812
3079.25	2.43287
3080.53	1.99325
3081.81	2.09481
3083.09	1.57784
3084.37	0.961471
3085.65	0.705758
3086.93	1.00398
3088.21	0.428272
3089.49	0.891135
3090.76	1.2215
3092.04	1.03376
3093.32	1.54327
3094.6	2.3473
3095.87	3.42449
3097.15	3.77723
3098.43	4.53401
3099.7	4.88049
3100.98	5.25471
3102.26	6.09456
3103.53	7.00119
3104.81	7.49716
3106.08	8.45932
3107.36	9.00826
3108.63	9.81052
3109.91	11.1366
3111.18	12.3852
3112.46	12.8573
3113.73	13.9645
3115	15.1353
3116.28	16.1829
3117.55	17.5314
3118.83	18.6967
3120.1	19.8838
3121.37	20.9605
3122.64	21.8205
3123.92	22.3846
3125.19	23.2823
3126.46	24.3302
3127.73	24.8947
3129	25.7339
3130.27	26.6935
3131.55	27.2385
3132.82	27.6071
3134.09	27.7266
3135.36	28.2129
3136.63	28.6554
3137.9	29.0361
3139.17	29.1988
3140.44	29.9559
3141.71	30.3231
3142.98	30.9532
3144.24	31.3433
3145.51	31.7938
3146.78	32.5393
3148.05	33.0423
3149.32	33.3921
