#Acq. time (s)=	45
#Accumulations=	2
#Range (cm-¹)=	200...3150
#Windows=	2
#Auto scanning=	Off
#Autofocus=	Off
#Macrospot=	Off
#AutoExposure=	Off
#Spike filter=	Multiple accum.
#Delay time (s)=	0
#Binning=	1
#Readout mode=	Signal
#DeNoise=	Off
#ICS correction=	On
#Dark correction=	Off
#Inst. Process=	Off
#Detector Gain=	Best Dynamic Range
#Detector ADC=	20 kHz       
#Detector temperature (°C)=	-69.85
#Instrument=	LabRAM HR Evol
#Detector=	Synapse
#Objective=	x100
#Grating=	600 gr/mm
#ND Filter=	100%
#Laser (nm)=	532 
#Hole=	100.021
#Range=	Auto
#Laser Pol.=	No
#Raman. Pol.=	No
#Laser Pol. (°)=	-0.0007625
#Raman Pol. (°)=	89.9995
#Collection=	Microscope
#StageXY=	Marzhauser
#StageZ=	Marzhauser
#X (µm)=	-5891.3
#Y (µm)=	2845.8
#Z (µm)=	-223.25
#Full time(mm:ss)=	3:18
#Project=	
#Sample=	
#Site=	
#Title=	Thy_20_09_10_2x_45s_532 nm_x100_100%_600 gr_mm
#Remark=	
#Date=	29.06.2022 11:25
#Acquired=	29.06.2022 11:25:52
#Base:Fit=	10.08.2022 09:52:02
#Base:Fit=	10.08.2022 09:52:12
#Base:Sub=	10.08.2022 09:54:21
#Filter:Polynom=	16.08.2022 10:24:04
#AxisType[0]=Intens
#AxisUnit[0]=Cnt
#AxisType[1]=Spectr
#AxisUnit[1]=1/cm
200.523	19.3613
202.339	16.7401
204.154	14.2905
205.967	13.7459
207.781	12.7397
209.596	11.9709
211.409	11.3705
213.222	11.1061
215.034	10.8192
216.848	11.6382
218.659	12.1028
220.47	12.5832
222.281	12.2687
224.091	13.9943
225.903	15.5607
227.713	14.7187
229.522	15.0977
231.331	14.3926
233.14	13.9186
234.948	13.6753
236.756	12.6818
238.566	12.2141
240.373	11.0026
242.18	11.7379
243.986	11.9314
245.792	11.7926
247.598	11.9374
249.403	12.0819
251.208	12.3605
253.013	12.8304
254.818	12.7026
256.624	13.0118
258.427	12.8929
260.231	11.9514
262.034	11.9303
263.836	12.5444
265.638	12.615
267.44	13.4538
269.242	13.7338
271.043	13.1806
272.844	12.598
274.645	12.4498
276.445	11.7595
278.245	11.3631
280.044	10.4611
281.843	10.0201
283.642	10.1683
285.44	9.31541
287.238	9.09095
289.036	7.74133
290.833	7.39729
292.63	8.28346
294.425	8.5824
296.221	8.1201
298.017	9.27277
299.813	9.90902
301.608	11.4872
303.403	13.4018
305.198	14.4897
306.992	15.9873
308.786	16.2428
310.579	16.3364
312.371	16.1943
314.163	16.573
315.956	15.5209
317.748	14.4982
319.54	14.8922
321.331	14.1294
323.122	13.9889
324.911	14.3839
326.701	13.8804
328.491	14.4236
330.281	14.681
332.071	15.6343
333.857	15.0473
335.646	14.3632
337.434	14.8818
339.222	14.3185
341.008	13.3864
342.795	13.3623
344.582	13.3332
346.369	13.2815
348.153	12.8285
349.939	11.9096
351.724	11.6942
353.51	11.9801
355.292	10.3331
357.077	10.4493
358.861	11.0694
360.643	10.1785
362.426	10.3406
364.21	10.2085
365.99	9.38137
367.773	9.27092
369.555	8.74921
371.335	8.9142
373.116	8.10799
374.897	7.08993
376.676	7.27735
378.456	7.30895
380.236	8.68386
382.014	9.07527
383.793	9.8978
385.57	10.3424
387.349	11.13
389.127	11.2458
390.903	12.7845
392.681	12.5551
394.456	11.7129
396.233	11.425
398.007	10.1853
399.784	8.98025
401.56	8.31778
403.333	7.87482
405.108	7.9616
406.881	8.38881
408.656	8.47934
410.428	8.11282
412.202	8.67253
413.973	9.2522
415.746	8.50036
417.517	8.49524
419.29	7.8124
421.06	6.9382
422.831	6.73615
424.601	6.11811
426.37	6.18804
428.141	5.5119
429.909	5.34596
431.679	5.90897
433.447	5.90099
435.216	5.94215
436.983	5.43478
438.75	5.78121
440.519	6.79063
442.285	7.32414
444.052	6.99535
445.818	8.39515
447.583	8.55634
449.349	8.95375
451.114	9.36847
452.878	10.6135
454.643	10.7886
456.407	12.1237
458.169	13.0278
459.934	13.412
461.696	14.0614
463.458	14.5593
465.222	16.1271
466.983	16.9565
468.744	17.727
470.507	18.3041
472.267	18.5502
474.027	18.5705
475.787	18.6643
477.548	18.7336
479.307	19.8381
481.065	19.6462
482.823	19.2782
484.583	18.6872
486.341	18.412
488.098	18.887
489.855	19.6888
491.612	19.7415
493.37	20.3174
495.126	20.5879
496.881	20.7127
498.636	20.0759
500.391	20.3791
502.148	19.6384
503.902	18.0338
505.656	18.0575
507.409	18.0753
509.162	17.9403
510.915	17.6584
512.668	16.9122
514.42	16.6983
516.174	16.4908
517.925	16.6028
519.676	16.4361
521.427	16.2097
523.178	15.6611
524.928	16.0599
526.678	15.9038
528.427	16.3529
530.176	16.2973
531.925	16.6091
533.673	16.7454
535.422	16.8451
537.169	17.7963
538.917	17.1313
540.664	17.3293
542.411	17.1824
544.157	16.9628
545.903	16.5413
547.649	15.6433
549.395	16.3921
551.14	15.9621
552.884	15.5303
554.629	15.2918
556.373	14.8797
558.117	14.2879
559.86	13.5521
561.603	12.7638
563.346	12.6862
565.089	12.4537
566.831	12.2798
568.573	10.9384
570.314	9.5471
572.053	8.30832
573.794	8.22092
575.534	7.32351
577.274	6.69525
579.014	5.35107
580.754	5.44842
582.493	5.15075
584.23	4.89803
585.968	4.22035
587.706	4.57799
589.444	3.8269
591.181	3.42845
592.919	4.02886
594.653	3.33856
596.39	2.58339
598.126	1.91685
599.862	2.47691
601.595	2.6808
603.33	2.61704
605.065	3.30227
606.8	3.87768
608.532	5.33872
610.266	6.12913
611.999	6.67783
613.732	6.63418
615.463	7.5911
617.196	7.37973
618.928	8.02652
620.66	7.08301
622.389	8.00394
624.12	8.91382
625.851	8.90519
627.58	9.73902
629.31	10.5827
631.04	10.886
632.767	11.7662
634.497	12.8698
636.223	14.1057
637.952	13.7816
639.68	13.718
641.406	14.8718
643.134	15.5772
644.861	15.4119
646.586	16.299
648.312	15.9641
650.037	16.7962
651.762	16.4227
653.486	16.7063
655.211	15.9799
656.936	15.5929
658.659	15.8648
660.383	16.7719
662.105	16.5806
663.829	16.9763
665.55	17.0296
667.273	17.0509
668.994	15.8484
670.716	15.4772
672.436	15.3046
674.158	14.8027
675.877	14.3193
677.598	14.4203
679.317	14.1976
681.035	14.0323
682.755	14.954
684.473	15.262
686.192	16.0057
687.909	15.952
689.628	16.738
691.344	17.6985
693.06	19.1058
694.778	18.818
696.493	17.9916
698.211	18.4106
699.925	18.48
701.64	18.2593
703.356	17.856
705.07	18.9563
706.783	18.6414
708.498	20.8986
710.211	22.2846
711.924	22.304
713.638	22.2043
715.35	23.0713
717.061	24.034
718.774	25.0303
720.485	26.1728
722.196	26.4185
723.906	27.8416
725.618	28.6159
727.328	30.9008
729.037	31.2547
730.746	32.023
732.456	32.8989
734.165	33.4959
735.873	33.8949
737.58	35.0341
739.289	35.9061
740.997	36.9029
742.703	38.1712
744.41	39.514
746.116	40.7578
747.823	41.7716
749.529	42.6828
751.234	43.076
752.938	43.9974
754.643	45.0063
756.347	47.3516
758.051	48.9539
759.756	50.8915
761.459	52.7985
763.162	54.1845
764.865	55.4237
766.567	57.6024
768.269	59.5932
769.97	60.3386
771.671	60.8814
773.372	61.8478
775.073	62.6689
776.773	63.3695
778.473	63.123
780.174	62.1953
781.874	62.963
783.573	63.5488
785.271	63.8686
786.97	64.03
788.668	65.3337
790.365	66.6685
792.063	66.2187
793.76	67.0726
795.456	66.957
797.153	66.4992
798.847	67.1317
800.543	68.0328
802.238	68.6421
803.933	68.5536
805.628	68.5288
807.322	68.5581
809.017	68.8885
810.71	68.4664
812.404	68.2223
814.097	67.1635
815.79	67.8816
817.483	67.4064
819.173	68.6564
820.865	68.7203
822.556	69.0403
824.248	68.9792
825.939	68.8599
827.629	67.854
829.318	67.8148
831.008	67.4813
832.697	66.6638
834.387	65.5636
836.076	65.3826
837.765	65.2269
839.451	64.9985
841.139	65.2281
842.827	64.9515
844.514	64.3107
846.2	63.4365
847.886	61.8273
849.573	60.8645
851.259	59.4906
852.943	57.0272
854.629	54.9688
856.314	53.741
857.997	52.7231
859.682	51.333
861.366	49.9692
863.05	48.1118
864.732	47.5969
866.415	46.9858
868.098	45.4537
869.779	44.4286
871.461	43.4371
873.141	41.7599
874.823	40.5825
876.505	39.612
878.184	40.38
879.865	40.1765
881.545	40.2674
883.223	40.3454
884.903	40.1969
886.581	40.2151
888.26	40.0504
889.937	39.4199
891.616	39.3414
893.294	38.8929
894.97	38.9335
896.648	38.7349
898.323	39.6263
900	39.8515
901.675	39.7469
903.351	40.4711
905.026	40.4587
906.701	40.4951
908.375	40.5419
910.05	40.0212
911.723	40.7696
913.398	41.7594
915.07	42.0403
916.742	42.2042
918.415	42.5076
920.087	42.8309
921.76	43.4734
923.43	44.1816
925.103	44.6915
926.773	44.6969
928.443	44.3817
930.114	43.7173
931.783	42.6105
933.454	41.8201
935.123	41.7854
936.791	42.1586
938.461	42.4124
940.128	41.8005
941.796	40.2114
943.464	39.0475
945.131	37.2874
946.797	35.848
948.465	35.0738
950.131	35.0035
951.797	33.6454
953.462	33.1218
955.128	32.2047
956.793	30.4487
958.457	30.835
960.121	29.9721
961.786	29.4131
963.45	27.7925
965.113	27.6833
966.775	26.864
968.44	25.9304
970.102	24.9802
971.763	24.2203
973.425	22.8312
975.086	22.2449
976.748	21.0075
978.409	21.3899
980.069	21.2368
981.729	21.4776
983.388	20.8501
985.048	20.8637
986.708	21.0533
988.367	20.8534
990.025	20.7482
991.683	19.746
993.341	20.1227
994.998	20.8067
996.655	20.1969
998.312	19.9561
999.969	18.8298
1001.62	18.9023
1003.28	19.5575
1004.94	19.6661
1006.59	18.9771
1008.25	18.942
1009.9	17.824
1011.56	17.3739
1013.21	17.4012
1014.86	17.7227
1016.52	18.4939
1018.17	19.6461
1019.82	18.8274
1021.48	16.9452
1023.13	16.2856
1024.78	15.5358
1026.43	15.6732
1028.08	15.8136
1029.73	16.3079
1031.38	16.9139
1033.03	17.0478
1034.68	15.9914
1036.33	15.2576
1037.98	14.1922
1039.63	13.6845
1041.28	14.0917
1042.93	14.1174
1044.57	14.2204
1046.22	15.0298
1047.87	15.7917
1049.52	15.7102
1051.16	15.2567
1052.81	15.0825
1054.45	14.6643
1056.1	14.9406
1057.75	14.7321
1059.39	15.0323
1061.04	15.6516
1062.68	15.1248
1064.32	14.9086
1065.97	14.6688
1067.61	15.3131
1069.25	15.6776
1070.9	15.8419
1072.54	15.4506
1074.18	14.6134
1075.82	14.8927
1077.47	15.2513
1079.11	13.9992
1080.75	13.7509
1082.39	13.1616
1084.03	14.08
1085.67	13.8351
1087.31	12.9299
1088.95	12.8737
1090.59	13.685
1092.22	14.1845
1093.86	15.9299
1095.5	16.0504
1097.14	16.4064
1098.78	17.0073
1100.41	16.7771
1102.05	16.7144
1103.69	16.7175
1105.32	17.7692
1106.96	17.7277
1108.59	18.6662
1110.23	18.4378
1111.86	18.4333
1113.5	18.3256
1115.13	17.6612
1116.77	16.7321
1118.4	15.9456
1120.03	15.7354
1121.67	16.1193
1123.3	16.8273
1124.93	17.5445
1126.56	16.9165
1128.19	16.4067
1129.83	15.2742
1131.46	15.0678
1133.09	14.3499
1134.72	13.5259
1136.35	12.6626
1137.98	12.9182
1139.61	12.3615
1141.24	12.2515
1142.86	11.4912
1144.49	11.2474
1146.12	11.1114
1147.75	10.2176
1149.38	8.85657
1151	7.76145
1152.63	6.69077
1154.26	5.54314
1155.88	5.35797
1157.51	4.70495
1159.14	4.16032
1160.76	3.3199
1162.39	3.67831
1164.01	3.63554
1165.63	3.95644
1167.26	2.25089
1168.88	2.14732
1170.51	2.39252
1172.13	3.45973
1173.75	3.3243
1175.38	3.29083
1177	3.04483
1178.62	3.90339
1180.24	3.67529
1181.86	4.20761
1183.48	3.70588
1185.1	4.21914
1186.72	3.75933
1188.34	3.87928
1189.96	3.76566
1191.58	4.20323
1193.2	3.97259
1194.82	3.34357
1196.44	3.68884
1198.06	3.80649
1199.68	4.44409
1201.29	6.03488
1202.91	7.94273
1204.53	8.86564
1206.14	9.16183
1207.76	8.98987
1209.38	10.0288
1210.99	11.3441
1212.61	12.5402
1214.22	12.9123
1215.84	14.3508
1217.45	15.5008
1219.07	17.4397
1220.68	18.7496
1222.29	18.6258
1223.91	19.2684
1225.52	20.6119
1227.13	22.356
1228.74	22.9805
1230.36	24.7855
1231.97	26.4384
1233.58	27.6824
1235.19	28.9371
1236.8	29.9311
1238.41	31.6237
1240.02	33.0756
1241.63	33.4648
1243.24	33.6406
1244.85	34.734
1246.46	35.3661
1248.07	35.1833
1249.67	36.3917
1251.28	36.972
1252.89	37.6356
1254.5	37.3815
1256.1	38.6342
1257.71	39.4547
1259.32	39.8879
1260.92	40.3239
1262.53	40.181
1264.13	39.9831
1265.74	41.2586
1267.34	40.3142
1268.95	41.3719
1270.55	41.0544
1272.15	42.0312
1273.76	41.1482
1275.36	42.0624
1276.97	43.1112
1278.57	43.4144
1280.17	44.535
1281.77	45.6734
1283.37	46.0422
1284.97	46.2364
1286.58	46.8159
1288.18	47.6817
1289.78	49.006
1291.38	50.49
1292.98	51.837
1294.58	52.2924
1296.18	52.9503
1297.78	53.2508
1299.37	55.2087
1300.97	56.7063
1302.57	57.0881
1304.17	59.69
1305.77	61.0736
1307.36	62.0112
1308.96	61.9027
1310.55	62.9014
1312.15	63.4979
1313.75	64.6929
1315.34	66.1161
1316.94	66.7547
1318.53	68.0477
1320.13	67.56
1321.72	67.9055
1323.32	68.6578
1324.91	69.3391
1326.5	69.0793
1328.1	68.9861
1329.69	68.7905
1331.28	69.5201
1332.87	69.763
1334.47	70.323
1336.06	71.3129
1337.65	70.4747
1339.24	70.3321
1340.83	69.2971
1342.42	68.2314
1344.01	68.0966
1345.6	66.3048
1347.19	64.1449
1348.78	63.4444
1350.37	61.8361
1351.96	61.9012
1353.54	60.2147
1355.13	59.991
1356.72	58.9783
1358.31	58.9307
1359.89	57.3948
1361.48	56.4663
1363.07	55.2466
1364.65	54.5117
1366.24	53.703
1367.82	52.9013
1369.41	52.4072
1370.99	51.8462
1372.58	49.713
1374.16	48.8307
1375.75	49.8881
1377.33	49.3852
1378.91	49.4048
1380.5	48.4947
1382.08	46.9668
1383.66	47.542
1385.25	46.4878
1386.83	46.2929
1388.41	46.458
1389.99	46.7287
1391.57	46.4085
1393.15	46.4328
1394.73	45.2397
1396.31	44.4938
1397.89	43.1764
1399.47	42.9802
1401.05	43.6092
1402.63	42.7217
1404.21	42.7081
1405.78	42.5345
1407.36	42.5303
1408.94	43.054
1410.52	43.4125
1412.1	43.5598
1413.67	44.6497
1415.25	45.1922
1416.82	45.7716
1418.4	46.1737
1419.98	46.5151
1421.55	47.3621
1423.13	47.2674
1424.7	47.7668
1426.28	49.6558
1427.85	52.438
1429.42	54.5316
1431	56.7497
1432.57	57.865
1434.14	59.5648
1435.71	60.2747
1437.29	61.4094
1438.86	61.2365
1440.43	62.8125
1442	63.5492
1443.57	64.4909
1445.14	65.8326
1446.71	66.4933
1448.28	67.0725
1449.85	67.4842
1451.42	66.657
1452.99	66.7503
1454.56	65.9129
1456.13	64.1747
1457.7	63.3077
1459.26	61.8276
1460.83	60.7523
1462.4	60.2394
1463.97	57.8596
1465.54	56.9925
1467.1	54.8168
1468.67	53.0333
1470.23	50.0868
1471.8	47.2162
1473.36	44.441
1474.93	43.3132
1476.49	40.6981
1478.06	39.223
1479.62	36.9685
1481.19	33.9672
1482.75	31.504
1484.31	29.5519
1485.88	28.9145
1487.44	27.7054
1489	26.9258
1490.56	26.2893
1492.13	25.7609
1493.69	24.3905
1495.25	23.259
1496.81	21.8804
1498.37	21.0862
1499.93	21.0777
1501.49	21.0503
1503.05	21.1452
1504.61	21.7634
1506.17	22.3487
1507.73	22.444
1509.28	21.713
1510.84	20.8688
1512.4	20.1256
1513.96	20.6481
1515.52	21.7205
1517.07	22.3665
1518.63	23.3541
1520.19	23.6105
1521.74	24.5289
1523.3	25.5685
1524.85	25.5534
1526.41	25.6054
1527.96	25.9384
1529.52	25.3514
1531.07	26.42
1532.63	27.0233
1534.18	28.0138
1535.73	28.8715
1537.29	30.0933
1538.84	31.4813
1540.39	32.27
1541.94	33.0055
1543.5	35.0852
1545.05	35.7324
1546.6	37.0425
1548.15	37.438
1549.7	38.6034
1551.25	40.2743
1552.8	41.4391
1554.35	42.8746
1555.9	43.7571
1557.45	44.8259
1559	46.1271
1560.55	47.5353
1562.1	49.4339
1563.65	51.788
1565.19	52.8481
1566.74	54.3401
1568.29	55.3837
1569.83	56.2937
1571.38	57.3275
1572.93	58.2392
1574.47	58.562
1576.02	59.4443
1577.56	60.5331
1579.11	61.2571
1580.66	61.8603
1582.2	62.5525
1583.74	63.316
1585.29	64.5565
1586.83	63.9429
1588.38	64.9268
1589.92	66.6111
1591.46	67.6226
1593.01	68.4584
1594.55	68.0258
1596.09	67.4081
1597.63	66.7457
1599.17	66.5226
1600.71	66.0983
1602.25	65.7044
1603.79	65.0233
1605.34	64.1643
1606.88	62.7653
1608.41	62.8753
1609.95	62.0857
1611.49	61.5154
1613.03	61.1777
1614.57	61.0512
1616.11	60.6454
1617.65	60.3
1619.18	60.1736
1620.72	60.3926
1622.26	59.8801
1623.79	59.0291
1625.33	58.6578
1626.87	57.8532
1628.4	57.5861
1629.94	57.2986
1631.48	57.4238
1633.01	56.888
1634.55	56.3132
1636.08	56.4707
1637.61	55.566
1639.15	55.4287
1640.68	55.8126
1642.21	55.8167
1643.75	54.7111
1645.28	54.1503
1646.81	53.2076
1648.34	52.6793
1649.88	52.9386
1651.41	53.0313
1652.94	53.8462
1654.47	53.8099
1656	54.771
1657.53	54.2629
1659.06	53.5227
1660.59	53.8741
1662.12	53.3992
1663.65	51.8812
1665.18	51.5227
1666.71	51.2156
1668.24	49.3311
1669.76	48.2579
1671.29	46.5998
1672.82	45.9098
1674.35	44.8676
1675.87	42.9908
1677.4	41.2488
1678.93	39.3707
1680.45	38.1794
1681.98	37.0422
1683.5	36.4747
1685.03	35.6069
1686.55	33.6553
1688.08	31.5788
1689.6	30.8786
1691.13	29.4565
1692.65	27.8356
1694.17	26.3061
1695.7	24.9057
1697.22	23.6262
1698.74	21.8302
1700.27	19.7885
1701.79	18.1668
1703.31	16.3115
1704.83	15.1407
1706.35	13.3195
1707.87	11.9296
1709.39	10.3106
1710.91	8.21677
1712.43	7.30562
1713.95	6.18001
1715.47	5.86928
1716.99	5.65096
1718.51	5.28257
1720.03	4.28681
1721.55	4.26546
1723.07	4.33903
1724.58	4.99561
1726.1	5.56992
1727.62	4.99281
1729.13	4.25996
1730.65	3.95464
1732.17	3.76143
1733.68	3.43491
1735.2	3.34586
1736.72	3.35264
1738.23	3.67955
1739.74	4.04541
1741.26	4.78938
1742.77	5.27705
1744.29	4.86101
1745.8	5.44073
1747.32	5.96979
1748.83	5.97379
1750.34	5.20276
1751.85	4.94778
1753.37	5.47182
1754.88	5.97091
1756.39	6.64003
1757.9	6.22229
1759.41	5.84988
1760.92	4.89444
1762.44	4.46241
1763.95	4.71307
1765.46	4.80059
1766.96	4.10381
1768.47	4.14863
1769.98	3.60442
1771.49	3.37628
1773	3.21777
1774.51	2.8864
1776.02	2.72349
1777.53	2.5366
1779.03	2.73085
1780.54	2.57736
1782.05	2.31853
1783.55	2.70914
1785.06	3.07099
1786.57	3.51304
1788.07	4.39
1789.58	4.76489
1791.08	5.14236
1792.59	5.84124
1794.09	5.63745
1795.6	5.69899
1797.1	5.42848
1798.61	5.82246
1800.11	6.12918
1801.61	6.08648
1803.12	6.18301
1804.62	6.35025
1806.12	6.2041
1807.62	5.82697
1809.12	6.13126
1810.63	5.84442
1812.13	6.03342
1813.63	6.23388
1815.13	5.62719
1816.63	5.40587
1818.13	5.41248
1819.63	4.86863
1821.13	4.35152
1822.63	4.39989
1824.13	4.25546
1825.63	3.89454
1827.13	3.60379
1828.62	3.6115
1830.12	3.61554
1831.62	4.23037
1833.12	4.50385
1834.61	4.05736
1836.11	3.62156
1837.61	3.35864
1839.1	3.2305
1840.6	3.4523
1842.09	4.00482
1843.59	4.29227
1845.09	3.78338
1846.58	3.75415
1848.08	3.7392
1849.57	4.10161
1851.06	4.46568
1852.56	4.99805
1854.05	5.53065
1855.54	5.43324
1857.04	5.18396
1858.53	5.27513
1860.02	5.23526
1861.51	4.83295
1863.01	5.23906
1864.5	5.01803
1865.99	4.96295
1867.48	4.52401
1868.97	4.25468
1870.46	5.17935
1871.95	5.0431
1873.44	5.10928
1874.93	5.56257
1876.42	5.23092
1877.91	5.02227
1879.4	4.68908
1880.89	4.34475
1882.37	4.44536
1882.46	4.75038
1883.95	5.07548
1885.45	4.85048
1886.94	5.61879
1888.43	5.94801
1889.93	6.44612
1891.42	6.47812
1892.91	6.10577
1894.41	6.27884
1895.9	6.91439
1897.39	6.93067
1898.88	7.47404
1900.37	7.85091
1901.86	8.05575
1903.36	8.4131
1904.85	8.99455
1906.34	9.04637
1907.83	8.87941
1909.32	9.65438
1910.81	9.99088
1912.29	10.6548
1913.78	11.0354
1915.27	10.0916
1916.76	9.67791
1918.25	9.28118
1919.74	9.35102
1921.23	10.0291
1922.71	10.0407
1924.2	9.74668
1925.69	9.50304
1927.17	9.33807
1928.66	8.7881
1930.15	8.65275
1931.63	7.92638
1933.12	7.28205
1934.6	6.75251
1936.09	6.81468
1937.57	6.64735
1939.06	6.51988
1940.54	5.65481
1942.02	6.29744
1943.51	6.78758
1944.99	6.38174
1946.47	6.82442
1947.96	6.48129
1949.44	5.85444
1950.92	6.1938
1952.4	6.32796
1953.88	6.76184
1955.37	6.25699
1956.85	6.13539
1958.33	6.60841
1959.81	5.96961
1961.29	6.52494
1962.77	5.69096
1964.25	5.42905
1965.73	5.86717
1967.21	5.94694
1968.69	5.79587
1970.16	6.03698
1971.64	5.61312
1973.12	5.61853
1974.6	5.08813
1976.08	5.42295
1977.55	6.01357
1979.03	6.74399
1980.51	6.93693
1981.98	6.7884
1983.46	6.85861
1984.94	6.48116
1986.41	6.89611
1987.89	6.84022
1989.36	6.9374
1990.84	7.58869
1992.31	7.61326
1993.79	7.53147
1995.26	7.24296
1996.73	6.75515
1998.21	7.18803
1999.68	7.33009
2001.15	7.64281
2002.63	7.62982
2004.1	7.27723
2005.57	6.90829
2007.04	7.69238
2008.51	7.73561
2009.99	7.52555
2011.46	8.02754
2012.93	7.59303
2014.4	7.41732
2015.87	7.49669
2017.34	7.14507
2018.81	6.74168
2020.28	6.6187
2021.75	6.13811
2023.21	6.66371
2024.68	7.19861
2026.15	6.83336
2027.62	6.10707
2029.09	5.56585
2030.56	5.32424
2032.02	5.50168
2033.49	4.98472
2034.96	5.11763
2036.42	5.0224
2037.89	5.22767
2039.36	5.13284
2040.82	4.51377
2042.29	4.15314
2043.75	4.06754
2045.22	4.0144
2046.68	4.49755
2048.14	4.9525
2049.61	5.49484
2051.07	6.0255
2052.54	7.05946
2054	6.88143
2055.46	7.25803
2056.93	7.86291
2058.39	8.1041
2059.85	8.7002
2061.31	9.29434
2062.77	9.47747
2064.23	9.34156
2065.7	9.24793
2067.16	9.5067
2068.62	9.95885
2070.08	11.0398
2071.54	12.0172
2073	12.7811
2074.46	13.6862
2075.92	14.0567
2077.38	14.4265
2078.83	14.2658
2080.29	14.2766
2081.75	13.8598
2083.21	14.2435
2084.67	15.2784
2086.12	14.8844
2087.58	14.6477
2089.04	14.8438
2090.49	15.3837
2091.95	16.2313
2093.41	16.3191
2094.86	16.4168
2096.32	16.1941
2097.77	15.7953
2099.23	15.6665
2100.68	15.6524
2102.14	16.2446
2103.59	16.6803
2105.05	17.1905
2106.5	17.7285
2107.95	17.52
2109.41	17.7309
2110.86	18.1424
2112.31	17.8992
2113.76	18.2529
2115.21	18.3017
2116.67	18.8044
2118.12	19.813
2119.57	20.6392
2121.02	21.5212
2122.47	22.0947
2123.92	22.8896
2125.37	23.3712
2126.82	23.4899
2128.27	24.0336
2129.72	24.4571
2131.17	24.2013
2132.62	25.413
2134.07	26.4355
2135.51	26.6929
2136.96	26.9977
2138.41	27.9137
2139.86	28.2561
2141.31	29.0865
2142.75	29.3941
2144.2	30.0357
2145.65	30.4663
2147.09	31.4093
2148.54	32.2022
2149.98	32.8916
2151.43	32.7626
2152.87	33.7554
2154.32	34.0446
2155.76	35.0186
2157.21	35.2962
2158.65	35.4381
2160.1	35.1385
2161.54	35.6675
2162.98	35.7886
2164.43	36.0243
2165.87	36.0302
2167.31	36.6839
2168.75	36.9488
2170.2	37.6991
2171.64	37.7942
2173.08	37.8965
2174.52	37.8937
2175.96	37.868
2177.4	37.3112
2178.84	36.9211
2180.28	36.7077
2181.72	36.7574
2183.16	36.2389
2184.6	35.1582
2186.04	35.0555
2187.48	34.4269
2188.92	33.7548
2190.36	33.0112
2191.79	32.5838
2193.23	31.8201
2194.67	30.2975
2196.11	29.2434
2197.54	28.4561
2198.98	27.9766
2200.42	27.1935
2201.85	26.8135
2203.29	26.0518
2204.72	25.8843
2206.16	24.7262
2207.59	24.2816
2209.03	22.8737
2210.46	22.578
2211.9	22.1428
2213.33	22.3685
2214.77	21.2276
2216.2	21.2385
2217.63	21.1417
2219.07	20.8109
2220.5	19.9183
2221.93	18.6767
2223.36	18.4319
2224.8	17.9096
2226.23	17.0516
2227.66	17.2281
2229.09	16.9814
2230.52	16.9675
2231.95	16.4382
2233.39	17.0698
2234.81	16.852
2236.25	17.1313
2237.67	17.7207
2239.1	17.1601
2240.53	17.0397
2241.96	16.7407
2243.39	15.9152
2244.82	16.5523
2246.25	16.1367
2247.68	16.3235
2249.1	15.4133
2250.53	15.3044
2251.96	14.8474
2253.38	13.8014
2254.81	12.8126
2256.24	12.8208
2257.66	12.1532
2259.09	11.7165
2260.51	10.804
2261.94	11.1431
2263.36	11.5021
2264.79	10.8711
2266.21	10.5684
2267.64	11.2201
2269.06	11.3834
2270.49	11.7823
2271.91	11.3124
2273.33	10.8472
2274.76	10.737
2276.18	10.9591
2277.6	11.0669
2279.02	10.9966
2280.44	10.317
2281.87	10.81
2283.29	10.7368
2284.71	10.6845
2286.13	10.4087
2287.55	10.8713
2288.97	10.6042
2290.39	9.35709
2291.81	9.23096
2293.23	9.18284
2294.65	9.85103
2296.07	9.81514
2297.49	10.1227
2298.91	11.1398
2300.33	11.1673
2301.74	11.0902
2303.16	11.3781
2304.58	11.5939
2306	11.5633
2307.41	11.6915
2308.83	11.3524
2310.25	11.0153
2311.66	11.8973
2313.08	11.5071
2314.5	11.2929
2315.91	11.1968
2317.33	10.548
2318.74	9.91024
2320.16	8.7309
2321.57	8.76649
2322.98	8.65586
2324.4	7.92432
2325.81	7.44189
2327.23	7.21368
2328.64	6.30842
2330.05	6.15725
2331.46	5.51271
2332.88	5.73588
2334.29	5.01297
2335.7	4.99393
2337.11	4.86393
2338.52	4.34721
2339.94	3.6073
2341.35	3.43134
2342.76	3.39572
2344.17	3.1301
2345.58	3.21695
2346.99	2.62439
2348.4	1.7209
2349.81	1.23489
2351.22	1.26001
2352.62	1.52681
2354.03	2.04022
2355.44	1.98247
2356.85	2.54023
2358.26	2.94695
2359.67	2.38207
2361.07	2.88081
2362.48	3.71042
2363.89	3.95731
2365.29	4.66951
2366.7	4.63263
2368.11	4.79031
2369.51	4.85333
2370.92	4.90197
2372.32	5.37447
2373.73	5.86809
2375.13	5.60475
2376.54	5.9983
2377.94	5.92593
2379.35	6.97873
2380.75	7.49684
2382.15	7.84121
2383.56	7.44677
2384.96	7.44442
2386.36	7.56727
2387.76	7.42711
2389.17	7.08388
2390.57	7.47427
2391.97	7.84244
2393.37	7.60482
2394.77	6.92816
2396.17	7.18612
2397.58	6.90948
2398.98	6.75147
2400.38	7.08997
2401.78	6.97338
2403.18	7.46573
2404.58	7.2383
2405.97	7.43678
2407.37	6.42538
2408.77	6.2805
2410.17	6.90416
2411.57	7.03272
2412.97	6.77383
2414.37	6.12991
2415.76	5.91431
2417.16	5.51294
2418.56	5.15786
2419.95	5.12676
2421.35	5.30579
2422.75	5.21071
2424.14	5.03315
2425.54	4.9514
2426.93	4.65274
2428.33	4.05127
2429.72	3.03797
2431.12	2.50871
2432.51	1.74639
2433.91	1.55692
2435.3	1.08266
2436.7	1.00491
2438.09	0.512507
2439.48	0.321601
2440.88	0.863108
2442.27	0.547139
2443.66	0.650165
2445.05	1.13264
2446.44	1.96398
2447.84	2.62779
2449.23	3.7507
2450.62	3.74484
2452.01	3.72927
2453.4	3.45284
2454.79	3.55976
2456.18	3.48679
2457.57	3.6713
2458.96	4.4349
2460.35	5.31352
2461.74	4.74886
2463.13	5.31145
2464.52	5.99974
2465.91	6.16952
2467.29	6.04624
2468.68	6.14443
2470.07	6.66015
2471.46	6.34649
2472.85	6.51717
2474.23	5.91241
2475.62	6.04645
2477.01	5.85872
2478.39	6.12352
2479.78	5.86771
2481.16	5.16942
2482.55	5.0548
2483.93	5.19962
2485.32	4.72163
2486.7	4.10539
2488.09	3.46368
2489.47	3.60306
2490.86	3.32643
2492.24	2.38495
2493.62	2.61218
2495.01	1.89954
2496.39	1.55486
2497.77	1.95198
2499.15	1.04186
2500.54	0.97108
2501.92	1.12581
2503.3	0.859565
2504.68	0.611814
2506.06	0.525657
2507.45	-0.399175
2508.83	-0.110635
2510.21	-0.249829
2511.59	-0.314317
2512.97	0.322941
2514.35	0.685912
2515.73	0.753985
2517.11	0.669155
2518.48	0.847394
2519.86	0.289468
2521.24	0.130928
2522.62	0.352204
2524	0.524691
2525.38	0.131773
2526.75	0.765125
2528.13	0.68171
2529.51	0.609248
2530.89	0.321133
2532.26	0.963364
2533.64	0.781175
2535.02	0.254215
2536.39	0.128487
2537.77	0.679235
2539.14	1.42594
2540.52	1.25451
2541.89	1.42948
2543.27	1.33521
2544.64	1.82833
2546.01	2.07061
2547.39	2.47887
2548.76	3.21961
2550.14	3.66444
2551.51	3.91144
2552.88	4.02174
2554.25	4.07077
2555.63	4.30719
2557	4.76386
2558.37	5.37661
2559.74	5.25366
2561.11	5.08351
2562.49	5.9056
2563.86	5.59993
2565.23	6.32217
2566.6	6.44628
2567.97	6.79236
2569.34	6.86973
2570.71	6.72206
2572.08	6.57266
2573.45	6.38914
2574.82	5.48513
2576.18	5.12239
2577.55	5.5255
2578.92	5.77726
2580.29	6.002
2581.66	6.0546
2583.02	6.06752
2584.39	5.46549
2585.76	5.05788
2587.13	4.82217
2588.49	4.14814
2589.86	4.24504
2591.22	3.88925
2592.59	3.2859
2593.96	3.12663
2595.32	3.39394
2596.69	3.16078
2598.05	3.42494
2599.42	3.4073
2600.78	3.44758
2602.14	3.47531
2603.51	3.25468
2604.87	3.56447
2606.23	4.62715
2607.6	4.9278
2608.96	4.56888
2610.32	5.13261
2611.69	5.5732
2613.05	6.41152
2614.41	6.30063
2615.77	6.16535
2617.13	6.14757
2618.49	6.12893
2619.86	6.45071
2621.22	6.50265
2622.58	6.37203
2623.94	6.25831
2625.3	6.41243
2626.66	6.53454
2628.02	6.52944
2629.37	6.72524
2630.73	7.41609
2632.09	7.45514
2633.45	8.16281
2634.81	8.56391
2636.17	8.20287
2637.53	8.34704
2638.88	8.83456
2640.24	8.68687
2641.6	8.38423
2642.96	8.8616
2644.31	8.96057
2645.67	8.90259
2647.02	8.79578
2648.38	8.63528
2649.74	8.52112
2651.09	8.4998
2652.45	7.64746
2653.8	7.33789
2655.16	7.33607
2656.51	7.361
2657.86	7.63985
2659.22	7.32285
2660.57	6.57073
2661.93	6.67232
2663.28	6.40857
2664.63	6.61915
2665.98	6.34913
2667.34	6.50749
2668.69	6.33392
2670.04	6.18201
2671.39	6.51478
2672.75	6.93766
2674.09	7.54416
2675.45	7.39115
2676.8	7.42673
2678.15	7.61896
2679.5	7.38941
2680.85	6.89601
2682.2	6.46053
2683.55	6.36525
2684.9	5.96462
2686.25	6.3962
2687.6	6.34286
2688.94	6.2084
2690.29	6.14849
2691.64	6.62598
2692.99	7.09802
2694.34	7.29057
2695.68	7.32858
2697.03	7.3371
2698.38	7.65622
2699.73	7.96765
2701.07	8.55902
2702.42	9.14753
2703.76	9.14525
2705.11	10.1427
2706.45	9.86047
2707.8	10.4013
2709.15	10.6444
2710.49	11.3517
2711.83	10.9829
2713.18	11.8138
2714.52	12.5789
2715.87	12.9129
2717.21	12.93
2718.55	12.8112
2719.9	12.3
2721.24	12.5594
2722.58	13.2131
2723.93	13.35
2725.27	13.4616
2726.61	12.3659
2727.95	12.0775
2729.29	12.3413
2730.63	11.8785
2731.98	11.5831
2733.32	10.8134
2734.66	10.587
2736	10.1473
2737.34	10.1096
2738.68	9.84389
2740.02	9.23027
2741.36	8.55797
2742.7	8.3859
2744.03	7.49174
2745.37	6.6512
2746.71	6.37691
2748.05	5.74971
2749.39	5.10583
2750.72	4.32543
2752.06	4.0432
2753.4	4.02134
2754.74	3.48375
2756.07	2.96848
2757.41	2.92994
2758.75	3.08402
2760.08	2.28682
2761.42	1.78862
2762.76	1.37788
2764.09	1.30782
2765.42	1.81086
2766.76	1.78064
2768.09	1.82318
2769.43	2.04614
2770.76	1.38057
2772.1	2.52622
2773.43	2.73536
2774.76	2.69427
2776.1	2.54205
2777.43	2.80826
2778.76	2.84318
2780.1	3.05623
2781.43	2.49317
2782.76	2.38445
2784.09	2.95222
2785.42	3.07533
2786.75	2.98266
2788.09	2.78288
2789.42	2.61469
2790.75	2.42467
2792.08	1.39215
2793.41	0.868869
2794.74	0.612147
2796.07	0.555269
2797.4	0.524868
2798.73	0.319197
2800.06	-0.092039
2801.39	-0.131381
2802.71	0.077416
2804.04	-0.192756
2805.37	-0.0186192
2806.7	-0.127413
2808.03	-0.185165
2809.35	-0.270477
2810.68	-0.853585
2812.01	-0.382591
2813.33	0.127841
2814.66	-0.0221586
2815.99	0.246753
2817.31	0.633439
2818.64	0.914889
2819.96	1.82003
2821.29	2.61215
2822.61	3.76812
2823.94	5.02689
2825.26	5.35978
2826.59	6.36693
2827.91	8.59013
2829.23	10.1391
2830.56	11.6578
2831.88	13.4378
2833.21	14.8353
2834.53	16.3224
2835.85	17.4342
2837.17	18.6244
2838.5	20.4441
2839.82	21.3463
2841.14	22.1959
2842.46	24.5851
2843.78	26.552
2845.1	29.1735
2846.42	31.3546
2847.74	33.3569
2849.06	35.7352
2850.38	38.3836
2851.71	40.0406
2853.03	42.1282
2854.34	44.4108
2855.66	46.8549
2856.98	48.9291
2858.3	50.9539
2859.62	53.8417
2860.94	56.4474
2862.26	59.397
2863.57	61.922
2864.89	64.522
2866.21	66.73
2867.53	68.9054
2868.84	71.0795
2870.16	73.2784
2871.48	74.9007
2872.79	76.5343
2874.11	78.322
2875.42	79.1892
2876.74	81.3718
2878.05	83.1385
2879.37	84.7976
2880.68	86.0549
2882	87.9165
2883.31	89.1675
2884.63	91.1049
2885.94	93.2947
2887.26	95.1088
2888.57	97.7424
2889.88	99.3577
2891.19	101.593
2892.51	103.781
2893.82	105.565
2895.13	106.762
2896.44	107.826
2897.76	109.849
2899.07	111.443
2900.38	113.163
2901.69	115.335
2903	117.324
2904.31	119.978
2905.62	122.138
2906.93	125.013
2908.24	128.41
2909.55	131.576
2910.86	134.149
2912.17	136.815
2913.48	139.143
2914.79	141.78
2916.1	144.356
2917.41	146.024
2918.71	148.713
2920.02	150.191
2921.33	152.144
2922.64	154.298
2923.94	156.536
2925.25	157.899
2926.56	158.523
2927.86	158.943
2929.17	159.552
2930.48	159.469
2931.78	158.634
2933.09	157.82
2934.39	157.368
2935.7	156.159
2937	154.001
2938.31	152.157
2939.61	150.189
2940.92	147.8
2942.22	146.492
2943.53	144.224
2944.83	142.22
2946.13	139.856
2947.43	136.966
2948.74	134.015
2950.04	131.818
2951.34	129.971
2952.64	127.697
2953.95	124.816
2955.25	122.018
2956.55	118.836
2957.85	115.715
2959.15	113.178
2960.45	110.678
2961.75	108.89
2963.05	107.577
2964.35	105.109
2965.65	102.982
2966.95	100.673
2968.25	98.1757
2969.55	96.2436
2970.85	93.5205
2972.15	91.6806
2973.45	89.2737
2974.75	86.7238
2976.05	83.6284
2977.34	81.1282
2978.64	77.6623
2979.94	75.0411
2981.24	72.338
2982.53	69.4989
2983.83	67.0008
2985.13	63.4887
2986.42	61.1278
2987.72	57.7203
2989.01	53.9564
2990.31	49.9674
2991.61	47.1139
2992.9	44.3598
2994.19	41.8638
2995.49	38.5549
2996.78	35.1232
2998.08	31.987
2999.37	29.0704
3000.67	26.0784
3001.96	23.2416
3003.25	21.3
3004.55	19.2318
3005.84	16.6052
3007.13	14.4297
3008.42	12.0987
3009.72	10.413
3011.01	8.788
3012.3	7.0852
3013.59	5.87537
3014.88	4.76923
3016.17	3.50007
3017.46	2.39029
3018.76	1.28771
3020.05	1.47161
3021.34	0.668712
3022.63	1.05017
3023.92	0.850761
3025.21	1.02196
3026.49	1.37763
3027.78	0.696232
3029.07	0.492815
3030.36	0.628274
3031.65	0.442691
3032.94	0.118467
3034.23	0.101835
3035.51	0.177853
3036.8	0.47599
3038.09	0.798049
3039.38	0.591361
3040.66	0.980042
3041.95	1.38964
3043.23	1.55071
3044.52	2.23794
3045.81	2.16538
3047.09	2.19655
3048.38	2.61981
3049.66	2.6411
3050.95	3.23033
3052.23	3.12999
3053.52	3.18232
3054.8	3.44077
3056.09	4.20641
3057.37	3.79098
3058.65	3.8269
3059.94	3.55168
3061.22	3.24378
3062.5	3.44867
3063.79	3.289
3065.07	3.50889
3066.35	3.24717
3067.63	3.43814
3068.92	2.50255
3070.2	1.99089
3071.48	1.53919
3072.76	1.34883
3074.04	1.28016
3075.32	1.05356
3076.6	0.38132
3077.88	0.222059
3079.16	0.320382
3080.44	0.928189
3081.72	0.860317
3083	0.360693
3084.28	0.871137
3085.56	0.439547
3086.84	0.540706
3088.12	0.253762
3089.4	0.407826
3090.67	1.02021
3091.95	0.75688
3093.23	0.800912
3094.51	0.936844
3095.78	1.38246
3097.06	1.81558
3098.34	2.30279
3099.61	2.49386
3100.89	3.04098
3102.17	3.09876
3103.44	3.45038
3104.72	4.29274
3105.99	4.51484
3107.27	4.57357
3108.54	5.28757
3109.82	5.81188
3111.09	6.09439
3112.37	6.33151
3113.64	6.4375
3114.92	6.7114
3116.19	6.53661
3117.46	6.67714
3118.74	7.26443
3120.01	7.74027
3121.28	7.83667
3122.55	8.39396
3123.83	8.81262
3125.1	8.82566
3126.37	9.43303
3127.64	9.66621
3128.91	10.1344
3130.19	10.1707
3131.46	10.6817
3132.73	10.5086
3134	10.9452
3135.27	11.5262
3136.54	12.4537
3137.81	13.1457
3139.08	14.0183
3140.35	14.7174
3141.62	15.6544
3142.89	16.4778
3144.16	17.4666
3145.42	19.0822
3146.69	20.5477
3147.96	21.7139
3149.23	23.6213
