#Acq. time (s)=	45
#Accumulations=	2
#Range (cm-¹)=	200...3150
#Windows=	2
#Auto scanning=	Off
#Autofocus=	Off
#Macrospot=	Off
#AutoExposure=	Off
#Spike filter=	Multiple accum.
#Delay time (s)=	0
#Binning=	1
#Readout mode=	Signal
#DeNoise=	Off
#ICS correction=	On
#Dark correction=	Off
#Inst. Process=	Off
#Detector Gain=	Best Dynamic Range
#Detector ADC=	20 kHz       
#Detector temperature (°C)=	-69.85
#Instrument=	LabRAM HR Evol
#Detector=	Synapse
#Objective=	x100
#Grating=	600 gr/mm
#ND Filter=	100%
#Laser (nm)=	532 
#Hole=	100.021
#Range=	Auto
#Laser Pol.=	No
#Raman. Pol.=	No
#Laser Pol. (°)=	-0.0007625
#Raman Pol. (°)=	89.9995
#Collection=	Microscope
#StageXY=	Marzhauser
#StageZ=	Marzhauser
#X (µm)=	2204.3
#Y (µm)=	1214.6
#Z (µm)=	443.05
#Full time(mm:ss)=	3:18
#Project=	
#Sample=	
#Site=	
#Title=	Thy_10_08_28_2x_45s_532 nm_x100_100%_600 gr_mm
#Remark=	
#Date=	05.07.2022 16:13
#Acquired=	05.07.2022 16:13:45
#Base:Fit=	10.08.2022 09:46:25
#Base:Sub=	10.08.2022 09:46:49
#Filter:Polynom=	16.08.2022 10:24:56
#AxisType[0]=Intens
#AxisUnit[0]=Cnt
#AxisType[1]=Spectr
#AxisUnit[1]=1/cm
200.43	15.8687
202.244	15.7687
204.059	13.4457
205.873	12.1068
207.688	10.8594
209.501	10.3077
211.314	10.1413
213.127	10.057
214.941	8.93519
216.753	7.84625
218.564	6.52688
220.375	6.22647
222.186	5.35015
223.999	5.20252
225.809	4.24938
227.618	4.4793
229.428	4.17724
231.236	4.2214
233.045	4.42254
234.855	4.24505
236.663	4.10899
238.471	4.38745
240.278	4.6381
242.085	5.52292
243.891	5.79823
245.698	6.42736
247.503	6.11112
249.309	6.85042
251.116	8.07797
252.921	9.24594
254.725	9.78194
256.529	10.2826
258.333	11.2818
260.136	12.3711
261.939	13.1857
263.742	13.2989
265.544	13.4271
267.346	13.4925
269.148	12.4063
270.949	12.1437
272.75	12.9871
274.55	13.721
276.351	14.2997
278.15	14.9547
279.95	16.0135
281.749	16.6679
283.548	17.3344
285.346	17.1289
287.144	17.6492
288.942	18.3125
290.739	18.8345
292.536	19.4667
294.333	20.3984
296.129	19.9078
297.925	19.7364
299.721	18.6773
301.514	18.7346
303.309	18.096
305.104	17.7828
306.898	19.1321
308.692	19.1982
310.486	19.9373
312.279	19.5943
314.072	19.5313
315.862	19.4431
317.654	19.6638
319.446	19.7651
321.238	20.6524
323.029	20.7246
324.819	20.9114
326.608	22.3238
328.398	23.7717
330.188	24.6543
331.977	25.6568
333.766	26.1453
335.553	26.5948
337.341	24.9146
339.129	25.2179
340.917	24.883
342.704	24.0487
344.489	22.8279
346.275	21.7796
348.062	21.7517
349.845	21.8183
351.631	20.6476
353.416	19.8799
355.201	18.9799
356.984	18.3101
358.768	17.7998
360.552	17.6237
362.333	17.975
364.116	16.5353
365.899	16.8549
367.68	17.1894
369.462	17.0657
371.243	17.4465
373.023	17.4241
374.804	17.005
376.585	17.5615
378.363	16.8824
380.143	17.3805
381.923	16.8293
383.7	16.141
385.479	15.9916
387.256	16.6614
389.034	18.025
390.812	19.3208
392.588	19.4022
394.365	19.2367
396.14	19.5071
397.916	18.5553
399.691	18.4999
401.467	17.9835
403.24	18.557
405.015	19.3636
406.788	19.5034
408.563	20.3834
410.335	21.1972
412.109	20.8096
413.88	20.6552
415.654	20.7197
417.424	20.1635
419.197	19.6099
420.967	19.2968
422.739	18.2116
424.508	17.3384
426.279	15.3317
428.048	15.6187
429.819	15.7306
431.587	15.4085
433.356	14.394
435.124	14.7514
436.891	13.874
438.66	13.0845
440.426	11.7363
442.194	11.583
443.96	11.0573
445.725	10.8756
447.492	10.5962
449.257	11.1115
451.021	11.2286
452.787	12.3672
454.551	13.13
456.314	13.8397
458.079	14.329
459.842	15.3572
461.604	15.2918
463.368	16.4427
465.13	17.2587
466.891	17.8032
468.654	19.2694
470.415	19.4948
472.175	20.1327
473.935	20.1622
475.696	20.5735
477.456	21.0397
479.215	21.2462
480.973	20.7774
482.733	21.6263
484.491	23.2109
486.249	23.4037
488.006	23.8782
489.765	24.5441
491.522	24.6926
493.278	24.7349
495.034	24.5496
496.789	24.4735
498.544	24.7288
500.301	24.5272
502.056	24.0491
503.81	25.1807
505.564	24.9315
507.317	24.857
509.071	24.6353
510.825	24.2519
512.578	24.6438
514.33	23.2666
516.082	23.5929
517.833	22.9025
519.585	22.0374
521.335	21.0858
523.086	21.4207
524.836	20.4712
526.586	20.6395
528.335	20.911
530.085	21.8427
531.835	21.3605
533.584	20.7257
535.332	20.3481
537.08	21.201
538.827	20.8169
540.574	22.2617
542.321	22.0873
544.068	23.3867
545.814	23.3048
547.56	23.4887
549.305	24.0009
551.05	24.0494
552.795	23.2953
554.54	22.6493
556.282	21.4575
558.025	20.6591
559.769	20.3805
561.512	19.0882
563.255	18.9377
564.997	18.7386
566.739	18.4172
568.481	18.5721
570.223	18.8162
571.964	18.9463
573.705	17.6896
575.443	17.1004
577.183	16.4805
578.923	16.3558
580.663	16.5435
582.402	16.1175
584.141	15.4967
585.879	15.7321
587.615	14.8068
589.353	13.7847
591.09	13.4552
592.828	12.8633
594.564	13.0551
596.299	13.6035
598.035	13.6331
599.771	13.2512
601.506	11.9479
603.242	11.9365
604.974	11.812
606.709	12.1645
608.443	12.6073
610.177	12.732
611.908	13.4235
613.642	14.3152
615.374	14.7697
617.105	14.5147
618.837	14.8198
620.569	15.0368
622.3	16.3417
624.03	17.9259
625.761	18.6997
627.491	19.8717
629.219	19.9956
630.949	20.8807
632.677	20.6216
634.406	20.6261
636.135	20.7695
637.861	19.3383
639.59	18.9611
641.318	18.2315
643.043	18.7995
644.77	18.5848
646.495	18.6767
648.222	17.5245
649.948	18.491
651.672	18.4592
653.398	18.8466
655.121	20.1059
656.846	20.8752
658.569	20.7875
660.293	20.1164
662.015	20.6366
663.738	21.1227
665.46	21.8308
667.183	21.7722
668.903	22.7587
670.626	22.347
672.346	23.8075
674.067	24.103
675.787	24.9286
677.508	25.7785
679.226	26.595
680.947	26.8089
682.665	27.4189
684.385	27.0425
686.102	27.8011
687.821	28.2719
689.538	29.4417
691.254	30.759
692.972	31.7212
694.688	33.4379
696.406	33.9208
698.121	35.7959
699.835	37.3064
701.552	37.7282
703.266	38.8634
704.98	40.1437
706.695	41.1134
708.409	42.6492
710.121	43.8015
711.836	44.2924
713.548	44.6931
715.26	45.6668
716.973	45.8508
718.685	46.2116
720.396	46.7799
722.108	47.6213
723.818	48.176
725.528	48.3015
727.238	48.6947
728.949	49.2117
730.658	48.9732
732.367	49.5963
734.075	50.0212
735.785	50.8344
737.493	51.113
739.2	52.2741
740.907	53.0041
742.614	53.4504
744.322	53.0605
746.028	54.3671
747.734	55.9088
749.439	56.9407
751.144	58.2968
752.849	59.3648
754.555	61.219
756.26	61.4702
757.963	63.2103
759.667	63.3963
761.37	63.4257
763.073	63.9009
764.775	64.9142
766.477	65.8436
768.179	66.8847
769.883	67.6784
771.584	68.6374
773.285	69.7037
774.986	71.6905
776.686	74.0915
778.386	74.7706
780.085	76.2885
781.785	76.2836
783.484	77.5674
785.182	78.4468
786.881	78.534
788.579	79.4206
790.276	79.5669
791.974	81.0259
793.671	81.5777
795.367	81.9553
797.064	82.0656
798.76	82.8528
800.456	83.8505
802.151	83.9993
803.846	84.5401
805.541	84.4418
807.234	84.589
808.928	83.2244
810.622	82.0035
812.315	82.6837
814.008	82.1414
815.701	82.5839
817.394	82.5777
819.086	83.4501
820.778	83.3473
822.468	82.6905
824.159	82.4359
825.85	82.3443
827.541	82.0225
829.231	82.3533
830.921	82.6741
832.609	81.9482
834.298	81.1102
835.987	80.7276
837.676	79.9913
839.364	79.2251
841.051	77.2532
842.738	76.3975
844.426	75.4994
846.113	74.3033
847.798	74.315
849.484	73.5453
851.171	72.4459
852.857	71.0567
854.54	68.9314
856.226	68.7847
857.911	68.0295
859.593	67.9567
861.278	67.2998
862.961	65.6129
864.645	64.623
866.327	62.9321
868.01	62.2793
869.692	61.1891
871.373	60.4363
873.055	58.9897
874.735	58.7151
876.416	58.447
878.097	57.0926
879.776	56.6777
881.457	56.6009
883.135	57.0601
884.815	56.7934
886.495	55.3085
888.172	55.6716
889.851	55.3939
891.528	54.9749
893.206	53.7871
894.882	54.0403
896.56	55.1463
898.237	54.7182
899.912	55.5356
901.589	55.9125
903.263	56.9137
904.94	56.05
906.614	55.7667
908.289	56.8058
909.962	57.1631
911.635	56.7094
913.31	56.7989
914.982	55.8635
916.656	55.5998
918.328	55.8569
920.001	55.8103
921.672	54.7956
923.345	54.268
925.015	54.0163
926.685	54.5042
928.357	53.707
930.026	53.4124
931.698	53.3473
933.366	52.6422
935.035	51.6406
936.705	50.3131
938.373	49.5822
940.041	49.5421
941.71	48.0553
943.377	48.1659
945.044	46.2312
946.712	44.6754
948.378	43.7943
950.044	43.413
951.709	42.5875
953.376	42.0612
955.041	41.8723
956.706	41.0688
958.372	41.4832
960.036	39.6503
961.699	39.1859
963.362	39.5778
965.027	39.5546
966.69	39.9647
968.352	39.7576
970.014	40.1152
971.676	40.9223
973.339	40.6873
975	41.1854
976.661	41.4895
978.322	41.879
979.982	42.6304
981.642	42.5843
983.303	43.422
984.962	42.9807
986.621	42.1785
988.28	40.2466
989.938	40.0684
991.596	39.8342
993.254	39.1047
994.911	38.4466
996.57	37.8763
998.227	37.6154
999.884	36.9734
1001.54	36.1517
1003.2	35.42
1004.85	34.1868
1006.51	33.6488
1008.16	34.0748
1009.82	33.962
1011.47	32.9785
1013.12	32.0278
1014.78	31.1952
1016.43	30.7913
1018.08	29.6355
1019.74	28.5579
1021.39	27.1411
1023.04	26.3525
1024.69	25.4183
1026.34	24.8214
1028	23.7704
1029.65	23.182
1031.3	22.9419
1032.95	21.9112
1034.6	21.3527
1036.25	21.3392
1037.9	20.9274
1039.54	20.1743
1041.19	19.8873
1042.84	19.9701
1044.49	20.3696
1046.14	20.7432
1047.78	20.8286
1049.43	21.5153
1051.08	22.0626
1052.72	21.653
1054.37	21.2059
1056.02	21.6061
1057.66	21.5935
1059.31	20.9487
1060.95	19.9915
1062.6	19.4847
1064.24	19.1224
1065.88	17.7606
1067.53	16.9825
1069.17	17.0206
1070.81	16.3457
1072.45	17.2467
1074.1	17.0754
1075.74	16.3652
1077.38	15.9394
1079.02	15.6696
1080.66	14.8334
1082.3	13.4196
1083.94	13.0861
1085.58	13.536
1087.22	12.998
1088.86	12.6416
1090.5	13.2096
1092.14	12.8486
1093.78	12.7736
1095.42	13.2718
1097.05	13.4857
1098.69	12.8842
1100.33	12.2945
1101.96	12.0291
1103.6	11.8623
1105.24	11.7354
1106.87	11.9384
1108.51	12.0725
1110.14	12.4948
1111.78	12.5751
1113.41	12.675
1115.05	12.6018
1116.68	12.713
1118.31	12.491
1119.95	12.1593
1121.58	11.2919
1123.21	11.0652
1124.85	10.6584
1126.48	9.29709
1128.11	9.30025
1129.74	9.49827
1131.37	9.19749
1133	9.0481
1134.63	7.98777
1136.26	8.3139
1137.89	8.32135
1139.52	7.61392
1141.15	7.12249
1142.78	5.72476
1144.41	6.20826
1146.04	5.666
1147.66	4.61183
1149.29	4.9087
1150.92	4.96005
1152.55	4.18364
1154.17	4.36418
1155.8	3.24571
1157.43	2.83635
1159.05	2.53767
1160.68	1.45281
1162.3	0.486034
1163.93	0.659628
1165.55	1.6299
1167.17	1.90478
1168.8	1.70282
1170.42	2.39722
1172.05	4.51114
1173.67	4.67962
1175.29	5.17565
1176.91	5.99987
1178.54	6.13423
1180.16	6.94426
1181.78	8.75384
1183.4	9.48225
1185.02	10.2681
1186.64	10.8339
1188.26	11.7252
1189.88	11.5681
1191.5	12.5764
1193.12	12.1695
1194.74	12.9551
1196.36	13.8856
1197.97	15.0531
1199.59	15.4306
1201.21	16.3877
1202.83	17.5041
1204.44	18.251
1206.06	19.073
1207.68	20.1925
1209.29	20.5968
1210.91	21.4648
1212.52	22.7614
1214.14	24.6859
1215.75	26.5554
1217.37	27.7154
1218.98	28.4203
1220.59	29.3541
1222.21	30.9858
1223.82	31.9295
1225.43	33.9182
1227.05	34.3548
1228.66	35.4987
1230.27	37.0922
1231.88	37.0433
1233.49	37.5384
1235.1	38.1872
1236.72	38.6844
1238.33	39.3504
1239.94	39.6202
1241.55	40.6575
1243.16	41.7031
1244.76	42.3011
1246.37	42.5998
1247.98	42.5057
1249.59	43.1317
1251.2	43.9456
1252.8	45.0429
1254.41	44.5552
1256.02	45.2363
1257.62	45.4832
1259.23	45.2278
1260.84	45.4494
1262.44	45.5353
1264.05	44.8165
1265.66	44.2708
1267.26	44.0347
1268.86	43.7716
1270.47	43.7039
1272.07	44.518
1273.67	44.1125
1275.28	45.1968
1276.88	45.8387
1278.48	47.2782
1280.09	46.789
1281.69	48.0754
1283.29	49.039
1284.89	49.6875
1286.49	51.3018
1288.09	52.3182
1289.69	52.8517
1291.29	55.1188
1292.89	56.9247
1294.49	57.7817
1296.09	58.5865
1297.69	58.8403
1299.29	60.6493
1300.89	61.6624
1302.49	63.0158
1304.08	63.8408
1305.68	64.3662
1307.28	65.1262
1308.88	65.6372
1310.47	66.0194
1312.07	66.3164
1313.66	67.5875
1315.26	67.7992
1316.85	68.1007
1318.45	67.3344
1320.04	67.4671
1321.64	67.54
1323.23	67.4689
1324.83	67.2266
1326.42	67.204
1328.01	67.2909
1329.61	67.2853
1331.2	67.4964
1332.79	66.6732
1334.38	64.9067
1335.97	64.2245
1337.56	63.1828
1339.16	62.7502
1340.75	61.9619
1342.34	60.9416
1343.93	59.3569
1345.52	58.3538
1347.11	57.2387
1348.7	55.906
1350.29	55.3273
1351.87	55.2759
1353.46	54.4393
1355.05	53.8694
1356.64	53.5347
1358.22	52.0953
1359.81	50.1243
1361.4	50.1968
1362.98	49.5584
1364.57	48.9988
1366.16	48.1525
1367.74	47.2852
1369.33	46.464
1370.91	45.8796
1372.5	45.149
1374.08	44.8731
1375.67	44.009
1377.25	43.3416
1378.83	42.8237
1380.41	41.3267
1382	41.6228
1383.58	41.0666
1385.16	40.0596
1386.74	39.7285
1388.33	38.9643
1389.91	38.7298
1391.49	38.9913
1393.07	37.7057
1394.65	37.0233
1396.23	36.3385
1397.81	35.1905
1399.39	34.8464
1400.97	33.8241
1402.55	33.822
1404.13	33.5834
1405.7	32.7506
1407.28	32.9278
1408.86	33.0028
1410.44	33.9974
1412.01	34.5498
1413.59	36.3554
1415.17	38.195
1416.74	38.6595
1418.32	39.7801
1419.89	41.063
1421.47	43.1017
1423.04	44.8327
1424.62	47.469
1426.19	49.2859
1427.77	51.6943
1429.34	54.0663
1430.91	56.4268
1432.49	59.3045
1434.06	61.7136
1435.63	64.1423
1437.2	65.8707
1438.78	68.0382
1440.35	69.9176
1441.92	71.5465
1443.49	72.9412
1445.06	73.9474
1446.63	73.4832
1448.2	73.6258
1449.77	73.3107
1451.34	73.4215
1452.91	72.8506
1454.48	71.2323
1456.05	70.2371
1457.62	68.6442
1459.18	67.5109
1460.75	66.2109
1462.32	63.6205
1463.89	61.5934
1465.45	59.6276
1467.02	57.6703
1468.59	55.0242
1470.15	51.2542
1471.72	47.9052
1473.28	45.6455
1474.85	42.7995
1476.41	39.6925
1477.98	36.625
1479.54	33.5514
1481.1	32.3162
1482.67	30.2966
1484.23	27.7835
1485.79	26.8561
1487.36	25.0867
1488.92	23.6895
1490.48	22.4523
1492.04	21.5246
1493.61	19.6415
1495.17	18.8815
1496.73	17.7463
1498.29	18.6344
1499.85	18.3334
1501.41	17.0221
1502.97	17.0581
1504.53	17.1422
1506.09	17.8006
1507.65	18.1768
1509.2	18.6463
1510.76	19.6984
1512.32	19.3779
1513.88	18.5533
1515.43	18.6245
1516.99	18.8173
1518.55	19.1512
1520.1	19.583
1521.66	20.0091
1523.22	20.3889
1524.77	19.8092
1526.33	20.9495
1527.88	21.3365
1529.44	21.6935
1530.99	21.613
1532.54	22.0387
1534.1	22.979
1535.65	23.5618
1537.21	24.4588
1538.76	24.9032
1540.31	25.9974
1541.86	27.0252
1543.42	27.8049
1544.97	29.23
1546.52	29.5901
1548.07	30.5416
1549.62	32.3424
1551.17	33.8279
1552.72	34.9005
1554.27	35.2984
1555.82	35.6826
1557.37	36.7371
1558.92	38.2073
1560.47	38.7273
1562.02	39.4624
1563.56	41.3209
1565.11	42.1997
1566.66	43.3066
1568.21	44.5
1569.75	44.9277
1571.3	45.8019
1572.85	47.1572
1574.39	47.4892
1575.94	49.5092
1577.49	50.3339
1579.03	51.5788
1580.57	53.1971
1582.12	53.4574
1583.66	54.0786
1585.21	55.5343
1586.75	56.5125
1588.3	57.5487
1589.84	57.7317
1591.38	57.6819
1592.92	59.0579
1594.47	60.4632
1596.01	59.9567
1597.55	59.6847
1599.09	60.4507
1600.63	60.0247
1602.17	59.8403
1603.71	60.4264
1605.25	60.5697
1606.79	59.5718
1608.33	60.1176
1609.87	60.7656
1611.41	60.8555
1612.95	60.1025
1614.49	59.4749
1616.03	59.434
1617.57	58.9156
1619.1	58.4165
1620.64	58.6701
1622.18	59.0992
1623.72	58.7933
1625.25	58.6565
1626.79	58.8743
1628.32	59.1541
1629.86	59.3976
1631.39	59.2727
1632.93	59.7806
1634.46	60.3996
1636	60.7866
1637.53	61.7202
1639.07	62.2511
1640.6	63.0805
1642.13	62.5884
1643.67	63.3944
1645.2	64.959
1646.73	64.6625
1648.26	65.2299
1649.8	65.8433
1651.33	66.276
1652.86	66.4413
1654.39	66
1655.92	65.8544
1657.45	65.6218
1658.98	65.6178
1660.51	65.0324
1662.04	64.7883
1663.57	63.5504
1665.1	63.0526
1666.63	62.2863
1668.16	61.0655
1669.68	60.9311
1671.21	59.6948
1672.74	57.1087
1674.27	56.2238
1675.79	55.9093
1677.32	54.236
1678.85	52.9324
1680.37	51.397
1681.9	49.6503
1683.42	46.9839
1684.95	46.1073
1686.47	43.6255
1688	41.1495
1689.52	38.5362
1691.05	36.1929
1692.57	34.4937
1694.09	32.6739
1695.62	31.4159
1697.14	30.2208
1698.66	28.8654
1700.18	27.3446
1701.71	25.5166
1703.23	24.6266
1704.75	23.805
1706.27	22.7996
1707.79	21.4737
1709.31	19.8985
1710.83	18.7254
1712.35	17.8893
1713.87	17.2782
1715.39	16.8694
1716.91	16.5242
1718.43	15.4053
1719.95	15.9017
1721.47	15.328
1722.99	13.4603
1724.5	13.1859
1726.02	12.7124
1727.54	12.5369
1729.06	12.1424
1730.57	12.3292
1732.09	12.7211
1733.61	11.8146
1735.12	11.2549
1736.64	10.5426
1738.15	10.5714
1739.67	10.5571
1741.18	10.6624
1742.7	9.67109
1744.21	9.23774
1745.72	9.0684
1747.24	7.83572
1748.75	7.03666
1750.26	7.06506
1751.77	6.59528
1753.29	5.84699
1754.8	5.1071
1756.31	4.42907
1757.82	4.07086
1759.33	3.16998
1760.84	3.28729
1762.36	2.41405
1763.87	1.5951
1765.38	1.04835
1766.89	0.509591
1768.4	0.876071
1769.91	0.350629
1771.41	0.4004
1772.92	-0.121196
1774.43	-0.342266
1775.94	-0.768809
1777.45	-1.40395
1778.95	-0.990558
1780.46	-0.773866
1781.97	-0.847133
1783.48	-1.08454
1784.98	-1.20583
1786.49	-0.5905
1787.99	-0.417504
1789.5	-0.124899
1791.01	-0.2111
1792.51	-0.392942
1794.01	0.0012529
1795.52	0.22306
1797.02	-0.00413899
1798.53	0.185689
1800.03	0.468241
1801.53	0.973504
1803.04	2.06513
1804.54	2.03642
1806.04	2.01131
1807.54	1.71256
1809.05	1.60412
1810.55	1.97053
1812.05	2.15333
1813.55	2.132
1815.05	2.61132
1816.55	2.50634
1818.05	2.20185
1819.55	2.48303
1821.05	1.94155
1822.55	1.88883
1824.05	2.35185
1825.55	2.84296
1827.05	2.98248
1828.55	3.54237
1830.04	3.23616
1831.54	3.31605
1833.04	3.6591
1834.54	3.2793
1836.03	3.103
1837.53	3.14483
1839.03	2.92032
1840.52	3.29651
1842.02	3.28655
1843.51	3.62467
1845.01	3.37006
1846.5	3.69905
1848	3.82342
1849.49	3.74673
1850.99	3.82633
1852.48	4.01787
1853.97	4.22254
1855.47	3.96727
1856.96	4.12367
1858.45	4.04355
1859.94	3.57255
1861.44	3.83194
1862.93	3.5379
1864.42	3.04708
1865.91	2.77893
1867.4	2.83079
1868.89	2.93023
1870.38	2.40522
1871.87	1.95346
1873.36	2.08284
1874.85	1.8512
1876.34	2.23862
1877.83	2.72845
1879.32	2.40314
1880.81	2.73704
1882.3	2.52881
1882.57	2.93395
1884.07	3.43843
1885.56	3.94624
1887.06	3.44748
1888.55	3.23035
1890.04	3.43221
1891.54	3.67509
1893.03	3.5024
1894.52	3.58464
1896.02	4.21654
1897.51	4.47128
1899	4.58628
1900.49	4.54277
1901.98	4.51604
1903.47	4.56657
1904.96	4.77394
1906.45	5.26388
1907.94	4.98604
1909.43	5.21259
1910.92	5.56595
1912.41	6.111
1913.9	6.12831
1915.39	6.60505
1916.88	7.43061
1918.37	7.47187
1919.85	7.63864
1921.34	7.85964
1922.83	7.43977
1924.32	7.45265
1925.8	7.50858
1927.29	7.29497
1928.78	7.52851
1930.26	7.96937
1931.75	7.86507
1933.23	7.41619
1934.72	7.4935
1936.2	7.04627
1937.69	7.09558
1939.17	7.42845
1940.66	7.11311
1942.14	7.72397
1943.63	7.56632
1945.11	7.66623
1946.59	8.396
1948.07	8.35743
1949.56	8.62949
1951.04	8.72123
1952.52	8.84111
1954	9.28555
1955.48	9.46073
1956.96	10.5106
1958.45	10.154
1959.93	9.83121
1961.41	9.19675
1962.89	9.40627
1964.37	9.56477
1965.85	9.34929
1967.32	9.36076
1968.8	10.1704
1970.28	9.99507
1971.76	9.6417
1973.24	9.79558
1974.72	9.17955
1976.19	8.67625
1977.67	8.79896
1979.15	8.52013
1980.63	8.74745
1982.1	8.74954
1983.58	9.45517
1985.05	9.70742
1986.53	10.2966
1988	9.40785
1989.48	9.88437
1990.95	9.80745
1992.43	8.98243
1993.9	8.88016
1995.38	8.73399
1996.85	8.51939
1998.32	8.4797
1999.8	9.28606
2001.27	9.41997
2002.74	9.93268
2004.22	10.6587
2005.69	10.7994
2007.16	11.1382
2008.63	11.4128
2010.1	12.0851
2011.57	12.4132
2013.04	12.7991
2014.51	12.7046
2015.98	13.688
2017.45	13.2158
2018.92	13.6102
2020.39	13.601
2021.86	13.7719
2023.33	13.9193
2024.8	14.1583
2026.27	14.195
2027.74	14.0005
2029.2	14.1144
2030.67	13.9774
2032.14	13.1535
2033.61	13.1736
2035.07	13.0487
2036.54	12.9918
2038.01	12.8415
2039.47	13.4534
2040.94	13.5885
2042.4	13.5312
2043.87	12.6173
2045.33	12.8479
2046.8	12.8656
2048.26	12.7404
2049.72	13.2688
2051.19	14.1079
2052.65	14.636
2054.12	14.6355
2055.58	14.7248
2057.04	14.6469
2058.5	14.2467
2059.97	14.3015
2061.43	13.9278
2062.89	14.4863
2064.35	14.6667
2065.81	14.5564
2067.27	15.0173
2068.73	14.963
2070.19	14.9187
2071.65	15.9205
2073.11	17.0732
2074.57	17.3955
2076.03	18.3587
2077.49	18.6645
2078.95	18.9759
2080.41	19.3271
2081.87	18.8002
2083.32	19.1697
2084.78	19.361
2086.24	19.0995
2087.7	18.4536
2089.15	19.1648
2090.61	18.2838
2092.07	18.3863
2093.52	17.9005
2094.98	17.7183
2096.43	17.3892
2097.89	17.2836
2099.34	17.1629
2100.8	17.1717
2102.25	17.5097
2103.71	16.8711
2105.16	16.638
2106.61	17.0743
2108.07	17.8736
2109.52	17.9457
2110.97	18.6372
2112.43	19.1485
2113.88	19.2364
2115.33	19.3846
2116.78	19.2838
2118.23	19.8078
2119.68	19.8799
2121.13	20.015
2122.59	20.0607
2124.04	20.6768
2125.49	20.91
2126.94	20.774
2128.39	21.4691
2129.83	22.0368
2131.28	22.5889
2132.73	22.8815
2134.18	23.7886
2135.63	24.5263
2137.08	24.7528
2138.53	25.4314
2139.97	25.5816
2141.42	25.7301
2142.87	26.7187
2144.31	27.5523
2145.76	27.0559
2147.21	26.6386
2148.65	26.8381
2150.1	25.9274
2151.54	26.0081
2152.99	26.088
2154.43	26.5546
2155.88	26.949
2157.32	26.952
2158.77	26.4837
2160.21	26.3716
2161.65	26.6886
2163.1	26.2839
2164.54	26.5578
2165.98	26.7779
2167.43	26.8897
2168.87	26.9616
2170.31	26.9646
2171.75	26.5976
2173.19	26.2821
2174.64	26.3461
2176.07	26.1337
2177.52	26.2587
2178.96	26.8729
2180.4	26.8887
2181.84	26.3851
2183.28	26.6393
2184.72	26.0141
2186.15	25.6147
2187.59	24.7971
2189.03	24.6108
2190.47	24.9015
2191.91	24.5861
2193.35	24.204
2194.78	24.5736
2196.22	24.9286
2197.66	25.0969
2199.09	25.2279
2200.53	24.9787
2201.97	24.7548
2203.4	24.2163
2204.84	23.3338
2206.27	24.0533
2207.71	23.1057
2209.14	21.8619
2210.58	21.8045
2212.01	20.964
2213.45	20.9178
2214.88	19.9804
2216.31	19.0539
2217.75	18.73
2219.18	19.0253
2220.61	18.976
2222.05	18.4626
2223.48	18.8293
2224.91	18.9244
2226.34	18.7466
2227.78	17.9147
2229.21	17.9059
2230.64	17.6774
2232.07	17.6569
2233.5	17.7823
2234.93	18.0431
2236.36	17.9095
2237.79	17.6587
2239.22	17.186
2240.65	17.1834
2242.08	16.8674
2243.5	16.4717
2244.93	16.7969
2246.36	17.2155
2247.79	17.4092
2249.22	18.2019
2250.64	18.9442
2252.07	18.9839
2253.5	19.2662
2254.92	19.1542
2256.35	19.1509
2257.78	19.2218
2259.2	19.2711
2260.63	19.9
2262.05	19.7219
2263.48	19.4529
2264.9	19.4489
2266.33	19.9881
2267.75	19.6453
2269.18	19.5789
2270.6	18.8653
2272.02	18.396
2273.45	17.8244
2274.87	17.2796
2276.29	17.2362
2277.71	17.4425
2279.14	16.5944
2280.56	15.6625
2281.98	16.258
2283.4	15.9672
2284.82	15.9409
2286.24	15.557
2287.66	15.8808
2289.08	15.6483
2290.5	14.5855
2291.92	13.489
2293.34	12.9229
2294.76	12.7212
2296.18	12.567
2297.6	12.3939
2299.02	12.231
2300.44	12.4494
2301.86	12.6768
2303.27	13.396
2304.69	13.463
2306.11	13.8709
2307.53	13.7135
2308.94	14.0803
2310.36	14.0627
2311.78	14.1917
2313.19	14.2324
2314.61	14.9676
2316.02	15.491
2317.44	15.9768
2318.85	16.6205
2320.27	16.9666
2321.68	16.8874
2323.1	16.659
2324.51	16.1854
2325.92	15.8439
2327.34	15.7952
2328.75	16.3948
2330.16	16.2059
2331.58	16.0123
2332.99	15.4056
2334.4	14.9427
2335.81	14.8872
2337.23	14.5199
2338.64	14.2395
2340.05	14.386
2341.46	14.2221
2342.87	13.8201
2344.28	13.1942
2345.69	13.3558
2347.1	12.3244
2348.51	11.6462
2349.92	10.8863
2351.33	9.8735
2352.74	9.73816
2354.15	9.41045
2355.55	8.90237
2356.96	8.17873
2358.37	7.61666
2359.78	7.54976
2361.19	6.93285
2362.59	7.56031
2364	7.9276
2365.41	8.96771
2366.81	9.27471
2368.22	9.35137
2369.62	9.56565
2371.03	9.75204
2372.44	10.421
2373.84	11.0483
2375.24	10.7711
2376.65	10.8155
2378.05	10.4913
2379.46	10.9045
2380.86	10.4229
2382.26	10.4528
2383.67	10.6281
2385.07	10.8637
2386.47	10.5236
2387.88	10.777
2389.28	11.1759
2390.68	11.3118
2392.08	11.1607
2393.48	11.1162
2394.89	11.4956
2396.29	11.2824
2397.69	11.2513
2399.09	11.8205
2400.49	10.569
2401.89	10.4911
2403.29	10.4003
2404.69	10.0209
2406.09	10.3232
2407.48	10.1399
2408.88	9.9194
2410.28	9.38826
2411.68	9.51657
2413.08	9.41379
2414.48	9.42171
2415.87	8.77179
2417.27	7.86013
2418.67	7.88428
2420.06	7.04862
2421.46	6.73085
2422.86	7.01182
2424.25	7.09808
2425.65	6.74213
2427.04	7.4017
2428.44	7.37175
2429.83	7.69574
2431.23	7.54579
2432.62	8.71884
2434.02	8.11903
2435.41	8.69562
2436.81	7.57658
2438.2	7.41085
2439.59	7.25089
2440.99	7.55582
2442.38	8.11504
2443.77	7.9784
2445.16	7.18312
2446.56	6.71595
2447.95	6.21471
2449.34	5.84295
2450.73	5.27995
2452.12	4.95051
2453.51	5.22739
2454.9	5.5955
2456.29	5.24276
2457.68	5.61384
2459.07	6.14702
2460.46	5.25001
2461.85	5.00642
2463.24	4.92041
2464.63	4.4393
2466.02	3.48469
2467.4	3.21953
2468.79	3.39411
2470.18	3.22914
2471.57	3.72884
2472.95	3.23472
2474.34	2.54003
2475.73	2.68108
2477.12	2.55279
2478.5	2.57766
2479.89	3.3146
2481.27	3.48068
2482.66	2.90076
2484.04	2.51485
2485.43	1.50882
2486.81	1.37647
2488.2	0.599265
2489.58	0.717549
2490.97	1.25764
2492.35	1.15697
2493.73	1.16641
2495.12	1.30388
2496.5	1.86973
2497.88	1.57207
2499.27	1.67291
2500.65	1.98121
2502.03	1.69592
2503.41	0.648594
2504.79	0.711284
2506.17	0.0455342
2507.56	-0.20163
2508.94	-0.394527
2510.32	-0.18306
2511.7	-0.223886
2513.08	-0.743613
2514.46	-0.802243
2515.84	-0.633019
2517.22	-0.666108
2518.59	-0.764489
2519.97	0.0650151
2521.35	1.09951
2522.73	1.81219
2524.11	1.97501
2525.49	2.18597
2526.86	2.94683
2528.24	3.08857
2529.62	3.08917
2530.99	3.49792
2532.37	3.65394
2533.75	3.71533
2535.12	4.00357
2536.5	4.60836
2537.88	5.21032
2539.25	5.46365
2540.63	5.9401
2542	5.60824
2543.38	6.04256
2544.75	6.78152
2546.12	7.35484
2547.5	7.52162
2548.87	7.49595
2550.24	7.27771
2551.62	7.17274
2552.99	7.33736
2554.36	7.29774
2555.74	7.43602
2557.11	7.26742
2558.48	7.58833
2559.85	7.33962
2561.22	7.23163
2562.59	7.20287
2563.96	7.24365
2565.34	7.0452
2566.71	6.47581
2568.08	5.87571
2569.45	5.91962
2570.82	4.93843
2572.18	4.44468
2573.55	4.48322
2574.92	4.61379
2576.29	4.46174
2577.66	4.43417
2579.03	4.11791
2580.4	4.17825
2581.77	4.28442
2583.13	4.0624
2584.5	4.08847
2585.87	3.48618
2587.23	3.54596
2588.6	4.44716
2589.97	4.3018
2591.33	4.34741
2592.7	3.97672
2594.06	4.14523
2595.43	4.62608
2596.79	4.62695
2598.16	4.4589
2599.52	3.85197
2600.89	3.89708
2602.25	3.34673
2603.62	3.47859
2604.98	3.35845
2606.34	2.86923
2607.71	2.92624
2609.07	2.64479
2610.43	2.04941
2611.79	2.23632
2613.16	2.61374
2614.52	2.76115
2615.88	2.74301
2617.24	3.10949
2618.6	3.25953
2619.96	2.63585
2621.32	2.48178
2622.68	2.34859
2624.04	2.58414
2625.4	2.03738
2626.76	1.87063
2628.12	1.83003
2629.48	1.61669
2630.84	1.14709
2632.2	1.52791
2633.56	1.22117
2634.92	0.664564
2636.28	0.706644
2637.63	1.14663
2638.99	0.908198
2640.35	0.957148
2641.71	1.05293
2643.06	1.04719
2644.42	0.81499
2645.77	0.810632
2647.13	0.69539
2648.49	1.12308
2649.84	1.02603
2651.2	0.504512
2652.55	1.13966
2653.91	0.562731
2655.26	1.37682
2656.62	1.45898
2657.97	1.14771
2659.33	1.2894
2660.68	0.349774
2662.03	0.671889
2663.39	0.674103
2664.74	0.891399
2666.09	0.688784
2667.44	0.806545
2668.8	0.673342
2670.15	1.01542
2671.5	1.30076
2672.85	1.02612
2674.2	1.27198
2675.55	1.62959
2676.91	1.84405
2678.26	2.10287
2679.61	2.9521
2680.96	3.30109
2682.31	3.1703
2683.66	3.23888
2685	3.92602
2686.35	3.80919
2687.7	3.18307
2689.05	3.56951
2690.4	3.70127
2691.75	3.31645
2693.1	2.41739
2694.44	2.86268
2695.79	3.02028
2697.14	3.13902
2698.49	3.53159
2699.83	4.31467
2701.18	4.2254
2702.52	3.93358
2703.87	5.01465
2705.22	5.53525
2706.56	4.99543
2707.91	4.89488
2709.25	5.20767
2710.6	5.85122
2711.94	5.88712
2713.29	5.92808
2714.63	5.86359
2715.97	6.13248
2717.32	5.77447
2718.66	5.78894
2720.01	5.84932
2721.35	5.51511
2722.69	5.5642
2724.03	5.27494
2725.38	5.26401
2726.72	5.08463
2728.06	5.62059
2729.4	6.34034
2730.74	6.26894
2732.08	6.29174
2733.42	5.77485
2734.76	5.58458
2736.1	5.17209
2737.44	5.47686
2738.78	5.13487
2740.12	4.79125
2741.46	5.04046
2742.8	4.60412
2744.14	4.81476
2745.48	4.72025
2746.82	4.72
2748.16	4.18921
2749.49	3.92036
2750.83	3.55785
2752.17	3.73449
2753.51	2.77457
2754.84	2.01963
2756.18	2.08547
2757.52	1.40889
2758.85	1.62014
2760.19	1.55231
2761.53	1.72421
2762.86	1.44852
2764.2	1.67868
2765.53	1.88223
2766.87	2.23098
2768.2	1.78317
2769.54	1.84937
2770.87	2.03461
2772.2	1.60085
2773.54	1.55013
2774.87	1.68758
2776.2	1.5032
2777.54	1.23376
2778.87	0.878388
2780.2	0.796904
2781.53	0.514433
2782.87	0.667642
2784.2	0.567227
2785.53	1.12945
2786.86	1.37021
2788.19	1.20056
2789.52	0.767206
2790.85	0.90252
2792.18	0.911789
2793.51	0.944962
2794.84	1.13743
2796.17	0.774264
2797.5	0.777276
2798.83	0.871203
2800.16	0.852725
2801.49	1.00408
2802.82	1.29284
2804.15	1.89015
2805.47	2.08381
2806.8	1.97033
2808.13	2.05518
2809.46	1.99017
2810.78	1.87916
2812.11	1.34661
2813.44	1.4817
2814.76	1.20956
2816.09	1.27941
2817.42	1.7085
2818.74	2.88576
2820.07	2.85941
2821.39	3.95852
2822.72	4.87651
2824.04	6.08748
2825.37	7.45617
2826.69	8.97585
2828.02	9.72243
2829.34	10.6337
2830.66	12.3855
2831.99	13.5408
2833.31	15.0468
2834.63	16.3799
2835.96	18.0036
2837.28	19.5249
2838.6	21.4264
2839.92	23.3502
2841.24	24.7065
2842.57	27.0244
2843.89	29.7352
2845.21	33.0118
2846.53	35.6381
2847.85	38.3876
2849.17	41.3726
2850.49	43.7668
2851.81	47.1514
2853.13	50.292
2854.45	52.7256
2855.77	55.8077
2857.09	58.4804
2858.41	61.5415
2859.72	64.4293
2861.04	67.0402
2862.36	69.8946
2863.68	72.1926
2865	74.6004
2866.31	76.7312
2867.63	79.8653
2868.95	82.2337
2870.26	84.4341
2871.58	86.256
2872.9	87.8698
2874.21	89.5622
2875.53	90.7414
2876.84	91.8197
2878.16	93.2705
2879.47	94.9358
2880.79	96.5242
2882.1	97.9893
2883.42	99.7969
2884.73	101.255
2886.05	103.133
2887.36	105.114
2888.67	105.901
2889.99	107.212
2891.3	108.213
2892.61	109.958
2893.92	110.774
2895.24	113.077
2896.55	115.325
2897.86	117.425
2899.17	119.224
2900.48	121.429
2901.79	123.733
2903.11	126.709
2904.42	129.535
2905.73	132.554
2907.04	136.028
2908.35	139.926
2909.66	143.484
2910.97	147.396
2912.27	150.397
2913.58	153.582
2914.89	156.698
2916.2	161.009
2917.51	164.546
2918.82	166.871
2920.13	169.234
2921.43	171.506
2922.74	173.635
2924.05	175.985
2925.35	177.543
2926.66	178.462
2927.97	179.534
2929.27	180.228
2930.58	181.523
2931.89	181.435
2933.19	182.151
2934.5	182.03
2935.8	181.753
2937.11	181.139
2938.41	180.712
2939.72	179.468
2941.02	177.846
2942.32	176.466
2943.63	175.313
2944.93	173.551
2946.24	171.559
2947.54	168.599
2948.84	166.596
2950.14	163.746
2951.45	161.043
2952.75	157.642
2954.05	154.8
2955.35	152.318
2956.65	149.989
2957.95	147.496
2959.26	144.427
2960.56	142.366
2961.86	140.006
2963.16	137.234
2964.46	134.313
2965.76	132.114
2967.06	129.565
2968.36	127.222
2969.66	125.124
2970.96	123.213
2972.25	120.752
2973.55	118.496
2974.85	115.931
2976.15	113.057
2977.45	110.28
2978.74	107.657
2980.04	105.464
2981.34	103.019
2982.64	99.3276
2983.93	96.1984
2985.23	93.2648
2986.52	89.556
2987.82	86.0905
2989.12	82.2537
2990.41	78.5856
2991.71	75.2219
2993	72.1188
2994.3	68.7765
2995.59	65.5535
2996.89	61.9683
2998.18	59.1809
2999.48	56.3283
3000.77	53.5508
3002.06	51.2804
3003.36	48.6072
3004.65	45.0595
3005.94	42.479
3007.23	40.1024
3008.53	38.0722
3009.82	35.4462
3011.11	33.1019
3012.4	30.9661
3013.69	29.5696
3014.99	27.5924
3016.28	26.4735
3017.57	25.5632
3018.86	24.341
3020.15	23.5106
3021.44	22.506
3022.73	21.6746
3024.02	21.1554
3025.31	20.7902
3026.6	19.7679
3027.89	19.0989
3029.18	19.3774
3030.46	19.4067
3031.75	19.0614
3033.04	19.4622
3034.33	20.1144
3035.62	19.7379
3036.9	19.8633
3038.19	20.3063
3039.48	20.3876
3040.76	20.8077
3042.05	21.7996
3043.34	22.0272
3044.62	22.2178
3045.91	22.5329
3047.19	22.8209
3048.48	22.7416
3049.77	22.8275
3051.05	22.3573
3052.34	22.3427
3053.62	22.4718
3054.9	21.9576
3056.19	21.6475
3057.47	20.7403
3058.76	20.6536
3060.04	19.9596
3061.32	19.6068
3062.61	19.643
3063.89	20.1304
3065.17	19.9445
3066.45	19.6981
3067.74	18.5577
3069.02	17.9241
3070.3	17.8801
3071.58	17.63
3072.86	17.104
3074.14	15.9091
3075.42	15.0823
3076.7	14.8538
3077.99	14.1182
3079.26	13.5596
3080.54	12.8293
3081.82	12.1649
3083.1	11.2633
3084.38	10.1705
3085.66	9.25472
3086.94	8.47344
3088.22	8.02278
3089.5	7.39584
3090.78	7.08996
3092.05	6.52582
3093.33	5.81074
3094.61	5.30209
3095.89	4.72613
3097.16	4.71558
3098.44	4.65339
3099.72	4.51549
3100.99	4.64164
3102.27	4.67541
3103.54	4.57262
3104.82	4.80847
3106.1	4.7354
3107.37	4.48109
3108.65	4.24942
3109.92	4.6705
3111.2	4.06977
3112.47	3.53571
3113.74	3.30402
3115.02	2.9164
3116.29	2.87507
3117.56	2.43132
3118.84	1.81461
3120.11	2.13913
3121.38	2.21678
3122.66	2.70379
3123.93	2.33897
3125.2	2.90856
3126.47	3.19796
3127.74	3.20432
3129.01	2.57892
3130.29	2.42851
3131.56	2.08862
3132.83	2.20509
3134.1	2.15766
3135.37	1.88625
3136.64	1.27022
3137.91	0.864013
3139.18	1.04519
3140.45	1.10999
3141.72	0.812774
3142.99	0.721111
3144.26	0.601696
3145.52	0.599839
3146.79	1.31072
3148.06	2.56445
3149.33	2.61813
