#Acq. time (s)=	45
#Accumulations=	2
#Range (cm-¹)=	200...3150
#Windows=	2
#Auto scanning=	Off
#Autofocus=	Off
#Macrospot=	Off
#AutoExposure=	Off
#Spike filter=	Multiple accum.
#Delay time (s)=	0
#Binning=	1
#Readout mode=	Signal
#DeNoise=	Off
#ICS correction=	On
#Dark correction=	Off
#Inst. Process=	Off
#Detector Gain=	Best Dynamic Range
#Detector ADC=	20 kHz       
#Detector temperature (°C)=	-69.85
#Instrument=	LabRAM HR Evol
#Detector=	Synapse
#Objective=	x100
#Grating=	600 gr/mm
#ND Filter=	100%
#Laser (nm)=	532 
#Hole=	100.021
#Range=	Auto
#Laser Pol.=	No
#Raman. Pol.=	No
#Laser Pol. (°)=	-0.0007625
#Raman Pol. (°)=	89.9995
#Collection=	Microscope
#StageXY=	Marzhauser
#StageZ=	Marzhauser
#X (µm)=	8993.5
#Y (µm)=	-3097.1
#Z (µm)=	-54.9
#Full time(mm:ss)=	3:05
#Project=	
#Sample=	
#Site=	
#Title=	Thy_00_07_8_2x_45s_532 nm_x100_100%_600 gr_mm
#Remark=	
#Date=	28.06.2022 10:35
#Acquired=	28.06.2022 10:35:23
#Base:Fit=	10.08.2022 10:07:56
#Base:Sub=	10.08.2022 10:08:40
#Filter:Polynom=	16.08.2022 10:26:06
#AxisType[0]=Intens
#AxisUnit[0]=Cnt
#AxisType[1]=Spectr
#AxisUnit[1]=1/cm
200.407	-2.31107
202.221	0.748712
204.035	2.8489
205.849	4.85289
207.665	7.04607
209.478	8.6194
211.291	10.1745
213.104	10.944
214.916	11.4916
216.73	11.5131
218.541	11.9388
220.352	12.8152
222.163	14.6895
223.973	14.022
225.785	14.8131
227.595	13.8532
229.404	14.7363
231.213	14.9163
233.022	12.8902
234.83	12.1777
236.638	11.768
238.448	11.7722
240.255	11.2892
242.062	11.5646
243.868	10.5259
245.675	11.1629
247.48	10.6674
249.286	9.60695
251.091	9.25897
252.896	8.85734
254.702	8.87638
256.506	7.84344
258.31	7.07046
260.113	6.87883
261.916	5.87247
263.719	5.28448
265.521	3.58284
267.323	2.59976
269.125	1.79854
270.926	1.9529
272.727	1.49002
274.527	1.98727
276.328	2.15158
278.127	2.7648
279.927	2.72205
281.726	2.7254
283.525	4.38681
285.323	5.14999
287.121	5.64929
288.919	6.37938
290.716	7.87425
292.513	8.38211
294.31	9.73149
296.104	10.6315
297.9	12.0473
299.696	14.1119
301.491	15.7197
303.286	16.8139
305.081	17.5192
306.875	19.3686
308.669	21.1489
310.463	23.3849
312.256	24.8848
314.047	24.5869
315.839	25.6513
317.631	26.0281
319.423	26.9678
321.215	27.2047
323.006	27.7636
324.794	29.7773
326.585	30.2519
328.375	30.7012
330.165	30.4556
331.954	30.5925
333.741	29.1975
335.53	29.2148
337.318	27.8272
339.106	27.218
340.894	27.5799
342.679	26.4702
344.466	25.1912
346.253	23.8551
348.039	23.5825
349.823	24.265
351.608	24.7365
353.393	25.1891
355.176	25.5972
356.961	27.3324
358.745	28.8753
360.529	29.3153
362.31	30.1074
364.093	30.2809
365.876	31.1278
367.657	31.957
369.439	32.9928
371.221	34.2069
373	36.4024
374.781	36.5314
376.56	38.0728
378.34	40.134
380.12	41.6247
381.898	43.5792
383.677	43.9454
385.456	45.226
387.233	45.9322
389.011	45.209
390.787	44.5615
392.565	44.2821
394.34	43.3735
396.117	43.8079
397.894	43.3504
399.668	43.0905
401.444	41.5433
403.217	39.5786
404.993	37.8829
406.766	36.8502
408.54	35.8067
410.312	34.9946
412.086	34.1832
413.858	31.3045
415.631	28.1775
417.402	25.3494
419.174	22.8679
420.944	21.5066
422.716	18.9694
424.486	17.6291
426.257	16.505
428.025	15.2585
429.794	13.6391
431.564	11.3977
433.332	10.1451
435.101	9.15396
436.868	9.03836
438.637	8.75594
440.403	8.03814
442.169	8.54964
443.937	9.14846
445.703	11.1952
447.468	11.0759
449.234	12.069
450.999	14.7466
452.765	16.2592
454.528	18.3601
456.292	20.1054
458.057	21.3517
459.819	23.2798
461.582	24.9012
463.344	26.8577
465.107	29.5084
466.868	31.2577
468.629	31.7552
470.392	31.822
472.152	32.0123
473.912	33.1397
475.672	33.5239
477.433	34.8438
479.192	35.4531
480.951	36.8489
482.709	37.6351
484.469	39.4725
486.226	39.9486
487.984	41.0105
489.74	42.335
491.499	42.6748
493.255	44.1913
495.011	46.1982
496.767	47.745
498.522	48.3269
500.277	49.003
502.033	48.3729
503.788	48.4366
505.541	48.332
507.295	48.8575
509.048	48.8725
510.801	47.7069
512.553	47.2552
514.308	46.0556
516.06	44.0046
517.811	43.3742
519.562	42.1529
521.313	40.8979
523.063	40.1346
524.814	39.647
526.563	38.9064
528.313	38.8054
530.062	39.0272
531.811	39.2967
533.559	38.4157
535.308	36.2356
537.055	35.3091
538.803	34.3419
540.55	32.7724
542.297	33.0098
544.043	31.3595
545.789	29.4922
547.535	28.1188
549.281	26.6629
551.026	25.2545
552.771	23.624
554.515	21.4295
556.259	19.1813
558.003	17.3036
559.747	17.0351
561.49	15.3451
563.233	14.3762
564.975	13.3284
566.717	12.3695
568.459	11.7658
570.2	10.9585
571.942	10.8078
573.68	9.81439
575.421	9.89374
577.161	9.81869
578.901	8.90512
580.64	9.69531
582.379	9.78342
584.118	9.72257
585.855	9.40233
587.593	9.8426
589.331	8.66605
591.068	8.66149
592.805	8.65595
594.54	9.29967
596.277	8.96985
598.013	9.05777
599.749	8.80792
601.484	8.53735
603.217	8.90629
604.952	10.4137
606.687	9.14531
608.421	9.49136
610.153	9.96215
611.886	9.81882
613.619	10.0926
615.35	10.4488
617.083	9.9129
618.815	10.1858
620.547	8.65299
622.276	8.2931
624.008	7.68377
625.738	8.43553
627.467	9.11075
629.197	9.62949
630.927	8.41533
632.655	8.46513
634.384	8.46683
636.113	9.15532
637.839	9.07896
639.568	9.2139
641.293	8.25165
643.021	7.49191
644.748	8.4808
646.473	9.38434
648.2	8.52746
649.924	8.39275
651.65	8.13905
653.376	7.80761
655.099	7.27069
656.824	8.47583
658.546	7.91554
660.271	8.07231
661.993	8.32438
663.716	8.88819
665.438	8.55093
667.161	8.84395
668.881	9.0757
670.604	9.19207
672.324	9.65958
674.045	10.7216
675.765	10.5617
677.486	11.7163
679.204	12.5565
680.925	13.3242
682.643	13.6573
684.361	14.3576
686.08	15.0844
687.797	15.9166
689.516	17.3628
691.232	18.6878
692.95	17.7773
694.666	18.1433
696.382	17.7589
698.099	17.3388
699.813	17.069
701.528	16.1748
703.244	15.9416
704.958	16.1611
706.673	15.2961
708.387	15.5251
710.099	15.8064
711.814	17.101
713.526	18.176
715.238	18.3045
716.949	17.8223
718.663	18.7999
720.374	19.6312
722.084	21.1118
723.796	20.3009
725.506	21.0167
727.216	21.3753
728.925	22.7768
730.636	25.2438
732.345	26.5421
734.053	28.5025
735.761	29.5679
737.471	32.0216
739.178	36.1511
740.885	39.5411
742.592	43.0075
744.298	46.9633
746.006	51.7609
747.712	55.0031
749.417	58.9346
751.122	61.8992
752.827	66.1761
754.532	70.376
756.236	73.4497
757.942	75.9407
759.645	79.2641
761.348	82.0488
763.051	84.8733
764.753	87.432
766.456	89.6353
768.158	90.4426
769.859	91.3566
771.56	92.0525
773.261	93.3274
774.964	93.8483
776.664	94.3372
778.364	91.6771
780.064	91.4288
781.763	90.0327
783.462	88.4021
785.16	87.213
786.859	85.5296
788.557	84.2035
790.255	81.9709
791.952	79.6744
793.649	77.1309
795.346	74.6059
797.042	72.5947
798.738	70.5944
800.434	68.5155
802.127	66.0391
803.823	63.9685
805.517	61.2904
807.212	59.1273
808.906	56.0755
810.6	55.6971
812.293	54.4282
813.987	54.8802
815.68	54.7806
817.372	54.9101
819.064	55.5202
820.754	56.2835
822.446	57.5075
824.137	58.4163
825.828	59.3421
827.519	60.2882
829.209	60.7552
830.897	61.018
832.587	60.8348
834.276	60.6821
835.966	60.4763
837.654	61.1795
839.341	61.2072
841.029	60.4722
842.717	59.9974
844.404	60.6508
846.091	60.2374
847.776	59.2873
849.463	58.1714
851.149	57.3256
852.833	55.582
854.519	55.2851
856.204	54.6611
857.889	54.0816
859.572	51.7676
861.256	50.4621
862.94	47.6301
864.622	47.0898
866.305	45.9383
867.988	44.9083
869.669	43.527
871.351	41.8638
873.033	39.0511
874.713	37.0468
876.395	35.9403
878.074	33.8356
879.755	32.427
881.435	31.2202
883.114	30.0667
884.794	29.3265
886.471	27.91
888.15	26.9993
889.829	26.4252
891.506	25.0627
893.184	24.5039
894.861	25.4296
896.538	25.6706
898.214	26.8492
899.891	27.2063
901.566	28.1306
903.242	29.6855
904.916	30.1884
906.592	30.4408
908.266	31.6043
909.941	33.6511
911.614	34.719
913.288	36.2275
914.961	38.0068
916.635	38.29
918.306	38.7579
919.979	39.7955
921.651	40.6469
923.321	40.7832
924.994	40.8243
926.664	40.8704
928.336	41.1877
930.005	40.7572
931.674	40.6439
933.345	39.4235
935.014	39.3185
936.682	38.9183
938.352	38.3395
940.019	37.6461
941.687	36.0678
943.356	36.0005
945.022	35.5012
946.689	34.0126
948.357	32.4485
950.022	31.6027
951.688	29.6516
953.355	28.5463
955.02	26.4355
956.684	23.026
958.348	20.8481
960.014	17.6887
961.678	15.2836
963.341	14.0726
965.004	14.0409
966.669	14.5875
968.331	14.2947
969.993	13.3857
971.655	11.9957
973.316	12.1164
974.979	11.9763
976.64	12.4158
978.3	12.7233
979.961	12.4778
981.62	12.4553
983.28	11.9079
984.941	11.0036
986.6	11.3462
988.259	9.90573
989.917	10.3296
991.575	11.0459
993.233	12.7437
994.89	13.2927
996.547	14.2017
998.204	16.2279
999.86	17.8274
1001.52	20.159
1003.17	21.9006
1004.83	24.5397
1006.49	26.8138
1008.14	29.604
1009.79	32.0781
1011.45	34.4321
1013.1	36.7737
1014.76	39.5736
1016.41	41.3405
1018.06	43.819
1019.72	44.8021
1021.37	46.3301
1023.02	46.5634
1024.67	47.0773
1026.32	48.3466
1027.97	48.0782
1029.62	48.2408
1031.27	47.8462
1032.92	47.3499
1034.57	45.1958
1036.22	43.7324
1037.87	40.5855
1039.52	38.1036
1041.17	36.5403
1042.82	35.5094
1044.47	35.542
1046.11	34.8924
1047.76	35.7318
1049.41	35.2658
1051.06	33.5321
1052.7	31.3924
1054.35	29.941
1055.99	29.3594
1057.64	27.1586
1059.28	25.8669
1060.93	25.1722
1062.57	24.3292
1064.22	23.9076
1065.86	22.993
1067.5	21.5171
1069.15	22.5403
1070.79	22.6918
1072.43	24.7728
1074.08	26.3852
1075.72	27.8622
1077.36	29.109
1079	31.7252
1080.64	33.6744
1082.28	33.9835
1083.92	35.3155
1085.56	35.2842
1087.2	36.7143
1088.84	37.5325
1090.48	38.641
1092.12	39.3845
1093.76	39.5277
1095.39	39.4016
1097.03	39.5577
1098.67	38.3679
1100.31	38.5846
1101.94	38.8428
1103.58	38.2862
1105.22	37.1546
1106.85	37.7772
1108.49	37.0161
1110.12	34.6193
1111.76	32.5187
1113.39	29.9453
1115.03	27.5489
1116.66	26.1779
1118.29	24.3954
1119.93	21.9714
1121.56	21.3128
1123.19	20.0927
1124.82	19.2481
1126.46	18.1202
1128.09	17.5923
1129.72	17.721
1131.35	16.214
1132.98	15.39
1134.61	15.0158
1136.24	15.1529
1137.87	14.9444
1139.5	14.4987
1141.13	15.0686
1142.76	14.2183
1144.39	13.3228
1146.01	12.6088
1147.64	11.3356
1149.27	11.0159
1150.9	11.0777
1152.53	10.048
1154.15	9.7087
1155.78	8.5739
1157.4	7.93639
1159.03	6.53216
1160.65	5.10375
1162.28	3.72908
1163.9	2.0534
1165.53	1.19954
1167.15	-0.0776758
1168.78	0.352098
1170.4	0.650553
1172.02	0.731565
1173.65	0.534377
1175.27	0.654244
1176.89	0.205992
1178.51	0.937727
1180.14	1.77209
1181.76	2.9052
1183.38	2.90677
1185	2.81116
1186.62	4.22971
1188.24	4.61057
1189.86	4.95174
1191.48	4.74867
1193.1	6.55016
1194.71	6.80266
1196.33	8.20513
1197.95	9.25926
1199.57	10.2899
1201.19	11.8442
1202.8	13.8133
1204.42	15.507
1206.04	16.9562
1207.65	19.2344
1209.27	21.4955
1210.88	22.9465
1212.5	23.5116
1214.12	25.8813
1215.73	27.2415
1217.35	28.6506
1218.96	31.0777
1220.57	32.1464
1222.19	34.161
1223.8	34.9555
1225.41	37.0168
1227.03	38.6385
1228.64	39.7383
1230.25	40.7193
1231.86	40.6856
1233.47	41.4102
1235.08	41.9061
1236.69	41.991
1238.31	42.9492
1239.92	43.015
1241.52	43.2979
1243.13	44.3161
1244.74	44.0083
1246.35	43.336
1247.96	43.8533
1249.57	43.0361
1251.18	42.5866
1252.78	42.3022
1254.39	41.3086
1256	40.4048
1257.6	39.2206
1259.21	39.7173
1260.82	39.727
1262.42	39.3828
1264.03	39.6737
1265.63	38.2518
1267.24	38.2353
1268.84	37.7974
1270.45	38.4476
1272.05	37.111
1273.65	37.9392
1275.26	37.464
1276.86	38.9037
1278.46	39.4594
1280.06	40.58
1281.67	40.8766
1283.27	42.0686
1284.87	43.5656
1286.47	45.0509
1288.07	47.1379
1289.67	46.8478
1291.27	47.3526
1292.87	48.8693
1294.47	51.5201
1296.07	52.864
1297.67	54.3967
1299.27	55.9635
1300.87	56.8451
1302.47	59.1922
1304.06	60.7369
1305.66	63.1661
1307.26	63.6616
1308.85	65.7702
1310.45	66.5999
1312.05	68.2033
1313.64	69.8613
1315.24	71.445
1316.83	72.6024
1318.43	74.0984
1320.02	75.1956
1321.62	75.7116
1323.21	76.1268
1324.8	76.4442
1326.4	76.2365
1327.99	76.9451
1329.59	76.5329
1331.18	76.2274
1332.77	75.658
1334.36	75.0184
1335.95	74.976
1337.54	74.852
1339.14	74.6902
1340.73	73.68
1342.32	73.0378
1343.91	71.4688
1345.5	70.1321
1347.09	69.5966
1348.67	68.2138
1350.26	67.1824
1351.85	65.8128
1353.44	65.4004
1355.03	64.0592
1356.62	63.7389
1358.2	63.5177
1359.79	61.995
1361.38	61.2557
1362.96	60.8831
1364.55	60.548
1366.14	59.7274
1367.72	57.8906
1369.31	56.0215
1370.89	55.7054
1372.48	54.9557
1374.06	53.3486
1375.64	52.6882
1377.23	51.8066
1378.81	51.8153
1380.39	51.8804
1381.98	51.4622
1383.56	50.5726
1385.14	49.5222
1386.72	48.5463
1388.3	49.3918
1389.89	48.6942
1391.47	49.1352
1393.05	48.6738
1394.63	49.0488
1396.21	49.3457
1397.79	49.1668
1399.37	49.5805
1400.95	48.7451
1402.52	48.8258
1404.1	49.0601
1405.68	47.9581
1407.26	47.4958
1408.84	47.7842
1410.42	48.0355
1411.99	49.8169
1413.57	52.041
1415.15	52.7757
1416.72	53.8827
1418.3	55.5158
1419.87	57.4843
1421.45	59.857
1423.02	61.6642
1424.6	65.0906
1426.17	67.9709
1427.75	72.1721
1429.32	75.5301
1430.89	78.1993
1432.47	80.7271
1434.04	83.8543
1435.61	87.2255
1437.18	89.7308
1438.76	90.5333
1440.33	93.1749
1441.9	94.6717
1443.47	96.0174
1445.04	97.3477
1446.61	98.635
1448.18	99.2442
1449.75	99.9247
1451.32	99.0289
1452.89	98.5966
1454.46	98.4771
1456.03	97.7088
1457.6	96.5177
1459.16	95.0545
1460.73	92.3153
1462.3	90.2481
1463.87	88.3547
1465.43	85.0677
1467	83.2479
1468.56	80.2481
1470.13	76.2989
1471.7	72.6386
1473.26	69.0703
1474.83	64.7592
1476.39	60.4614
1477.96	57.0022
1479.52	52.3347
1481.08	48.9813
1482.65	44.2328
1484.21	40.1931
1485.77	37.0098
1487.34	35.0508
1488.9	31.9096
1490.46	28.9551
1492.02	26.8951
1493.58	24.3956
1495.15	23.3656
1496.71	22.0242
1498.27	20.5775
1499.83	19.7706
1501.39	19.3368
1502.95	18.8212
1504.51	17.9402
1506.07	16.668
1507.63	15.0991
1509.18	14.1524
1510.74	14.015
1512.3	14.1177
1513.86	13.7275
1515.41	12.8235
1516.97	12.6858
1518.53	13.4557
1520.08	13.731
1521.64	14.8697
1523.2	15.9382
1524.75	16.6858
1526.31	17.2587
1527.86	18.3788
1529.42	19.5384
1530.97	21.2248
1532.52	22.4865
1534.08	24.0042
1535.63	24.7553
1537.19	25.4698
1538.74	25.3768
1540.29	27.4596
1541.84	28.3417
1543.4	29.5966
1544.95	32.2881
1546.5	32.4956
1548.05	33.4161
1549.6	35.1608
1551.15	36.6752
1552.7	38.8464
1554.25	41.1861
1555.8	43.4255
1557.35	44.8267
1558.9	46.4073
1560.45	47.5872
1562	49.5815
1563.54	51.0881
1565.09	53.0401
1566.64	54.1928
1568.19	55.8556
1569.73	58.1543
1571.28	58.8855
1572.83	60.3013
1574.37	61.1009
1575.92	62.5657
1577.47	64.2666
1579.01	66.0065
1580.56	67.4327
1582.1	69.0685
1583.64	69.6554
1585.19	70.7999
1586.73	71.9073
1588.28	73.1583
1589.82	73.6307
1591.36	74.5612
1592.9	74.8827
1594.45	76.2126
1595.99	76.2648
1597.53	76.7414
1599.07	76.7761
1600.61	76.8262
1602.15	76.4831
1603.69	76.8109
1605.23	76.6008
1606.77	75.3588
1608.31	73.5941
1609.85	72.8332
1611.39	71.1907
1612.93	69.0068
1614.47	67.6705
1616.01	66.4193
1617.55	66.7801
1619.08	65.0987
1620.62	64.2584
1622.16	63.3553
1623.7	62.4215
1625.23	62.3292
1626.77	61.7477
1628.3	61.8378
1629.84	62.2279
1631.37	61.7241
1632.91	61.2334
1634.44	60.9718
1635.98	60.6974
1637.51	61.5539
1639.05	61.8023
1640.58	61.824
1642.11	62.2682
1643.65	62.1622
1645.18	63.4905
1646.71	65.0085
1648.24	65.1984
1649.78	66.6425
1651.31	67.1187
1652.84	67.7514
1654.37	68.724
1655.9	69.2054
1657.43	69.483
1658.96	69.085
1660.49	67.9851
1662.02	68.3287
1663.55	68.3337
1665.08	67.8844
1666.61	67.5901
1668.14	67.1208
1669.66	65.9943
1671.19	66.0378
1672.72	63.9273
1674.25	63.0006
1675.77	60.7371
1677.3	58.3104
1678.83	55.7254
1680.35	53.7999
1681.88	50.9527
1683.4	47.9057
1684.93	46.3263
1686.45	43.9357
1687.98	41.077
1689.5	38.4521
1691.03	36.2355
1692.55	33.75
1694.07	32.2083
1695.6	29.5701
1697.12	26.9601
1698.64	24.9052
1700.17	22.9525
1701.69	21.4212
1703.21	20.283
1704.73	19.0892
1706.25	18.529
1707.77	17.0244
1709.29	16.0663
1710.81	15.1412
1712.33	14.3617
1713.85	13.4446
1715.37	11.6201
1716.89	10.2277
1718.41	10.3165
1719.93	9.9656
1721.45	9.91774
1722.97	9.29667
1724.49	8.66591
1726	8.83013
1727.52	8.51256
1729.04	8.38964
1730.55	7.82862
1732.07	7.59657
1733.59	7.47566
1735.1	7.35703
1736.62	7.32304
1738.13	8.05441
1739.65	7.72589
1741.16	7.87901
1742.68	8.46134
1744.19	7.54737
1745.7	7.71806
1747.22	7.24897
1748.73	5.84627
1750.24	5.24918
1751.76	4.46696
1753.27	4.56984
1754.78	4.93544
1756.29	5.44396
1757.8	5.49595
1759.31	5.04115
1760.83	4.64775
1762.34	3.56628
1763.85	3.37544
1765.36	2.73627
1766.87	2.72807
1768.38	2.97941
1769.89	2.71905
1771.39	2.31201
1772.9	2.20095
1774.41	2.97495
1775.92	2.62747
1777.43	2.6095
1778.94	2.75402
1780.44	2.15163
1781.95	2.44397
1783.46	1.65219
1784.96	1.8854
1786.47	2.01485
1787.97	2.17286
1789.48	1.72887
1790.99	2.01468
1792.49	2.76897
1794	3.39676
1795.5	2.9292
1797	2.90538
1798.51	3.18068
1800.01	2.59409
1801.51	2.16721
1803.02	1.38729
1804.52	1.59973
1806.02	1.53601
1807.53	2.01933
1809.03	1.59665
1810.53	1.34117
1812.03	1.47183
1813.53	1.60351
1815.03	2.24763
1816.53	2.99054
1818.03	2.96461
1819.53	2.91423
1821.03	3.54444
1822.53	3.40542
1824.03	3.42218
1825.53	3.42203
1827.03	3.63401
1828.53	3.66354
1830.02	3.48294
1831.52	3.47002
1833.02	2.8954
1834.52	2.17369
1836.01	2.30696
1837.51	2.65001
1839.01	3.61805
1840.5	4.30107
1842	4.2212
1843.49	4.03173
1844.99	3.71701
1846.48	3.83826
1847.98	3.94102
1849.47	3.2848
1850.97	3.1281
1852.46	3.44816
1853.95	3.74726
1855.45	4.02361
1856.94	5.05462
1858.43	5.12616
1859.93	6.21305
1861.42	5.84191
1862.91	6.21653
1864.4	5.8631
1865.89	5.47389
1867.38	5.68379
1868.87	5.26374
1870.36	5.56093
1871.85	5.27273
1873.34	5.41401
1874.83	5.58184
1876.32	5.80552
1877.81	5.72733
1879.3	5.89131
1880.79	4.87522
1882.28	4.48744
1882.52	4.347
1884.02	4.88246
1885.51	5.17562
1887.01	5.1418
1888.5	5.64572
1889.99	5.2294
1891.49	5.19361
1892.98	4.59538
1894.47	4.07513
1895.97	3.84108
1897.46	3.5207
1898.95	3.10753
1900.44	2.89652
1901.93	2.60354
1903.42	2.47725
1904.91	2.78284
1906.4	2.31641
1907.89	2.71788
1909.38	3.4509
1910.87	3.39774
1912.36	4.54179
1913.85	4.34321
1915.34	4.35723
1916.83	4.89033
1918.32	4.82497
1919.8	4.51266
1921.29	5.15463
1922.78	4.93767
1924.27	6.09496
1925.75	5.8061
1927.24	6.64233
1928.73	6.87664
1930.21	6.39643
1931.7	5.99058
1933.18	6.70543
1934.67	6.10948
1936.15	6.55535
1937.64	6.50565
1939.12	6.45765
1940.61	7.01924
1942.09	6.64103
1943.57	7.19687
1945.06	6.98941
1946.54	7.27248
1948.02	7.15915
1949.51	6.4057
1950.99	6.19754
1952.47	5.2477
1953.95	5.06326
1955.43	5.21072
1956.91	5.02557
1958.4	4.88336
1959.88	4.64896
1961.36	5.0951
1962.84	4.41197
1964.32	4.20125
1965.8	4.25554
1967.27	3.50132
1968.75	4.31633
1970.23	4.52681
1971.71	4.60253
1973.19	4.39466
1974.67	4.61204
1976.14	4.27775
1977.62	4.54049
1979.1	4.7468
1980.58	4.35121
1982.05	5.24736
1983.53	5.56661
1985	5.52419
1986.48	6.71053
1987.95	6.71223
1989.43	7.02845
1990.9	7.11191
1992.38	7.18355
1993.85	7.1815
1995.33	8.03807
1996.8	7.47594
1998.27	8.28782
1999.75	8.27475
2001.22	9.02185
2002.69	8.97652
2004.16	8.34189
2005.64	9.14484
2007.11	9.28961
2008.58	8.59454
2010.05	8.67724
2011.52	8.58135
2012.99	8.14062
2014.46	7.99163
2015.93	8.01766
2017.4	8.10955
2018.87	7.54078
2020.34	6.80844
2021.81	6.40769
2023.28	5.55839
2024.75	4.77
2026.22	3.78391
2027.69	4.51114
2029.15	4.15342
2030.62	3.63183
2032.09	3.54792
2033.56	3.06125
2035.02	2.72706
2036.49	2.39256
2037.96	2.18146
2039.42	1.61298
2040.89	1.90942
2042.35	1.91671
2043.82	0.995102
2045.28	0.374528
2046.75	0.169602
2048.21	-0.224093
2049.67	-0.884024
2051.14	-1.25683
2052.6	-1.6083
2054.07	-1.25491
2055.53	-0.0347047
2056.99	-0.376788
2058.45	0.0984251
2059.92	0.499577
2061.38	0.754657
2062.84	1.43514
2064.3	2.51623
2065.76	3.07223
2067.22	3.17457
2068.68	3.68161
2070.14	4.66486
2071.6	5.19
2073.06	5.06458
2074.52	5.02544
2075.98	4.94157
2077.44	4.98091
2078.9	5.96085
2080.36	6.32965
2081.82	6.3854
2083.27	6.44612
2084.73	6.29281
2086.19	6.77837
2087.65	6.57319
2089.1	6.76535
2090.56	6.44535
2092.02	6.10881
2093.47	5.51372
2094.93	5.52295
2096.38	4.99311
2097.84	4.63033
2099.29	5.03303
2100.75	4.99415
2102.2	4.31182
2103.66	4.1502
2105.11	3.89038
2106.56	3.75427
2108.02	3.88439
2109.47	3.8734
2110.92	2.69111
2112.38	2.3963
2113.83	2.13857
2115.28	1.0547
2116.73	0.922187
2118.18	0.367682
2119.63	0.542502
2121.09	0.300589
2122.54	0.120591
2123.99	-0.310962
2125.44	-0.0856837
2126.89	0.722657
2128.34	0.933048
2129.79	0.242599
2131.23	1.03709
2132.68	1.33108
2134.13	2.48672
2135.58	2.99607
2137.03	3.54421
2138.48	3.52479
2139.92	3.18038
2141.37	3.30612
2142.82	4.04276
2144.27	3.30949
2145.71	3.68528
2147.16	4.23796
2148.6	4.23332
2150.05	4.43469
2151.49	4.53199
2152.94	4.37121
2154.38	3.77387
2155.83	4.3693
2157.27	4.86767
2158.72	4.77414
2160.16	3.94452
2161.6	3.83743
2163.05	3.89286
2164.49	3.81023
2165.93	4.23717
2167.38	4.48579
2168.82	4.61613
2170.26	5.03489
2171.7	5.69996
2173.14	5.92556
2174.58	5.53084
2176.03	5.54177
2177.47	5.36568
2178.91	5.66448
2180.35	4.83802
2181.79	4.04139
2183.23	3.16508
2184.67	3.75205
2186.1	4.21512
2187.54	4.22158
2188.98	4.077
2190.42	3.37268
2191.86	3.77833
2193.3	3.46376
2194.73	3.63115
2196.17	3.35952
2197.61	3.72946
2199.05	3.72578
2200.48	3.69743
2201.92	4.17908
2203.35	4.27635
2204.79	4.27369
2206.22	4.10811
2207.66	3.76367
2209.1	4.12062
2210.53	3.90385
2211.97	3.53569
2213.4	3.44622
2214.83	3.43881
2216.27	2.89177
2217.7	2.92207
2219.13	2.91265
2220.57	2.6942
2222	3.19985
2223.43	3.28967
2224.86	3.00388
2226.29	3.85388
2227.72	4.58731
2229.16	4.88282
2230.59	4.88849
2232.02	5.00212
2233.45	5.54748
2234.88	5.80537
2236.31	5.69012
2237.74	6.27343
2239.17	6.11927
2240.6	6.30521
2242.03	5.98712
2243.45	6.05424
2244.88	6.03714
2246.31	5.80611
2247.74	6.77405
2249.17	6.5001
2250.59	6.67563
2252.02	6.37554
2253.45	6.98947
2254.87	7.16575
2256.3	7.89345
2257.73	7.98552
2259.15	8.10367
2260.58	8.35946
2262	8.87554
2263.43	8.86788
2264.85	8.32599
2266.28	7.63956
2267.7	7.04846
2269.13	7.18866
2270.55	7.32719
2271.97	8.08095
2273.4	8.33292
2274.82	7.18429
2276.24	7.10904
2277.67	7.37244
2279.09	6.93467
2280.51	6.68335
2281.93	6.28048
2283.35	5.88931
2284.77	5.47901
2286.2	5.17627
2287.62	5.27341
2289.04	5.02461
2290.46	5.36628
2291.88	4.98177
2293.3	4.71803
2294.72	4.17916
2296.13	4.66835
2297.55	5.82061
2298.97	5.94013
2300.39	5.87736
2301.81	4.89757
2303.23	4.49944
2304.64	4.83295
2306.06	4.98004
2307.48	5.50103
2308.89	5.87069
2310.31	5.54199
2311.73	6.10318
2313.14	6.51424
2314.56	7.1011
2315.98	7.69113
2317.39	7.57726
2318.81	8.07675
2320.22	7.91771
2321.64	8.31967
2323.05	8.00298
2324.46	8.77955
2325.88	8.33185
2327.29	8.78513
2328.7	8.60484
2330.12	8.35246
2331.53	7.71523
2332.94	6.88288
2334.35	6.21194
2335.77	6.14559
2337.18	6.29133
2338.59	7.20133
2340	7.36173
2341.41	7.17643
2342.82	6.85709
2344.23	6.1446
2345.64	6.11052
2347.05	6.40405
2348.46	6.08796
2349.87	5.35121
2351.28	5.62386
2352.69	5.88997
2354.1	5.74007
2355.51	5.26596
2356.91	4.67238
2358.32	4.52176
2359.73	4.27872
2361.14	4.43014
2362.54	4.07234
2363.95	4.58119
2365.36	4.64149
2366.76	5.1408
2368.17	4.85789
2369.58	4.75317
2370.98	4.68861
2372.39	4.68577
2373.79	4.81107
2375.2	4.83818
2376.6	4.98106
2378	4.73924
2379.41	4.74655
2380.81	4.94733
2382.22	5.50414
2383.62	4.93968
2385.02	5.01065
2386.43	5.46559
2387.83	5.01898
2389.23	5.26094
2390.63	4.38599
2392.03	4.94135
2393.44	4.75979
2394.84	5.12386
2396.24	4.3548
2397.64	4.1227
2399.04	3.96204
2400.44	4.44192
2401.84	4.54858
2403.24	4.46409
2404.64	4.38086
2406.04	4.07861
2407.44	4.45899
2408.84	4.7037
2410.23	4.45821
2411.63	4.47362
2413.03	4.81381
2414.43	5.23238
2415.83	5.83531
2417.22	5.49366
2418.62	4.93114
2420.02	5.26337
2421.41	4.90631
2422.81	5.03893
2424.21	4.45689
2425.6	4.00013
2427	4.08072
2428.39	4.17973
2429.79	4.73878
2431.18	4.84999
2432.58	5.11197
2433.97	5.71334
2435.36	5.32647
2436.76	6.19375
2438.15	5.83412
2439.54	6.41135
2440.94	7.00054
2442.33	6.71902
2443.72	5.9942
2445.12	5.68866
2446.51	6.83143
2447.9	6.61581
2449.29	6.99487
2450.68	7.2183
2452.07	7.13732
2453.46	7.28676
2454.85	7.56194
2456.24	7.48039
2457.64	7.05371
2459.02	7.01955
2460.41	6.78311
2461.8	7.33499
2463.19	6.60453
2464.58	6.67436
2465.97	5.93548
2467.36	5.94021
2468.75	6.73651
2470.13	6.3429
2471.52	5.63278
2472.91	4.97628
2474.3	5.04991
2475.68	5.569
2477.07	5.90797
2478.45	5.28693
2479.84	4.82188
2481.23	5.46794
2482.61	5.36796
2484	5.35947
2485.38	5.1266
2486.77	5.0811
2488.15	4.53296
2489.54	4.89957
2490.92	5.11818
2492.3	5.68463
2493.69	5.57588
2495.07	5.83126
2496.45	5.93891
2497.84	6.41809
2499.22	7.58373
2500.6	8.07973
2501.98	8.20926
2503.36	7.7767
2504.75	7.32395
2506.13	7.34594
2507.51	6.45654
2508.89	6.32991
2510.27	5.78137
2511.65	4.86686
2513.03	4.86234
2514.41	5.04257
2515.79	5.8395
2517.17	4.58279
2518.55	5.24361
2519.93	5.18299
2521.3	4.62991
2522.68	4.93267
2524.06	4.60734
2525.44	4.54416
2526.82	5.01461
2528.19	4.57031
2529.57	4.64783
2530.95	4.58054
2532.32	3.86191
2533.7	4.54351
2535.08	4.30122
2536.45	4.9571
2537.83	4.6036
2539.2	3.851
2540.58	3.93783
2541.95	3.84655
2543.33	3.72184
2544.7	3.77331
2546.08	3.53716
2547.45	3.5147
2548.82	4.00331
2550.2	4.86094
2551.57	4.06558
2552.94	4.77105
2554.32	5.17194
2555.69	4.99386
2557.06	4.5537
2558.43	4.48412
2559.8	4.45252
2561.18	3.99847
2562.55	3.79896
2563.92	3.78063
2565.29	4.27227
2566.66	4.80209
2568.03	4.98102
2569.4	4.56572
2570.77	3.81839
2572.14	3.26801
2573.51	3.47861
2574.88	3.21386
2576.25	2.87244
2577.61	3.32692
2578.98	3.99578
2580.35	4.11455
2581.72	4.15873
2583.09	4.22379
2584.45	5.20472
2585.82	4.92876
2587.19	5.17086
2588.55	4.86615
2589.92	4.52607
2591.29	4.5551
2592.65	3.85632
2594.02	3.37757
2595.38	3.23256
2596.75	3.67092
2598.11	3.57523
2599.48	2.77778
2600.84	2.58076
2602.21	2.98854
2603.57	2.36351
2604.93	3.01215
2606.3	2.63838
2607.66	2.42291
2609.02	2.56159
2610.39	2.94306
2611.75	2.97348
2613.11	3.89353
2614.47	4.32202
2615.83	4.39989
2617.19	4.71776
2618.56	5.31446
2619.92	5.56925
2621.28	6.25381
2622.64	5.73181
2624	4.48211
2625.36	5.18404
2626.72	5.15811
2628.08	5.44207
2629.44	5.58592
2630.8	6.41724
2632.15	6.88762
2633.51	7.55807
2634.87	7.36597
2636.23	7.53692
2637.59	8.13585
2638.94	7.65308
2640.3	7.91424
2641.66	8.59922
2643.02	8.64858
2644.37	9.25697
2645.73	9.06799
2647.09	8.98179
2648.44	9.13219
2649.8	9.31751
2651.15	9.70335
2652.51	9.5287
2653.86	9.09893
2655.22	8.53596
2656.57	8.96668
2657.93	8.2633
2659.28	8.14376
2660.63	8.50444
2661.99	8.77247
2663.34	8.86182
2664.69	9.76483
2666.05	8.76181
2667.4	9.11529
2668.75	9.67717
2670.1	9.73372
2671.45	9.77541
2672.81	10.2554
2674.16	10.0801
2675.51	11.0761
2676.86	12.0207
2678.21	12.2963
2679.56	13.0998
2680.91	13.3553
2682.26	13.1405
2683.61	13.1138
2684.96	13.2934
2686.31	13.0469
2687.66	12.6411
2689	11.8386
2690.35	12.0048
2691.7	12.0844
2693.05	13.1982
2694.4	12.7289
2695.74	12.5638
2697.09	12.8312
2698.44	13.04
2699.79	12.5779
2701.13	12.8091
2702.48	12.5913
2703.83	12.8562
2705.17	13.2522
2706.52	12.4372
2707.86	13.334
2709.21	13.1725
2710.55	12.8748
2711.9	12.8798
2713.24	12.6517
2714.58	13.8009
2715.93	13.7467
2717.27	13.8785
2718.62	14.1908
2719.96	14.5135
2721.3	15.0587
2722.65	14.6848
2723.99	14.9533
2725.33	14.3697
2726.67	14.5883
2728.01	15.3141
2729.35	15.3627
2730.7	15.7683
2732.04	16.2149
2733.38	15.3229
2734.72	14.7765
2736.06	14.4935
2737.4	14.4377
2738.74	14.8472
2740.08	15.255
2741.42	14.6586
2742.76	14.4785
2744.1	13.9897
2745.43	13.3961
2746.77	13.0427
2748.11	11.6856
2749.45	11.6519
2750.79	11.3227
2752.12	10.8464
2753.46	10.4337
2754.8	10.2108
2756.14	9.96765
2757.47	10.0869
2758.81	9.05035
2760.14	8.74064
2761.48	7.53547
2762.81	7.16069
2764.15	6.86462
2765.49	6.37718
2766.82	5.83324
2768.16	5.92244
2769.49	5.379
2770.82	5.24437
2772.16	4.73239
2773.49	4.62918
2774.82	4.74196
2776.16	4.17573
2777.49	4.65448
2778.82	4.38691
2780.16	4.25995
2781.49	3.86613
2782.82	3.5939
2784.15	3.8377
2785.48	3.77567
2786.82	3.70294
2788.15	3.59537
2789.48	2.92611
2790.81	2.79078
2792.14	2.99038
2793.47	2.92831
2794.8	3.52133
2796.13	3.01584
2797.46	2.55694
2798.79	1.83138
2800.12	1.44498
2801.44	1.52614
2802.77	1.43825
2804.1	1.66136
2805.43	1.91901
2806.76	1.34908
2808.08	1.17903
2809.41	1.84292
2810.74	2.62523
2812.07	2.42296
2813.39	2.39073
2814.72	2.77868
2816.05	3.48714
2817.37	3.5592
2818.7	4.79569
2820.02	6.14864
2821.35	7.34158
2822.67	9.19644
2824	10.7707
2825.32	12.2676
2826.65	15.1086
2827.97	16.7992
2829.3	19.5662
2830.62	21.9697
2831.94	24.887
2833.26	27.9522
2834.59	30.812
2835.91	33.2544
2837.23	36.6312
2838.56	40.6013
2839.88	45.6221
2841.2	48.7941
2842.52	52.7719
2843.84	57.198
2845.16	60.5319
2846.48	64.6315
2847.8	69.7323
2849.12	75.2306
2850.45	80.2719
2851.77	85.1085
2853.08	90.1026
2854.4	95.559
2855.72	100.461
2857.04	105.65
2858.36	110.246
2859.68	114.885
2861	119.617
2862.32	124.823
2863.63	129.362
2864.95	133.695
2866.27	138.45
2867.59	143.516
2868.9	147.887
2870.22	153.198
2871.54	157.571
2872.85	160.997
2874.17	165.06
2875.48	169.15
2876.8	171.931
2878.11	174.388
2879.43	177.341
2880.74	179.958
2882.06	183.082
2883.37	186.764
2884.69	190.713
2886	193.444
2887.31	196.338
2888.63	199.572
2889.94	202.822
2891.25	206.105
2892.57	208.708
2893.88	210.922
2895.19	213.485
2896.5	216.548
2897.82	220.045
2899.13	223.379
2900.44	226.742
2901.75	230.112
2903.06	235.18
2904.37	239.32
2905.68	243.108
2906.99	246.679
2908.3	251.389
2909.61	256.371
2910.92	260.982
2912.23	265.335
2913.54	271.023
2914.85	275.697
2916.16	279.987
2917.46	284.285
2918.77	288.561
2920.08	291.878
2921.39	295.011
2922.7	298.433
2924	300.872
2925.31	303.021
2926.62	305.194
2927.92	306.696
2929.23	306.9
2930.54	307.182
2931.84	307.929
2933.15	307.732
2934.45	305.899
2935.76	304.822
2937.06	301.935
2938.37	298.825
2939.67	295.667
2940.98	292.122
2942.28	287.94
2943.58	283.207
2944.89	278.741
2946.19	274.177
2947.49	269.799
2948.8	265.03
2950.1	259.485
2951.4	253.872
2952.7	248.938
2954.01	242.849
2955.31	238.003
2956.61	231.891
2957.91	226.056
2959.21	221.199
2960.51	215.81
2961.81	211.087
2963.11	206.022
2964.41	200.708
2965.71	196.064
2967.01	190.853
2968.31	187.477
2969.61	182.637
2970.91	179.371
2972.21	175.075
2973.51	170.322
2974.81	165.966
2976.1	160.828
2977.4	155.913
2978.7	152.295
2980	147.684
2981.29	143.285
2982.59	138.561
2983.89	133.483
2985.18	128.821
2986.48	123.768
2987.78	118.871
2989.07	113.132
2990.37	108.216
2991.66	103.41
2992.96	98.0784
2994.25	93.2538
2995.55	88.4517
2996.84	83.9272
2998.14	78.7855
2999.43	73.9699
3000.73	69.8444
3002.02	65.0149
3003.31	61.0492
3004.61	56.5997
3005.9	52.3208
3007.19	47.6923
3008.48	43.4575
3009.77	40.3228
3011.07	36.88
3012.36	33.2093
3013.65	30.2568
3014.94	27.4515
3016.23	24.3332
3017.52	21.596
3018.81	18.7919
3020.1	17.1567
3021.4	15.2799
3022.68	13.8471
3023.97	12.0462
3025.26	10.301
3026.55	9.0501
3027.84	7.74006
3029.13	6.78306
3030.42	6.13092
3031.71	5.48574
3033	5.66389
3034.28	4.6411
3035.57	4.51882
3036.86	3.69964
3038.15	3.03301
3039.43	2.94533
3040.72	3.29572
3042.01	3.46613
3043.29	4.26093
3044.58	4.53641
3045.87	4.83166
3047.15	5.42694
3048.44	5.79285
3049.72	6.4815
3051.01	6.46025
3052.29	7.33743
3053.58	7.7277
3054.86	7.92825
3056.15	7.98286
3057.43	8.44629
3058.71	8.4006
3060	8.58482
3061.28	8.95224
3062.56	9.15134
3063.84	9.472
3065.13	9.54663
3066.41	9.62412
3067.69	10.0466
3068.97	9.5966
3070.26	9.86774
3071.54	9.43837
3072.82	9.3181
3074.1	8.41255
3075.38	7.68529
3076.66	6.50419
3077.94	6.02014
3079.22	5.43696
3080.5	4.83045
3081.78	4.79395
3083.06	4.48646
3084.34	4.57513
3085.62	4.37861
3086.9	2.91743
3088.18	2.65494
3089.45	2.58303
3090.73	2.25596
3092.01	2.0471
3093.29	2.00094
3094.56	2.18766
3095.84	2.36446
3097.12	2.54788
3098.4	2.41225
3099.67	3.23068
3100.95	3.35787
3102.22	3.23185
3103.5	3.67311
3104.78	4.01215
3106.05	4.29306
3107.33	4.90645
3108.6	5.1907
3109.88	5.85157
3111.15	6.57838
3112.43	6.96053
3113.7	7.77679
3114.97	8.29535
3116.25	9.15713
3117.52	10.0301
3118.79	10.5113
3120.07	11.3051
3121.34	12.0538
3122.61	12.7935
3123.88	13.9673
3125.16	15.2203
3126.43	16.1059
3127.7	17.2221
3128.97	18.0451
3130.24	19.1322
3131.51	20.2122
3132.79	20.5329
3134.06	21.5127
3135.33	21.7203
3136.6	22.6046
3137.87	23.5176
3139.14	24.6124
3140.41	25.5372
3141.67	26.7535
3142.94	27.5366
3144.21	28.1458
3145.48	28.7927
3146.75	29.6996
3148.02	30.0853
3149.29	31.5884
