#Acq. time (s)=	45
#Accumulations=	2
#Range (cm-¹)=	200...3150
#Windows=	2
#Auto scanning=	Off
#Autofocus=	Off
#Macrospot=	Off
#AutoExposure=	Off
#Spike filter=	Multiple accum.
#Delay time (s)=	0
#Binning=	1
#Readout mode=	Signal
#DeNoise=	Off
#ICS correction=	On
#Dark correction=	Off
#Inst. Process=	Off
#Detector Gain=	Best Dynamic Range
#Detector ADC=	20 kHz       
#Detector temperature (°C)=	-70.08
#Instrument=	LabRAM HR Evol
#Detector=	Synapse
#Objective=	x100
#Grating=	600 gr/mm
#ND Filter=	100%
#Laser (nm)=	532 
#Hole=	100.021
#Range=	Auto
#Laser Pol.=	No
#Raman. Pol.=	No
#Laser Pol. (°)=	-0.0007625
#Raman Pol. (°)=	89.9995
#Collection=	Microscope
#StageXY=	Marzhauser
#StageZ=	Marzhauser
#X (µm)=	2189.7
#Y (µm)=	1227.6
#Z (µm)=	442.95
#Full time(mm:ss)=	3:18
#Project=	
#Sample=	
#Site=	
#Title=	Thy_10_08_32_2x_45s_532 nm_x100_100%_600 gr_mm
#Remark=	
#Date=	05.07.2022 16:32
#Acquired=	05.07.2022 16:32:51
#Base:Fit=	10.08.2022 09:46:25
#Base:Sub=	10.08.2022 09:46:49
#Filter:Polynom=	16.08.2022 10:24:56
#AxisType[0]=Intens
#AxisUnit[0]=Cnt
#AxisType[1]=Spectr
#AxisUnit[1]=1/cm
200.43	-0.144734
202.244	1.72258
204.059	4.82583
205.873	7.42359
207.688	8.90002
209.501	9.47906
211.314	9.77548
213.127	8.79433
214.941	8.35888
216.753	8.65481
218.564	8.71159
220.375	9.62668
222.186	9.32364
223.999	8.5116
225.809	9.57457
227.618	9.78769
229.428	10.035
231.236	10.1866
233.045	9.63098
234.855	10.4393
236.663	10.2756
238.471	10.2783
240.278	10.8311
242.085	10.6164
243.891	10.5065
245.698	11.5122
247.503	11.3517
249.309	11.7561
251.116	11.9267
252.921	12.4099
254.725	12.2892
256.529	12.9104
258.333	13.807
260.136	14.7019
261.939	16.5165
263.742	17.0177
265.544	17.876
267.346	18.3082
269.148	19.5647
270.949	20.5111
272.75	21.5948
274.55	22.7938
276.351	23.4578
278.15	24.3001
279.95	24.6871
281.749	25.2266
283.548	25.3867
285.346	25.3866
287.144	26.5237
288.942	26.4906
290.739	25.173
292.536	26.0145
294.333	24.9323
296.129	24.7363
297.925	24.416
299.721	24.8774
301.514	25.5361
303.309	25.1772
305.104	26.2858
306.898	26.9012
308.692	26.5659
310.486	27.4912
312.279	27.4528
314.072	27.4677
315.862	28.2336
317.654	28.2947
319.446	27.896
321.238	27.1582
323.029	27.2369
324.819	27.7725
326.608	27.2131
328.398	27.4038
330.188	28.427
331.977	27.9093
333.766	28.4812
335.553	29.1329
337.341	29.2744
339.129	28.8111
340.917	28.9134
342.704	28.2112
344.489	27.9304
346.275	29.0058
348.062	28.9517
349.845	30.2917
351.631	29.7449
353.416	29.5874
355.201	29.5703
356.984	28.7362
358.768	29.0521
360.552	29.231
362.333	28.4014
364.116	27.2998
365.899	27.2397
367.68	27.142
369.462	27.1946
371.243	26.7177
373.023	26.885
374.804	27.2883
376.585	28.0902
378.363	27.5398
380.143	27.6498
381.923	27.7065
383.7	27.127
385.479	27.1203
387.256	27.072
389.034	28.1486
390.812	27.3416
392.588	27.1449
394.365	26.6235
396.14	26.2825
397.916	26.0127
399.691	26.4327
401.467	25.5986
403.24	25.1548
405.015	25.0637
406.788	24.6413
408.563	23.606
410.335	23.4533
412.109	23.5563
413.88	22.9971
415.654	22.0347
417.424	21.688
419.197	21.4186
420.967	20.317
422.739	20.1241
424.508	19.1555
426.279	18.7887
428.048	17.4641
429.819	17.5236
431.587	15.9706
433.356	15.6623
435.124	15.3708
436.891	15.1689
438.66	15.3128
440.426	14.3602
442.194	14.7759
443.96	14.6179
445.725	15.1673
447.492	15.7619
449.257	16.0083
451.021	15.5173
452.787	17.0481
454.551	18.711
456.314	19.089
458.079	19.7017
459.842	20.623
461.604	21.3634
463.368	21.8156
465.13	22.135
466.891	22.2283
468.654	22.4828
470.415	22.0454
472.175	23.1864
473.935	23.2514
475.696	24.3139
477.456	24.6535
479.215	24.2035
480.973	24.2462
482.733	23.9174
484.491	24.9907
486.249	25.3031
488.006	25.8757
489.765	25.8253
491.522	26.0005
493.278	25.4025
495.034	25.4942
496.789	25.8685
498.544	26.1771
500.301	25.7929
502.056	25.7326
503.81	25.4361
505.564	26.09
507.317	25.8842
509.071	25.3231
510.825	24.6891
512.578	23.8821
514.33	23.7265
516.082	23.509
517.833	23.2622
519.585	22.8099
521.335	23.4468
523.086	24.3014
524.836	25.0609
526.586	25.7022
528.335	25.8699
530.085	26.145
531.835	26.3574
533.584	26.9932
535.332	26.5534
537.08	26.3153
538.827	25.7615
540.574	26.5657
542.321	25.6241
544.068	24.7377
545.814	24.5763
547.56	24.2421
549.305	23.8549
551.05	23.8735
552.795	23.9261
554.54	23.1965
556.282	21.7773
558.025	20.9076
559.769	20.9567
561.512	19.5217
563.255	18.7929
564.997	18.3365
566.739	17.0517
568.481	16.4303
570.223	17.0114
571.964	16.6082
573.705	15.8325
575.443	15.6178
577.183	14.7498
578.923	13.9428
580.663	13.3681
582.402	13.2518
584.141	12.0663
585.879	10.9185
587.615	10.2091
589.353	10.0256
591.09	9.025
592.828	8.26647
594.564	7.24468
596.299	6.39242
598.035	6.47025
599.771	6.68395
601.506	6.49557
603.242	6.14316
604.974	5.73343
606.709	5.81531
608.443	6.86814
610.177	7.46353
611.908	7.97857
613.642	8.87591
615.374	8.24429
617.105	8.135
618.837	8.80895
620.569	9.43216
622.3	9.92024
624.03	9.79492
625.761	9.8568
627.491	10.8848
629.219	11.1149
630.949	12.1257
632.677	12.9551
634.406	13.3369
636.135	14.7917
637.861	15.4071
639.59	15.9086
641.318	15.9072
643.043	16.5184
644.77	18.2112
646.495	18.8445
648.222	18.8637
649.948	19.6323
651.672	20.4778
653.398	20.2874
655.121	20.9957
656.846	21.4538
658.569	21.3656
660.293	21.8731
662.015	21.8634
663.738	21.4454
665.46	21.0345
667.183	21.7723
668.903	21.8562
670.626	22.0839
672.346	23.5429
674.067	24.4595
675.787	24.8149
677.508	24.3769
679.226	25.6433
680.947	26.8549
682.665	27.5853
684.385	28.7327
686.102	29.4045
687.821	29.8391
689.538	30.8699
691.254	32.036
692.972	32.5594
694.688	33.0518
696.406	34.2319
698.121	35.6129
699.835	35.4278
701.552	36.2045
703.266	37.1679
704.98	38.4783
706.695	38.5094
708.409	38.6653
710.121	38.649
711.836	39.6526
713.548	40.9287
715.26	41.4582
716.973	41.4785
718.685	42.1014
720.396	42.9253
722.108	43.4345
723.818	43.6001
725.528	43.9188
727.238	43.9532
728.949	44.0994
730.658	44.4747
732.367	43.4711
734.075	43.1069
735.785	43.6687
737.493	44.3416
739.2	44.983
740.907	46.4868
742.614	48.4806
744.322	49.7054
746.028	50.3844
747.734	50.9711
749.439	51.9775
751.144	53.411
752.849	55.1678
754.555	56.7608
756.26	58.1448
757.963	59.349
759.667	60.0819
761.37	61.2512
763.073	62.3033
764.775	63.5923
766.477	64.9353
768.179	65.4731
769.883	66.673
771.584	67.4001
773.285	68.3238
774.986	68.7467
776.686	69.8416
778.386	70.2221
780.085	71.9314
781.785	72.5802
783.484	73.1057
785.182	73.5382
786.881	74.4232
788.579	74.6584
790.276	75.2523
791.974	75.2805
793.671	75.7974
795.367	76.9818
797.064	77.3204
798.76	77.0019
800.456	77.2714
802.151	77.692
803.846	78.5224
805.541	78.3989
807.234	78.5613
808.928	78.3619
810.622	77.6726
812.315	77.2234
814.008	77.5659
815.701	78.0127
817.394	78.2385
819.086	78.4565
820.778	78.8151
822.468	79.0506
824.159	78.7607
825.85	78.9597
827.541	77.6234
829.231	76.431
830.921	76.4509
832.609	75.8837
834.298	75.5263
835.987	74.9334
837.676	74.0501
839.364	73.4908
841.051	72.3587
842.738	71.7753
844.426	71.1687
846.113	70.5085
847.798	69.5536
849.484	68.3118
851.171	67.5313
852.857	66.149
854.54	65.5095
856.226	64.1759
857.911	63.2619
859.593	62.1956
861.278	61.5608
862.961	60.0584
864.645	59.09
866.327	57.3767
868.01	57.4389
869.692	55.8219
871.373	53.9128
873.055	53.7077
874.735	52.501
876.416	51.1636
878.097	50.6697
879.776	49.4281
881.457	48.0105
883.135	46.9263
884.815	47.1897
886.495	46.4859
888.172	46.2474
889.851	45.4548
891.528	44.6514
893.206	43.8502
894.882	44.0699
896.56	44.5778
898.237	45.2462
899.912	44.8288
901.589	44.1529
903.263	43.1158
904.94	42.3797
906.614	43.0809
908.289	42.4762
909.962	42.336
911.635	42.0318
913.31	43.0095
914.982	43.6679
916.656	43.0496
918.328	43.6041
920.001	43.4645
921.672	43.2882
923.345	43.6453
925.015	43.9338
926.685	44.2268
928.357	44.0709
930.026	43.647
931.698	43.6852
933.366	43.2388
935.035	43.4299
936.705	43.1068
938.373	42.4535
940.041	41.7354
941.71	41.413
943.377	41.6527
945.044	40.7223
946.712	39.536
948.378	38.6636
950.044	37.9233
951.709	36.9523
953.376	35.9782
955.041	35.5991
956.706	34.7157
958.372	33.3474
960.036	32.8658
961.699	32.2153
963.362	31.4795
965.027	31.2301
966.69	31.3095
968.352	32.0036
970.014	30.953
971.676	31.073
973.339	29.9739
975	29.973
976.661	29.9338
978.322	29.9361
979.982	29.5312
981.642	28.4201
983.303	27.418
984.962	26.8747
986.621	26.5921
988.28	26.1874
989.938	26.2949
991.596	25.8376
993.254	25.0424
994.911	24.5951
996.57	25.3228
998.227	24.9571
999.884	24.0096
1001.54	23.9427
1003.2	22.7182
1004.85	23.7819
1006.51	24.3888
1008.16	24.3951
1009.82	23.6596
1011.47	23.3912
1013.12	23.1577
1014.78	23.1905
1016.43	23.1299
1018.08	22.7923
1019.74	21.8369
1021.39	21.5307
1023.04	21.2569
1024.69	20.7416
1026.34	20.7371
1028	19.2178
1029.65	19.0334
1031.3	18.9121
1032.95	18.3239
1034.6	17.8943
1036.25	17.4059
1037.9	16.8105
1039.54	16.0019
1041.19	15.1138
1042.84	14.5825
1044.49	13.5972
1046.14	13.4986
1047.78	13.0408
1049.43	13.405
1051.08	13.0533
1052.72	11.8423
1054.37	12.7815
1056.02	12.8726
1057.66	13.051
1059.31	12.3327
1060.95	12.2748
1062.6	11.6455
1064.24	11.1155
1065.88	10.8572
1067.53	10.044
1069.17	9.43356
1070.81	9.48097
1072.45	9.33925
1074.1	9.11824
1075.74	7.79909
1077.38	8.05239
1079.02	8.76361
1080.66	8.05856
1082.3	7.79359
1083.94	8.67695
1085.58	8.56802
1087.22	9.21645
1088.86	8.30161
1090.5	7.45487
1092.14	8.04976
1093.78	9.10657
1095.42	9.54187
1097.05	9.39243
1098.69	9.70259
1100.33	8.9307
1101.96	9.10287
1103.6	9.2682
1105.24	9.19239
1106.87	9.53901
1108.51	10.1553
1110.14	9.89809
1111.78	10.0025
1113.41	9.09486
1115.05	8.83653
1116.68	8.82732
1118.31	7.58504
1119.95	7.56322
1121.58	7.02664
1123.21	6.92243
1124.85	7.49052
1126.48	7.59328
1128.11	7.69588
1129.74	7.87624
1131.37	8.82544
1133	8.73793
1134.63	8.92665
1136.26	9.51539
1137.89	9.62037
1139.52	8.77854
1141.15	8.4125
1142.78	8.56235
1144.41	8.67377
1146.04	7.67541
1147.66	7.00293
1149.29	7.1679
1150.92	7.44319
1152.55	7.63523
1154.17	7.39131
1155.8	7.00627
1157.43	7.06731
1159.05	7.53932
1160.68	8.33003
1162.3	7.92953
1163.93	7.84593
1165.55	7.70037
1167.17	6.73323
1168.8	6.71705
1170.42	5.97687
1172.05	5.71995
1173.67	6.27893
1175.29	6.24398
1176.91	5.85869
1178.54	5.56511
1180.16	5.43701
1181.78	4.43793
1183.4	4.88756
1185.02	5.10355
1186.64	5.53569
1188.26	6.31501
1189.88	6.43686
1191.5	6.24414
1193.12	5.72232
1194.74	5.83804
1196.36	6.629
1197.97	7.78023
1199.59	8.56997
1201.21	9.50701
1202.83	10.2852
1204.44	11.3664
1206.06	11.3453
1207.68	12.0177
1209.29	13.5404
1210.91	14.8465
1212.52	16.0982
1214.14	16.78
1215.75	17.9328
1217.37	19.2388
1218.98	19.9518
1220.59	21.2384
1222.21	21.6644
1223.82	22.4955
1225.43	23.5871
1227.05	23.9678
1228.66	25.869
1230.27	27.2845
1231.88	27.558
1233.49	28.771
1235.1	28.6743
1236.72	28.3223
1238.33	28.8806
1239.94	28.5592
1241.55	28.854
1243.16	28.2727
1244.76	27.9811
1246.37	27.6509
1247.98	27.2174
1249.59	27.3641
1251.2	26.4167
1252.8	26.8417
1254.41	26.5109
1256.02	25.9941
1257.62	25.1961
1259.23	24.9694
1260.84	24.3373
1262.44	25.2182
1264.05	25.862
1265.66	25.7476
1267.26	25.655
1268.86	24.8406
1270.47	24.3839
1272.07	24.0969
1273.67	24.3422
1275.28	25.3119
1276.88	25.7294
1278.48	26.111
1280.09	25.5162
1281.69	25.7534
1283.29	27.3254
1284.89	28.1465
1286.49	28.7719
1288.09	30.6695
1289.69	31.3461
1291.29	32.1631
1292.89	33.368
1294.49	34.5696
1296.09	35.4527
1297.69	36.3546
1299.29	37.2516
1300.89	38.3223
1302.49	38.5011
1304.08	39.7063
1305.68	41.1226
1307.28	41.2321
1308.88	42.2586
1310.47	42.1455
1312.07	41.5452
1313.66	41.5857
1315.26	41.061
1316.85	42.2112
1318.45	42.6805
1320.04	43.065
1321.64	43.8191
1323.23	44.361
1324.83	44.9238
1326.42	44.6968
1328.01	44.5354
1329.61	44.2426
1331.2	43.6536
1332.79	43.824
1334.38	43.2927
1335.97	43.6212
1337.56	43.5991
1339.16	42.7093
1340.75	42.1835
1342.34	42.2824
1343.93	40.8939
1345.52	41.2983
1347.11	40.6394
1348.7	39.8908
1350.29	39.3009
1351.87	39.5491
1353.46	39.4653
1355.05	39.2208
1356.64	38.2682
1358.22	37.7697
1359.81	37.6905
1361.4	38.2208
1362.98	38.0586
1364.57	37.792
1366.16	37.5846
1367.74	37.0588
1369.33	35.896
1370.91	35.289
1372.5	34.2836
1374.08	33.6313
1375.67	32.9372
1377.25	32.135
1378.83	31.3915
1380.41	31.4685
1382	30.8487
1383.58	30.0897
1385.16	28.6821
1386.74	28.1442
1388.33	28.2247
1389.91	27.409
1391.49	26.7577
1393.07	27.0948
1394.65	27.259
1396.23	27.3567
1397.81	26.7036
1399.39	26.9776
1400.97	26.7456
1402.55	26.7202
1404.13	25.7054
1405.7	24.5745
1407.28	24.6958
1408.86	24.1144
1410.44	24.4863
1412.01	24.5542
1413.59	24.4731
1415.17	24.4786
1416.74	24.3991
1418.32	24.7793
1419.89	26.3212
1421.47	27.383
1423.04	27.6803
1424.62	28.9846
1426.19	29.1895
1427.77	30.6838
1429.34	32.1649
1430.91	33.8775
1432.49	34.1119
1434.06	34.646
1435.63	35.4286
1437.2	36.4673
1438.78	37.7243
1440.35	38.5171
1441.92	39.2919
1443.49	39.8259
1445.06	40.1601
1446.63	39.9266
1448.2	40.295
1449.77	41.2291
1451.34	41.7323
1452.91	42.2176
1454.48	42.7107
1456.05	42.8997
1457.62	43.5431
1459.18	43.663
1460.75	42.7173
1462.32	42.022
1463.89	40.8343
1465.45	40.9899
1467.02	40.4891
1468.59	39.2274
1470.15	38.3272
1471.72	37.1871
1473.28	35.9486
1474.85	34.4623
1476.41	33.3783
1477.98	31.9954
1479.54	29.8843
1481.1	28.4866
1482.67	26.61
1484.23	25.3303
1485.79	24.4713
1487.36	22.7629
1488.92	21.8332
1490.48	20.3291
1492.04	18.6461
1493.61	17.5827
1495.17	17.1143
1496.73	16.2575
1498.29	16.0194
1499.85	14.5434
1501.41	13.3564
1502.97	13.1203
1504.53	13.2028
1506.09	13.0074
1507.65	12.8655
1509.2	12.4564
1510.76	11.3837
1512.32	11.6775
1513.88	12.1471
1515.43	12.1799
1516.99	12.2098
1518.55	12.3241
1520.1	13.47
1521.66	13.9169
1523.22	14.9122
1524.77	15.7092
1526.33	16.3581
1527.88	16.8074
1529.44	17.3316
1530.99	18.3554
1532.54	19.4363
1534.1	19.7332
1535.65	20.8496
1537.21	21.1544
1538.76	22.2087
1540.31	22.9465
1541.86	24.7935
1543.42	26.4102
1544.97	27.8162
1546.52	28.965
1548.07	30.3247
1549.62	31.674
1551.17	32.9822
1552.72	33.7724
1554.27	35.4946
1555.82	36.3056
1557.37	37.0901
1558.92	38.66
1560.47	39.8243
1562.02	40.8948
1563.56	41.3162
1565.11	41.8665
1566.66	43.2703
1568.21	44.4624
1569.75	44.8968
1571.3	46.0537
1572.85	46.7673
1574.39	46.8187
1575.94	47.1812
1577.49	47.1035
1579.03	48.0827
1580.57	48.6359
1582.12	49.3593
1583.66	49.6843
1585.21	49.5963
1586.75	49.5155
1588.3	49.1123
1589.84	50.4368
1591.38	49.8973
1592.92	49.4688
1594.47	49.2903
1596.01	49.3292
1597.55	49.052
1599.09	48.2271
1600.63	47.9304
1602.17	46.8039
1603.71	46.2078
1605.25	45.6636
1606.79	45.1942
1608.33	43.9282
1609.87	43.2741
1611.41	42.2377
1612.95	41.7001
1614.49	40.2343
1616.03	39.9757
1617.57	39.5654
1619.1	38.8784
1620.64	38.3604
1622.18	37.5547
1623.72	37.5575
1625.25	36.759
1626.79	36.4561
1628.32	36.264
1629.86	36.4556
1631.39	36.3515
1632.93	36.4554
1634.46	36.2419
1636	36.7922
1637.53	37.6054
1639.07	37.2246
1640.6	37.3185
1642.13	37.6278
1643.67	38.6731
1645.2	38.2696
1646.73	38.3653
1648.26	38.1204
1649.8	38.2249
1651.33	38.5104
1652.86	39.0697
1654.39	39.1258
1655.92	39.1561
1657.45	38.8979
1658.98	39.6658
1660.51	39.3646
1662.04	39.1726
1663.57	39.0893
1665.1	38.6124
1666.63	38.0349
1668.16	36.68
1669.68	36.3693
1671.21	36.0178
1672.74	35.3266
1674.27	34.0715
1675.79	32.8414
1677.32	31.9885
1678.85	30.6792
1680.37	29.8985
1681.9	28.2346
1683.42	26.7217
1684.95	24.835
1686.47	23.6279
1688	21.9268
1689.52	20.4702
1691.05	19.6912
1692.57	18.6442
1694.09	17.2978
1695.62	15.9788
1697.14	14.8583
1698.66	13.4378
1700.18	12.7317
1701.71	11.6881
1703.23	11.1233
1704.75	10.9084
1706.27	9.99442
1707.79	8.91375
1709.31	8.89283
1710.83	7.8809
1712.35	7.23826
1713.87	6.74461
1715.39	5.59123
1716.91	5.29041
1718.43	4.50973
1719.95	4.79435
1721.47	4.03814
1722.99	4.09297
1724.5	3.34418
1726.02	3.55919
1727.54	3.82306
1729.06	3.50266
1730.57	3.38485
1732.09	3.7843
1733.61	3.39815
1735.12	3.16818
1736.64	3.15892
1738.15	3.52184
1739.67	3.23413
1741.18	3.56093
1742.7	3.63937
1744.21	3.50519
1745.72	3.5443
1747.24	3.48861
1748.75	3.32165
1750.26	2.77636
1751.77	2.9491
1753.29	3.6471
1754.8	3.93288
1756.31	4.11263
1757.82	3.714
1759.33	3.45436
1760.84	3.75757
1762.36	4.34726
1763.87	4.43441
1765.38	4.64445
1766.89	4.59853
1768.4	4.14774
1769.91	4.66713
1771.41	4.92705
1772.92	4.85907
1774.43	4.97763
1775.94	5.09013
1777.45	5.27722
1778.95	4.93428
1780.46	5.16059
1781.97	4.90045
1783.48	4.39731
1784.98	4.44397
1786.49	4.00302
1787.99	3.96003
1789.5	4.06454
1791.01	3.72466
1792.51	3.72022
1794.01	3.99851
1795.52	4.28249
1797.02	4.25216
1798.53	4.36632
1800.03	4.48518
1801.53	4.74233
1803.04	5.01695
1804.54	5.1786
1806.04	5.54117
1807.54	5.74483
1809.05	5.60518
1810.55	6.20038
1812.05	6.81036
1813.55	6.42964
1815.05	6.60266
1816.55	6.59734
1818.05	6.21322
1819.55	5.90162
1821.05	5.92117
1822.55	5.83424
1824.05	6.10378
1825.55	6.22459
1827.05	6.25931
1828.55	6.33393
1830.04	5.70653
1831.54	5.27155
1833.04	4.70944
1834.54	4.38101
1836.03	4.25154
1837.53	4.12452
1839.03	4.02533
1840.52	3.92919
1842.02	3.3068
1843.51	3.01732
1845.01	2.95557
1846.5	2.68092
1848	2.25389
1849.49	1.74168
1850.99	1.73181
1852.48	1.20563
1853.97	0.744646
1855.47	1.12903
1856.96	0.755151
1858.45	0.463733
1859.94	0.772432
1861.44	0.440128
1862.93	0.380372
1864.42	-0.00752912
1865.91	-0.100926
1867.4	0.303823
1868.89	0.905302
1870.38	0.803338
1871.87	1.66226
1873.36	1.6821
1874.85	2.12785
1876.34	2.33127
1877.83	2.94084
1879.32	4.01359
1880.81	4.57767
1882.3	4.49634
1882.57	4.58946
1884.07	4.5617
1885.56	4.48272
1887.06	4.65881
1888.55	5.18701
1890.04	4.93597
1891.54	4.64069
1893.03	4.43976
1894.52	4.365
1896.02	3.85786
1897.51	3.96698
1899	3.56927
1900.49	2.77859
1901.98	2.55552
1903.47	2.5551
1904.96	2.70666
1906.45	2.83263
1907.94	2.98397
1909.43	3.48264
1910.92	2.98246
1912.41	2.40851
1913.9	2.35434
1915.39	2.05723
1916.88	1.76157
1918.37	1.63572
1919.85	1.72139
1921.34	1.38244
1922.83	1.53472
1924.32	1.69004
1925.8	1.50754
1927.29	1.82952
1928.78	2.43811
1930.26	2.47058
1931.75	2.38722
1933.23	2.58161
1934.72	2.22793
1936.2	2.22586
1937.69	2.24891
1939.17	2.62056
1940.66	3.03305
1942.14	3.62945
1943.63	3.6314
1945.11	4.29209
1946.59	4.26167
1948.07	4.65233
1949.56	4.98006
1951.04	5.60445
1952.52	5.97327
1954	5.79769
1955.48	5.60878
1956.96	6.04309
1958.45	6.15115
1959.93	6.59079
1961.41	6.36275
1962.89	6.53727
1964.37	6.12507
1965.85	6.08597
1967.32	5.86918
1968.8	6.13885
1970.28	6.12067
1971.76	7.01898
1973.24	7.02926
1974.72	6.91357
1976.19	7.03845
1977.67	6.94617
1979.15	6.74278
1980.63	6.79556
1982.1	6.51756
1983.58	6.46012
1985.05	5.89063
1986.53	6.28186
1988	6.63569
1989.48	6.54562
1990.95	5.91558
1992.43	5.84181
1993.9	5.51271
1995.38	5.33331
1996.85	5.64307
1998.32	5.29118
1999.8	5.09843
2001.27	5.02373
2002.74	4.99455
2004.22	4.9904
2005.69	5.03286
2007.16	4.81142
2008.63	4.40925
2010.1	4.80962
2011.57	4.69205
2013.04	4.63733
2014.51	4.66087
2015.98	5.2697
2017.45	5.26963
2018.92	5.75171
2020.39	5.69451
2021.86	5.65635
2023.33	6.51252
2024.8	6.78415
2026.27	6.43945
2027.74	6.37616
2029.2	6.4209
2030.67	7.10386
2032.14	7.31065
2033.61	7.79784
2035.07	7.71673
2036.54	8.47608
2038.01	8.4388
2039.47	8.58449
2040.94	8.79254
2042.4	9.81406
2043.87	10.5925
2045.33	10.2104
2046.8	10.1554
2048.26	10.2544
2049.72	10.6968
2051.19	10.8598
2052.65	11.4525
2054.12	11.5093
2055.58	11.7479
2057.04	11.69
2058.5	11.7438
2059.97	12.0417
2061.43	12.0225
2062.89	11.9424
2064.35	11.6054
2065.81	12.0162
2067.27	12.381
2068.73	12.7575
2070.19	12.5782
2071.65	12.5021
2073.11	12.2248
2074.57	11.946
2076.03	12.4088
2077.49	12.5819
2078.95	12.3515
2080.41	12.2194
2081.87	12.2365
2083.32	12.431
2084.78	11.8905
2086.24	12.0663
2087.7	11.9057
2089.15	12.0994
2090.61	11.1157
2092.07	10.5108
2093.52	10.4214
2094.98	10.3577
2096.43	10.508
2097.89	9.44545
2099.34	8.84676
2100.8	9.34759
2102.25	9.43122
2103.71	9.28399
2105.16	8.64631
2106.61	8.854
2108.07	8.14212
2109.52	8.27036
2110.97	8.3588
2112.43	8.56851
2113.88	8.71855
2115.33	8.89123
2116.78	8.54311
2118.23	7.82126
2119.68	8.75979
2121.13	8.91391
2122.59	8.55685
2124.04	8.49175
2125.49	8.35367
2126.94	8.51507
2128.39	8.8884
2129.83	9.24901
2131.28	9.88633
2132.73	10.1315
2134.18	10.1672
2135.63	10.7198
2137.08	10.5935
2138.53	10.526
2139.97	10.783
2141.42	10.601
2142.87	11.1101
2144.31	11.6141
2145.76	11.7872
2147.21	12.0833
2148.65	12.7764
2150.1	13.2818
2151.54	13.9667
2152.99	14.6464
2154.43	15.1409
2155.88	15.6214
2157.32	16.0034
2158.77	16.8763
2160.21	17.1266
2161.65	17.3154
2163.1	17.5796
2164.54	18.1959
2165.98	18.8735
2167.43	18.9533
2168.87	18.8558
2170.31	18.2955
2171.75	18.7092
2173.19	19.1756
2174.64	18.7398
2176.07	18.3009
2177.52	18.6482
2178.96	19.2013
2180.4	19.4284
2181.84	19.7316
2183.28	19.4877
2184.72	19.0527
2186.15	18.5574
2187.59	18.5133
2189.03	18.4325
2190.47	18.0855
2191.91	17.8059
2193.35	17.0107
2194.78	16.6126
2196.22	16.858
2197.66	16.3648
2199.09	16.6307
2200.53	16.4098
2201.97	16.3032
2203.4	15.9913
2204.84	15.2557
2206.27	14.7869
2207.71	14.8161
2209.14	13.9059
2210.58	14.1477
2212.01	13.5985
2213.45	12.8136
2214.88	13.063
2216.31	12.8818
2217.75	12.9178
2219.18	12.955
2220.61	12.7099
2222.05	13.2996
2223.48	13.0897
2224.91	13.159
2226.34	12.9476
2227.78	12.6462
2229.21	12.5455
2230.64	12.4383
2232.07	11.5207
2233.5	11.5021
2234.93	11.3489
2236.36	10.7213
2237.79	10.7763
2239.22	10.6454
2240.65	10.0353
2242.08	10.0615
2243.5	9.80507
2244.93	9.62849
2246.36	9.2915
2247.79	9.6757
2249.22	10.0006
2250.64	10.0341
2252.07	9.3058
2253.5	8.72915
2254.92	8.08977
2256.35	8.21827
2257.78	8.63547
2259.2	8.79371
2260.63	8.4282
2262.05	8.31873
2263.48	8.74581
2264.9	9.00277
2266.33	9.55123
2267.75	9.95792
2269.18	9.7696
2270.6	10.0248
2272.02	10.3853
2273.45	10.2713
2274.87	9.85142
2276.29	9.02979
2277.71	8.98413
2279.14	8.76873
2280.56	8.22617
2281.98	8.17258
2283.4	7.49664
2284.82	8.37186
2286.24	8.92594
2287.66	9.10748
2289.08	8.88532
2290.5	8.10512
2291.92	7.00174
2293.34	7.01173
2294.76	6.41088
2296.18	7.04033
2297.6	7.18199
2299.02	7.09389
2300.44	7.42579
2301.86	7.81365
2303.27	8.14929
2304.69	8.52798
2306.11	8.32307
2307.53	8.4196
2308.94	9.4588
2310.36	8.849
2311.78	8.69898
2313.19	8.91228
2314.61	8.33459
2316.02	8.53614
2317.44	8.5744
2318.85	9.01695
2320.27	8.55109
2321.68	8.26196
2323.1	7.93197
2324.51	8.34727
2325.92	8.45996
2327.34	9.07126
2328.75	9.08944
2330.16	8.88112
2331.58	8.842
2332.99	9.72748
2334.4	9.71886
2335.81	9.55464
2337.23	9.2229
2338.64	8.73388
2340.05	8.05345
2341.46	7.83868
2342.87	7.48553
2344.28	6.47066
2345.69	5.92495
2347.1	5.80492
2348.51	5.476
2349.92	5.08769
2351.33	4.6242
2352.74	4.01242
2354.15	3.84931
2355.55	4.06914
2356.96	3.64645
2358.37	2.94416
2359.78	2.42834
2361.19	1.82633
2362.59	1.95231
2364	2.91745
2365.41	3.6085
2366.81	3.85119
2368.22	3.61043
2369.62	3.21187
2371.03	3.32084
2372.44	3.41264
2373.84	3.44719
2375.24	2.72461
2376.65	2.7508
2378.05	2.86052
2379.46	3.25896
2380.86	2.48919
2382.26	2.62522
2383.67	2.7004
2385.07	2.57682
2386.47	3.00887
2387.88	3.17609
2389.28	3.42394
2390.68	2.78076
2392.08	2.976
2393.48	3.12147
2394.89	3.46917
2396.29	3.35775
2397.69	3.44687
2399.09	2.84566
2400.49	3.01578
2401.89	2.82173
2403.29	2.41442
2404.69	1.72175
2406.09	1.67562
2407.48	1.66565
2408.88	1.65962
2410.28	1.77779
2411.68	2.22679
2413.08	2.3238
2414.48	2.48016
2415.87	2.83311
2417.27	2.77013
2418.67	2.45857
2420.06	2.85805
2421.46	2.67432
2422.86	2.61195
2424.25	3.38521
2425.65	3.49332
2427.04	3.5531
2428.44	3.58794
2429.83	3.59802
2431.23	3.47101
2432.62	3.98764
2434.02	3.83902
2435.41	3.64592
2436.81	3.27211
2438.2	3.5506
2439.59	3.61653
2440.99	4.04867
2442.38	4.12595
2443.77	3.6888
2445.16	3.62229
2446.56	4.48891
2447.95	4.70081
2449.34	4.59647
2450.73	4.68366
2452.12	4.50645
2453.51	4.97262
2454.9	5.06519
2456.29	5.27666
2457.68	4.94188
2459.07	4.65985
2460.46	3.96944
2461.85	3.6857
2463.24	3.50818
2464.63	3.29126
2466.02	3.18362
2467.4	3.0053
2468.79	2.90302
2470.18	2.91234
2471.57	2.82288
2472.95	2.73244
2474.34	3.41318
2475.73	3.40863
2477.12	3.60528
2478.5	3.45643
2479.89	3.89222
2481.27	3.85586
2482.66	4.12002
2484.04	4.17753
2485.43	4.56883
2486.81	4.30454
2488.2	4.29511
2489.58	4.55916
2490.97	4.4968
2492.35	4.45382
2493.73	4.49867
2495.12	3.69257
2496.5	3.6151
2497.88	3.52968
2499.27	3.35361
2500.65	3.37616
2502.03	3.25954
2503.41	2.7952
2504.79	2.40047
2506.17	2.00824
2507.56	1.77117
2508.94	1.73112
2510.32	2.01878
2511.7	1.58156
2513.08	1.27429
2514.46	1.43295
2515.84	1.03682
2517.22	0.953468
2518.59	1.10792
2519.97	1.51327
2521.35	1.22583
2522.73	1.61663
2524.11	1.61512
2525.49	1.72092
2526.86	1.56154
2528.24	1.8654
2529.62	1.88112
2530.99	2.16282
2532.37	2.09926
2533.75	1.99751
2535.12	1.74223
2536.5	1.3567
2537.88	1.66373
2539.25	1.52709
2540.63	2.13978
2542	2.03655
2543.38	2.67654
2544.75	2.23755
2546.12	2.45514
2547.5	2.61348
2548.87	2.87115
2550.24	2.96551
2551.62	3.50465
2552.99	3.47579
2554.36	3.80633
2555.74	3.61324
2557.11	3.76498
2558.48	3.88937
2559.85	3.4085
2561.22	2.70423
2562.59	2.50186
2563.96	2.06648
2565.34	2.23043
2566.71	2.33843
2568.08	2.60247
2569.45	2.38881
2570.82	2.14691
2572.18	1.9086
2573.55	1.83784
2574.92	2.13687
2576.29	2.36886
2577.66	2.48123
2579.03	2.68597
2580.4	2.47891
2581.77	2.51682
2583.13	3.12827
2584.5	3.38286
2585.87	3.86734
2587.23	4.03375
2588.6	4.06334
2589.97	4.29803
2591.33	4.25314
2592.7	4.03973
2594.06	4.2081
2595.43	3.75791
2596.79	3.74178
2598.16	3.13723
2599.52	2.73478
2600.89	2.47188
2602.25	2.26151
2603.62	1.91608
2604.98	2.0979
2606.34	2.18043
2607.71	1.84361
2609.07	1.47933
2610.43	1.3957
2611.79	1.55257
2613.16	0.734761
2614.52	0.59472
2615.88	0.712393
2617.24	0.632817
2618.6	0.658284
2619.96	0.799808
2621.32	0.607805
2622.68	0.0371742
2624.04	-0.146097
2625.4	-0.318597
2626.76	-0.468931
2628.12	-0.842717
2629.48	-1.06718
2630.84	-0.512577
2632.2	-0.671533
2633.56	-0.430076
2634.92	-0.315803
2636.28	0.208836
2637.63	0.273891
2638.99	0.0122037
2640.35	0.457169
2641.71	0.810896
2643.06	1.56443
2644.42	1.62765
2645.77	1.76985
2647.13	2.38758
2648.49	2.36812
2649.84	2.16393
2651.2	2.21842
2652.55	2.17377
2653.91	2.35779
2655.26	2.1921
2656.62	2.34837
2657.97	2.22023
2659.33	2.24296
2660.68	2.43793
2662.03	2.85335
2663.39	2.68451
2664.74	3.31178
2666.09	2.90514
2667.44	2.93458
2668.8	3.07787
2670.15	3.54477
2671.5	3.94739
2672.85	4.527
2674.2	4.71395
2675.55	4.98115
2676.91	5.36606
2678.26	5.8108
2679.61	5.34429
2680.96	5.11056
2682.31	5.18679
2683.66	5.37611
2685	5.26401
2686.35	5.11622
2687.7	5.19174
2689.05	5.15047
2690.4	5.49902
2691.75	5.63861
2693.1	5.79435
2694.44	5.51413
2695.79	5.53229
2697.14	5.51956
2698.49	5.47272
2699.83	5.29784
2701.18	5.42627
2702.52	6.02856
2703.87	6.58619
2705.22	6.76531
2706.56	6.0777
2707.91	6.19041
2709.25	6.03891
2710.6	5.98404
2711.94	4.98793
2713.29	5.18243
2714.63	4.97904
2715.97	4.54458
2717.32	4.41637
2718.66	4.25117
2720.01	4.04173
2721.35	3.78604
2722.69	3.80738
2724.03	4.12195
2725.38	3.81077
2726.72	3.85224
2728.06	3.86626
2729.4	3.6583
2730.74	3.81401
2732.08	3.96883
2733.42	3.73679
2734.76	4.43345
2736.1	5.08517
2737.44	5.36196
2738.78	5.0296
2740.12	5.07049
2741.46	5.07584
2742.8	5.10318
2744.14	5.07927
2745.48	5.11735
2746.82	5.15486
2748.16	5.61002
2749.49	5.36574
2750.83	5.50378
2752.17	5.89179
2753.51	6.00422
2754.84	6.31498
2756.18	6.39554
2757.52	6.27455
2758.85	6.07281
2760.19	6.26857
2761.53	6.25799
2762.86	6.10104
2764.2	5.7555
2765.53	5.7552
2766.87	5.95227
2768.2	5.61811
2769.54	5.65573
2770.87	5.07318
2772.2	4.23359
2773.54	3.81972
2774.87	3.86272
2776.2	3.73823
2777.54	3.57971
2778.87	2.85538
2780.2	2.86679
2781.53	2.49148
2782.87	2.48414
2784.2	2.32287
2785.53	2.02366
2786.86	2.50631
2788.19	2.37679
2789.52	2.47834
2790.85	2.02033
2792.18	1.90661
2793.51	2.13361
2794.84	2.42998
2796.17	2.22302
2797.5	2.72899
2798.83	3.13209
2800.16	3.43967
2801.49	3.7585
2802.82	3.8291
2804.15	3.81972
2805.47	4.0606
2806.8	4.78413
2808.13	5.28425
2809.46	5.56925
2810.78	6.15822
2812.11	6.47788
2813.44	6.60842
2814.76	6.95913
2816.09	7.17887
2817.42	8.07003
2818.74	8.32788
2820.07	8.41217
2821.39	8.81426
2822.72	9.63373
2824.04	9.94671
2825.37	10.2409
2826.69	10.4419
2828.02	11.0992
2829.34	11.3525
2830.66	11.7431
2831.99	12.4577
2833.31	13.0513
2834.63	13.8652
2835.96	14.5859
2837.28	15.0065
2838.6	15.802
2839.92	17.3118
2841.24	17.6174
2842.57	18.3561
2843.89	19.276
2845.21	20.2389
2846.53	22.1453
2847.85	23.5453
2849.17	25.4012
2850.49	27.2144
2851.81	29.1224
2853.13	31.5061
2854.45	33.2243
2855.77	35.1963
2857.09	37.3069
2858.41	39.5828
2859.72	41.2576
2861.04	43.1752
2862.36	44.6938
2863.68	46.8016
2865	48.3117
2866.31	49.6681
2867.63	51.5196
2868.95	53.3016
2870.26	54.6194
2871.58	56.7432
2872.9	58.1215
2874.21	59.2749
2875.53	60.5242
2876.84	61.6868
2878.16	62.5715
2879.47	63.2839
2880.79	64.682
2882.1	65.0151
2883.42	65.8507
2884.73	66.1989
2886.05	66.9526
2887.36	68.1239
2888.67	68.7432
2889.99	69.135
2891.3	69.7882
2892.61	70.6145
2893.92	71.5141
2895.24	71.6577
2896.55	72.3373
2897.86	73.6188
2899.17	74.9235
2900.48	76.0328
2901.79	77.3035
2903.11	78.7461
2904.42	80.5065
2905.73	82.2929
2907.04	83.4359
2908.35	85.272
2909.66	87.593
2910.97	90.099
2912.27	92.6926
2913.58	95.2929
2914.89	98.3618
2916.2	100.586
2917.51	103.097
2918.82	105.461
2920.13	107.015
2921.43	108.971
2922.74	110.429
2924.05	111.654
2925.35	112.152
2926.66	113.541
2927.97	114.302
2929.27	114.701
2930.58	114.791
2931.89	115.214
2933.19	115.632
2934.5	115.92
2935.8	115.997
2937.11	115.726
2938.41	114.679
2939.72	113.95
2941.02	112.983
2942.32	111.653
2943.63	110.05
2944.93	109.071
2946.24	107.959
2947.54	105.758
2948.84	104.485
2950.14	102.677
2951.45	100.906
2952.75	99.1793
2954.05	97.4738
2955.35	96.0692
2956.65	94.2934
2957.95	92.6822
2959.26	91.0551
2960.56	89.2094
2961.86	87.7845
2963.16	86.2367
2964.46	84.9537
2965.76	83.4956
2967.06	81.7404
2968.36	79.9741
2969.66	78.3241
2970.96	76.7573
2972.25	74.6771
2973.55	73.3592
2974.85	72.1354
2976.15	70.8469
2977.45	69.7888
2978.74	68.3264
2980.04	66.43
2981.34	64.4617
2982.64	62.9912
2983.93	60.5411
2985.23	58.0477
2986.52	56.1269
2987.82	53.6596
2989.12	51.5166
2990.41	49.1306
2991.71	47.7133
2993	45.7105
2994.3	43.6119
2995.59	42.4387
2996.89	40.5997
2998.18	39.0707
2999.48	37.7478
3000.77	35.7245
3002.06	33.4193
3003.36	31.8428
3004.65	29.9433
3005.94	28.8236
3007.23	27.3874
3008.53	26.3227
3009.82	25.2653
3011.11	23.5691
3012.4	22.4684
3013.69	21.6956
3014.99	21.0072
3016.28	20.1327
3017.57	19.8849
3018.86	19.7271
3020.15	18.7698
3021.44	17.9626
3022.73	17.1483
3024.02	16.2745
3025.31	15.4678
3026.6	15.2092
3027.89	15.0292
3029.18	14.9624
3030.46	14.8017
3031.75	13.8488
3033.04	13.8386
3034.33	13.4478
3035.62	13.0738
3036.9	13.0187
3038.19	13.1062
3039.48	13.3416
3040.76	13.391
3042.05	13.6297
3043.34	13.497
3044.62	13.7973
3045.91	13.963
3047.19	13.9593
3048.48	13.935
3049.77	14.0103
3051.05	14.6738
3052.34	14.7298
3053.62	14.898
3054.9	15.1733
3056.19	15.333
3057.47	15.3687
3058.76	15.2674
3060.04	14.8332
3061.32	13.7542
3062.61	13.3797
3063.89	12.9334
3065.17	12.1314
3066.45	12.057
3067.74	12.0614
3069.02	12.1016
3070.3	11.8372
3071.58	11.1296
3072.86	10.7918
3074.14	9.97105
3075.42	9.83274
3076.7	9.62957
3077.99	9.24315
3079.26	8.91111
3080.54	8.35332
3081.82	7.97714
3083.1	7.46674
3084.38	6.62559
3085.66	6.36236
3086.94	5.91693
3088.22	5.73694
3089.5	5.64521
3090.78	5.61001
3092.05	5.18235
3093.33	4.90117
3094.61	4.60873
3095.89	3.71791
3097.16	3.74713
3098.44	3.19805
3099.72	2.79637
3100.99	3.0441
3102.27	2.85484
3103.54	3.21289
3104.82	2.90933
3106.1	3.32043
3107.37	3.69807
3108.65	3.84799
3109.92	3.89512
3111.2	4.36083
3112.47	4.45074
3113.74	4.3789
3115.02	4.96374
3116.29	4.58259
3117.56	4.71196
3118.84	4.42687
3120.11	4.23263
3121.38	4.13362
3122.66	3.51338
3123.93	2.97073
3125.2	2.87976
3126.47	3.14918
3127.74	3.423
3129.01	3.59215
3130.29	3.8143
3131.56	3.31984
3132.83	2.99357
3134.1	2.35919
3135.37	2.33139
3136.64	2.26369
3137.91	1.9702
3139.18	2.13502
3140.45	1.81523
3141.72	1.51302
3142.99	1.17056
3144.26	0.740839
3145.52	0.133877
3146.79	-0.813259
3148.06	-1.79603
3149.33	-3.96949
