#Acq. time (s)=	45
#Accumulations=	2
#Range (cm-¹)=	200...3150
#Windows=	2
#Auto scanning=	Off
#Autofocus=	Off
#Macrospot=	Off
#AutoExposure=	Off
#Spike filter=	Multiple accum.
#Delay time (s)=	0
#Binning=	1
#Readout mode=	Signal
#DeNoise=	Off
#ICS correction=	On
#Dark correction=	Off
#Inst. Process=	Off
#Detector Gain=	Best Dynamic Range
#Detector ADC=	20 kHz       
#Detector temperature (°C)=	-69.85
#Instrument=	LabRAM HR Evol
#Detector=	Synapse
#Objective=	x100
#Grating=	600 gr/mm
#ND Filter=	100%
#Laser (nm)=	532 
#Hole=	100.021
#Range=	Auto
#Laser Pol.=	No
#Raman. Pol.=	No
#Laser Pol. (°)=	-0.0007625
#Raman Pol. (°)=	89.9995
#Collection=	Microscope
#StageXY=	Marzhauser
#StageZ=	Marzhauser
#X (µm)=	-2363.4
#Y (µm)=	232.5
#Z (µm)=	521.55
#Full time(mm:ss)=	3:19
#Project=	
#Sample=	
#Site=	
#Title=	Thy_10_08_42_2x_45s_532 nm_x100_100%_600 gr_mm
#Remark=	
#Date=	06.07.2022 14:47
#Acquired=	06.07.2022 14:47:24
#Base:Fit=	10.08.2022 09:46:25
#Base:Sub=	10.08.2022 09:46:49
#Filter:Polynom=	16.08.2022 10:24:56
#AxisType[0]=Intens
#AxisUnit[0]=Cnt
#AxisType[1]=Spectr
#AxisUnit[1]=1/cm
200.398	10.5431
202.213	11.9848
204.027	13.4117
205.843	14.1121
207.657	14.7817
209.47	15.011
211.283	15.7334
213.097	16.3475
214.909	17.0226
216.721	18.4008
218.533	18.4788
220.344	19.1986
222.157	19.2696
223.967	18.985
225.777	19.3334
227.587	20.1098
229.396	19.0819
231.205	18.6219
233.016	17.9848
234.824	17.9834
236.632	18.3511
238.439	17.9816
240.247	18.1168
242.053	18.3864
243.86	18.6167
245.666	19.0915
247.474	18.2944
249.279	17.6428
251.085	17.1142
252.889	16.9618
254.694	16.9865
256.498	17.5606
258.301	17.5206
260.105	17.6428
261.908	16.9532
263.71	17.5485
265.513	18.0798
267.315	18.233
269.116	18.3876
270.918	18.1633
272.718	17.1776
274.519	17.7198
276.319	16.8665
278.119	16.3842
279.918	15.3672
281.718	14.96
283.516	15.3581
285.315	15.5285
287.113	16.6545
288.911	16.2912
290.708	15.3921
292.505	15.7987
294.302	16.172
296.098	16.9576
297.894	18.0097
299.69	19.5409
301.485	20.4116
303.278	20.224
305.073	20.1428
306.867	20.2016
308.661	19.6256
310.454	19.4881
312.247	19.7491
314.04	19.7113
315.833	20.0687
317.623	19.6073
319.415	18.6009
321.206	18.6102
322.997	18.9408
324.788	19.5777
326.579	20.2553
328.367	20.0146
330.156	20.511
331.946	21.1447
333.735	20.6381
335.523	20.2716
337.31	19.9145
339.098	19.6722
340.885	19.8293
342.673	19.2076
344.458	19.0881
346.244	20.224
348.03	19.679
349.816	19.7311
351.6	19.5107
353.385	19.5088
355.17	19.0988
356.953	17.5482
358.737	16.4151
360.521	16.6756
362.304	17.1293
364.085	16.3643
365.868	15.4215
367.65	14.469
369.431	14.2939
371.212	14.5
372.994	14.7719
374.773	14.9714
376.554	15.0647
378.332	15.6135
380.112	16.0076
381.892	16.562
383.669	17.5005
385.448	17.5298
387.225	16.9444
389.003	16.0147
390.781	15.7389
392.557	14.5677
394.334	13.9746
396.109	14.0324
397.885	13.3926
399.66	12.7243
401.436	12.6305
403.211	11.953
404.984	11.7882
406.759	11.2626
408.532	10.5649
410.306	10.6181
412.078	9.97291
413.851	10.1118
415.623	9.64654
417.395	9.1439
419.166	8.2917
420.938	8.08407
422.708	7.13571
424.477	7.05806
426.248	6.6399
428.017	5.76239
429.788	5.45272
431.556	4.83995
433.326	5.1534
435.093	4.62466
436.86	3.96698
438.629	3.50646
440.395	2.86191
442.163	2.52138
443.929	2.61971
445.694	2.41147
447.461	3.87162
449.226	4.0683
450.99	3.9711
452.756	3.13976
454.52	4.12985
456.285	3.92161
458.048	5.45918
459.811	6.54266
461.573	8.19466
463.337	9.01923
465.099	9.08491
466.86	10.2403
468.623	11.4623
470.384	12.8257
472.144	13.5294
473.906	13.2969
475.666	14.0727
477.425	15.0955
479.184	16.0856
480.944	15.2243
482.703	16.4208
484.461	16.9912
486.218	17.4632
487.975	17.9529
489.734	18.2966
491.491	18.3927
493.247	18.8304
495.003	18.646
496.759	18.7078
498.516	18.3341
500.271	17.9228
502.025	17.9084
503.779	16.3021
505.533	15.8851
507.287	15.0125
509.042	15.2689
510.795	14.3477
512.547	13.5855
514.299	13.4613
516.051	12.9756
517.803	12.7751
519.554	12.6236
521.305	13.142
523.055	11.8477
524.805	11.9442
526.555	12.053
528.307	11.5065
530.056	11.1011
531.805	10.736
533.553	10.2089
535.301	10.3765
537.049	9.80291
538.797	9.76699
540.544	9.78093
542.291	9.78546
544.037	9.43533
545.783	10.2465
547.529	10.6361
549.275	10.6648
551.02	10.4172
552.765	9.88914
554.509	10.8486
556.253	11.387
557.997	10.8365
559.738	9.77378
561.482	9.73576
563.224	9.71682
564.967	9.32503
566.709	8.8064
568.451	8.90217
570.192	9.6174
571.933	8.35302
573.674	7.46767
575.415	5.676
577.153	5.4074
578.893	4.96235
580.632	4.64311
582.371	4.22837
584.11	3.93654
585.849	3.23693
587.587	2.75876
589.323	1.45168
591.06	0.861749
592.797	1.68797
594.534	1.64449
596.271	1.14699
598.005	0.963362
599.741	0.519746
601.476	1.14134
603.211	0.762637
604.944	1.0543
606.679	1.58604
608.413	2.49635
610.147	2.44226
611.878	3.42195
613.611	4.11729
615.344	3.87892
617.077	4.53078
618.807	4.91558
620.539	5.09298
622.27	6.28596
623.999	7.38567
625.73	7.69194
627.461	8.37348
629.189	8.77807
630.919	10.0311
632.648	11.0184
634.376	11.589
636.105	11.3238
637.833	12.1917
639.559	13.4349
641.287	14.8842
643.013	15.3363
644.74	15.5929
646.467	16.3557
648.192	17.1112
649.918	17.448
651.642	18.1541
653.368	18.2051
655.091	18.5106
656.816	17.7319
658.538	16.9485
660.263	17.653
661.987	18.119
663.708	19.4464
665.432	19.5104
667.153	20.1523
668.875	21.6129
670.596	21.9988
672.318	21.7225
674.037	21.8498
675.759	22.9521
677.478	23.5028
679.196	24.5523
680.917	24.8451
682.635	25.3136
684.355	26.7232
686.072	27.3243
687.791	28.3984
689.508	29.0976
691.224	29.8284
692.942	30.8484
694.658	30.9897
696.376	31.7004
698.091	31.8622
699.805	32.7585
701.522	33.0476
703.236	34.309
704.95	34.7695
706.665	35.8149
708.379	36.9306
710.093	37.4996
711.806	38.0171
713.518	39.3813
715.23	40.9138
716.943	42.0235
718.655	42.9445
720.366	43.1115
722.078	44.298
723.788	46.4082
725.498	47.5487
727.208	48.1886
728.919	49.094
730.628	49.3801
732.337	50.5919
734.045	50.6657
735.755	51.3766
737.463	51.9806
739.17	52.4561
740.877	53.6884
742.584	55.158
744.292	55.8432
745.998	57.331
747.704	59.1462
749.409	60.3619
751.114	62.074
752.819	63.8046
754.526	65.3042
756.23	66.0708
757.934	66.7806
759.637	67.8417
761.34	68.6805
763.043	68.6244
764.746	69.9023
766.448	71.2108
768.152	72.5884
769.853	73.8866
771.554	73.9808
773.255	74.5076
774.956	75.5328
776.656	75.8302
778.356	76.1284
780.056	76.1541
781.755	77.4267
783.454	78.5874
785.153	80.457
786.851	81.4717
788.549	82.246
790.247	82.0262
791.944	83.8131
793.641	84.9431
795.338	85.8306
797.034	86.7587
798.73	87.0887
800.426	87.7778
802.121	88.022
803.817	88.5512
805.511	88.8392
807.206	88.7864
808.9	89.8922
810.592	89.0889
812.286	88.5499
813.979	88.4788
815.672	87.2611
817.364	87.5441
819.057	86.6687
820.748	86.5218
822.44	86.262
824.129	86.0832
825.82	86.1813
827.511	85.7993
829.201	84.4083
830.891	84.3072
832.581	83.7227
834.269	82.0046
835.958	81.2034
837.646	79.7806
839.335	78.6517
841.023	78.0368
842.709	76.7328
844.396	75.0313
846.084	74.5469
847.77	73.4685
849.455	72.0208
851.141	71.2961
852.827	69.9583
854.513	68.321
856.196	66.9086
857.881	66.5304
859.566	65.1361
861.248	64.5304
862.932	64.2208
864.616	63.7119
866.297	64.1022
867.98	64.4264
869.663	63.5683
871.343	62.1882
873.026	61.39
874.707	61.5101
876.387	61.3939
878.068	60.3764
879.747	59.3215
881.428	58.9081
883.108	58.3576
884.786	58.4893
886.465	57.7664
888.143	57.5557
889.822	57.9157
891.498	57.6532
893.177	58.4564
894.855	57.3812
896.53	57.621
898.208	57.5532
899.883	56.7953
901.56	57.2898
903.234	56.3307
904.91	56.134
906.584	56.5528
908.26	56.5062
909.933	55.7662
911.608	55.6532
913.28	54.9758
914.955	55.1991
916.627	54.8393
918.298	54.3327
919.972	54.1705
921.643	53.5839
923.315	53.2803
924.986	52.5142
926.656	51.1746
928.328	49.9375
929.997	49.2848
931.668	48.0808
933.337	48.3046
935.006	48.0629
936.676	47.5518
938.344	47.3764
940.012	47.3775
941.681	47.3634
943.348	46.7916
945.014	46.885
946.683	46.5312
948.349	46.3308
950.015	46.6135
951.682	45.9093
953.347	45.2183
955.012	44.5441
956.676	43.0452
958.343	42.4523
960.006	42.2198
961.67	42.873
963.333	44.3285
964.998	44.8763
966.661	45.6695
968.323	46.5596
969.985	46.9937
971.649	48.6364
973.31	49.4685
974.971	49.4101
976.632	49.006
978.293	49.0604
979.953	49.4162
981.615	49.3224
983.274	48.693
984.933	48.7004
986.592	48.3973
988.251	48.5842
989.909	49.2753
991.567	48.76
993.225	48.3585
994.884	49.2123
996.541	48.0394
998.198	47.8256
999.855	46.8246
1001.51	46.2127
1003.17	45.0655
1004.82	43.7285
1006.48	42.8619
1008.13	42.4106
1009.79	41.6046
1011.44	41.0375
1013.1	40.6643
1014.75	40.9668
1016.4	40.8959
1018.06	39.3311
1019.71	39.6334
1021.36	39.4846
1023.01	38.7842
1024.66	37.9135
1026.32	36.3765
1027.97	35.7917
1029.62	35.4309
1031.27	34.7948
1032.92	33.565
1034.57	33.0307
1036.22	32.4649
1037.87	31.0197
1039.52	30.1425
1041.16	31.0709
1042.81	31.6913
1044.46	31.2731
1046.11	30.9168
1047.76	29.7366
1049.4	29.3521
1051.05	28.623
1052.7	29.2229
1054.34	29.3442
1055.99	28.1241
1057.63	27.2414
1059.28	27.0261
1060.92	26.621
1062.57	26.5822
1064.21	25.9565
1065.85	25.6238
1067.5	26.3963
1069.14	26.887
1070.78	26.9938
1072.43	27.0926
1074.07	26.357
1075.71	26.6322
1077.35	26.74
1078.99	25.6727
1080.63	25.4729
1082.27	24.3225
1083.91	23.723
1085.55	23.2388
1087.19	23.5131
1088.83	24.2271
1090.47	24.4488
1092.11	24.2069
1093.75	24.269
1095.39	24.2699
1097.03	24.9206
1098.66	25.085
1100.3	25.3786
1101.94	25.4796
1103.57	25.1334
1105.21	23.8665
1106.84	23.5478
1108.48	23.1534
1110.11	23.4045
1111.75	23.3321
1113.38	23.2826
1115.02	22.7919
1116.65	21.776
1118.29	20.7242
1119.92	19.1248
1121.55	19.0631
1123.19	18.0578
1124.82	17.188
1126.45	16.0499
1128.08	16.2206
1129.71	16.0618
1131.34	15.9116
1132.97	16.0487
1134.6	16.647
1136.23	15.4491
1137.86	14.7248
1139.49	15.2713
1141.12	15.5172
1142.75	15.4326
1144.38	16.0063
1146.01	15.7837
1147.64	15.3022
1149.26	15.3483
1150.89	13.9351
1152.52	13.2349
1154.15	12.9053
1155.77	12.2547
1157.4	12.0984
1159.02	11.7055
1160.65	10.7354
1162.27	10.2339
1163.9	9.40978
1165.52	9.28774
1167.15	10.2263
1168.77	10.8816
1170.39	10.7493
1172.02	10.06
1173.64	10.6104
1175.26	10.5876
1176.89	12.1071
1178.51	12.2524
1180.13	12.8429
1181.75	13.2667
1183.37	13.6538
1184.99	14.5584
1186.61	14.7582
1188.23	15.7736
1189.85	16.6066
1191.47	17.4219
1193.09	18.5526
1194.71	18.795
1196.33	19.087
1197.94	19.0687
1199.56	20.1024
1201.18	20.4335
1202.8	22.1526
1204.41	22.3323
1206.03	23.7896
1207.65	25.6542
1209.26	27.588
1210.88	28.6072
1212.49	29.7797
1214.11	31.6481
1215.72	33.4491
1217.34	34.8447
1218.95	36.8083
1220.57	38.6821
1222.18	39.6543
1223.79	40.206
1225.41	40.9514
1227.02	41.8235
1228.63	42.729
1230.24	43.7935
1231.85	44.8948
1233.47	46.4693
1235.08	46.3847
1236.69	47.3878
1238.3	48.1806
1239.91	49.0712
1241.52	49.4086
1243.13	49.465
1244.74	49.9024
1246.34	50.9618
1247.95	51.799
1249.56	51.3858
1251.17	50.8006
1252.78	50.8446
1254.38	50.9113
1255.99	51.4448
1257.6	52.5246
1259.2	51.429
1260.81	52.1253
1262.42	52.3739
1264.02	52.5046
1265.63	52.0875
1267.23	51.5926
1268.84	51.4477
1270.44	50.8752
1272.04	50.7768
1273.65	50.7062
1275.25	50.7723
1276.85	50.4498
1278.46	50.7522
1280.06	51.3289
1281.66	52.4839
1283.26	53.0285
1284.86	54.1195
1286.46	55.3076
1288.07	56.2541
1289.67	57.1121
1291.27	57.971
1292.87	58.855
1294.47	59.8436
1296.06	60.5429
1297.66	61.0845
1299.26	62.5278
1300.86	62.871
1302.46	63.9914
1304.06	64.7658
1305.65	66.5268
1307.25	67.7256
1308.85	68.9982
1310.44	70.482
1312.04	71.4382
1313.64	71.6852
1315.23	71.6437
1316.83	72.3968
1318.42	71.7383
1320.02	71.6882
1321.61	71.4846
1323.2	71.249
1324.8	71.4088
1326.39	71.0505
1327.99	69.9156
1329.58	69.3887
1331.17	68.5074
1332.76	67.5365
1334.36	66.2913
1335.95	65.88
1337.54	64.7461
1339.13	63.1871
1340.72	62.6945
1342.31	61.5198
1343.9	59.7026
1345.49	58.4848
1347.08	57.0057
1348.67	55.9324
1350.26	55.1812
1351.85	54.7489
1353.43	53.5541
1355.02	52.4986
1356.61	51.1695
1358.2	50.0675
1359.78	48.9503
1361.37	48.5056
1362.96	46.9895
1364.54	46.3466
1366.13	44.3527
1367.71	43.788
1369.3	42.3885
1370.88	40.9327
1372.47	39.5862
1374.05	39.2019
1375.64	39.023
1377.22	39.2216
1378.8	39.4024
1380.39	38.3288
1381.97	38.3902
1383.55	37.2318
1385.13	37.075
1386.72	36.567
1388.3	35.9095
1389.88	35.1763
1391.46	34.622
1393.04	34.2043
1394.62	33.5001
1396.2	33.0629
1397.78	31.7022
1399.36	32.0839
1400.94	32.7224
1402.52	32.9236
1404.1	32.7969
1405.68	32.806
1407.25	33.8315
1408.83	34.7821
1410.41	34.8457
1411.98	35.923
1413.56	36.8721
1415.14	38.762
1416.71	40.8524
1418.29	42.2727
1419.87	44.3912
1421.44	47.0356
1423.02	49.1143
1424.59	51.8236
1426.16	53.5944
1427.74	56.6448
1429.31	58.7915
1430.89	61.0649
1432.46	62.9074
1434.03	65.0806
1435.6	67.2062
1437.18	69.5602
1438.75	71.6368
1440.32	72.4948
1441.89	73.0707
1443.46	73.8249
1445.03	74.4081
1446.6	75.5112
1448.17	75.4064
1449.74	75.2727
1451.31	74.6521
1452.88	74.3569
1454.45	74.0736
1456.02	72.8773
1457.59	70.9288
1459.16	68.7436
1460.72	66.6392
1462.29	64.6813
1463.86	63.2265
1465.43	60.7198
1466.99	58.4426
1468.56	56.3594
1470.13	54.1328
1471.69	50.4296
1473.26	47.1581
1474.82	44.2072
1476.38	41.174
1477.95	39.7856
1479.51	37.6292
1481.08	35.0332
1482.64	32.1605
1484.2	29.5545
1485.77	27.7015
1487.33	25.3715
1488.89	23.2095
1490.46	21.5255
1492.02	20.9231
1493.58	20.8475
1495.14	19.6526
1496.7	18.1986
1498.26	18.3257
1499.82	17.3506
1501.38	16.3115
1502.94	16.0737
1504.5	15.7581
1506.06	15.9361
1507.62	15.4483
1509.18	15.3295
1510.73	14.2873
1512.29	14.2366
1513.85	14.514
1515.41	15.0293
1516.96	14.0546
1518.52	14.2031
1520.08	15.2597
1521.63	16.1674
1523.19	16.8685
1524.75	18.0047
1526.3	18.1505
1527.85	18.334
1529.41	19.6437
1530.96	21.5548
1532.52	22.9591
1534.07	23.7917
1535.62	24.6504
1537.18	25.5086
1538.73	26.7801
1540.28	28.3251
1541.84	29.3929
1543.39	30.3274
1544.94	32.1242
1546.49	32.701
1548.04	33.4583
1549.59	34.3825
1551.14	36.2529
1552.69	38.2914
1554.25	39.4366
1555.79	40.6658
1557.34	42.3927
1558.89	42.9594
1560.44	43.6645
1561.99	45.36
1563.54	47.2515
1565.08	48.2606
1566.63	49.1455
1568.18	50.3537
1569.73	52.1957
1571.27	52.8767
1572.82	53.3318
1574.37	54.6117
1575.91	55.9145
1577.46	56.6676
1579	57.5903
1580.55	58.1582
1582.09	58.7427
1583.64	59.315
1585.18	59.6704
1586.73	60.3428
1588.27	61
1589.81	62.5294
1591.35	63.0974
1592.9	63.0828
1594.44	62.318
1595.98	62.3583
1597.52	62.3891
1599.06	62.3479
1600.61	62.1754
1602.15	61.8347
1603.69	61.101
1605.23	60.8637
1606.77	60.1418
1608.31	59.6668
1609.85	58.6319
1611.39	57.7567
1612.93	56.8062
1614.46	55.9459
1616	55.7612
1617.54	55.1173
1619.08	55.2001
1620.61	55.1488
1622.15	55.118
1623.69	55.2041
1625.23	55.7454
1626.76	56.5814
1628.3	57.4803
1629.83	58.1718
1631.37	58.0069
1632.9	58.0468
1634.44	59.4256
1635.97	60.4942
1637.51	61.4131
1639.04	63.1898
1640.57	64.6643
1642.11	66.1753
1643.64	67.1141
1645.17	68.845
1646.71	70.9202
1648.24	72.1948
1649.77	73.1929
1651.3	73.6602
1652.83	74.6936
1654.36	75.7881
1655.89	75.8291
1657.42	76.7114
1658.96	76.7686
1660.48	76.3441
1662.01	76.2144
1663.54	75.8527
1665.07	74.6453
1666.6	73.3477
1668.13	71.3497
1669.66	69.8608
1671.19	68.2622
1672.71	66.3571
1674.24	65.1821
1675.77	63.4956
1677.29	61.1033
1678.82	58.3996
1680.35	56.1921
1681.87	53.5507
1683.4	50.6093
1684.92	48.495
1686.45	46.1859
1687.97	43.1783
1689.5	41.1652
1691.02	38.324
1692.54	35.9396
1694.07	33.3043
1695.59	31.1722
1697.11	28.5922
1698.64	25.6245
1700.16	23.5681
1701.68	20.8946
1703.2	19.04
1704.72	17.4598
1706.25	15.4013
1707.77	13.2144
1709.29	12.3241
1710.81	12.1833
1712.33	10.8078
1713.85	9.54134
1715.37	9.45221
1716.89	8.51804
1718.41	7.74732
1719.92	6.97879
1721.44	7.23664
1722.96	6.68718
1724.48	6.22323
1725.99	6.11742
1727.51	6.52719
1729.03	6.90831
1730.55	6.41479
1732.06	5.78336
1733.58	5.91783
1735.09	5.68311
1736.61	5.33507
1738.13	5.41472
1739.64	4.99152
1741.15	4.71544
1742.67	4.61366
1744.18	4.90869
1745.7	5.01539
1747.21	4.62397
1748.72	4.41846
1750.24	4.71856
1751.75	4.46202
1753.26	4.37834
1754.77	4.46114
1756.29	4.46885
1757.8	3.78102
1759.31	3.72036
1760.82	4.21721
1762.33	3.78996
1763.84	3.26249
1765.35	3.24201
1766.86	2.14257
1768.37	1.66843
1769.88	1.26405
1771.39	1.14616
1772.9	0.92327
1774.4	0.655848
1775.91	0.651927
1777.42	0.257405
1778.93	0.581435
1780.44	0.270267
1781.94	-0.154449
1783.45	-0.318122
1784.96	0.597049
1786.46	0.792235
1787.97	0.780476
1789.47	1.51993
1790.98	2.08751
1792.48	2.02878
1793.99	2.55296
1795.49	2.7598
1797	3.01031
1798.5	3.37549
1800.01	3.88949
1801.51	3.89424
1803.01	4.03678
1804.51	3.33806
1806.02	3.25119
1807.52	3.45178
1809.02	3.53044
1810.52	3.42975
1812.02	3.04137
1813.52	2.91934
1815.02	2.78199
1816.53	2.78134
1818.03	2.33903
1819.52	2.88742
1821.02	2.57537
1822.52	2.37431
1824.02	2.43582
1825.52	2.44776
1827.02	2.85602
1828.52	2.8698
1830.02	2.91473
1831.51	2.65399
1833.01	2.3605
1834.51	2.89115
1836.01	2.68621
1837.5	2.67177
1839	3.12135
1840.49	3.17708
1841.99	2.70462
1843.49	2.48253
1844.98	2.39174
1846.48	2.2938
1847.97	2.12468
1849.47	1.78997
1850.96	1.54113
1852.45	1.59668
1853.95	1.37183
1855.44	1.17161
1856.93	1.21906
1858.42	0.943877
1859.92	0.986112
1861.41	0.805899
1862.9	0.886931
1864.39	0.910083
1865.88	0.626637
1867.38	0.422124
1868.87	0.271102
1870.36	0.361683
1871.85	0.0260981
1873.34	-0.383667
1874.83	-0.504416
1876.32	-0.486661
1877.81	-0.800579
1879.29	-1.26635
1880.78	-1.03153
1882.27	-0.584522
1882.53	-0.775716
1884.03	-0.351602
1885.52	-0.415401
1887.01	-0.199143
1888.51	0.13518
1890	0.361064
1891.5	0.305614
1892.99	0.6385
1894.48	0.534061
1895.97	0.569286
1897.47	0.580624
1898.96	1.21464
1900.45	1.46911
1901.94	1.2155
1903.43	1.45108
1904.92	1.36949
1906.41	1.75627
1907.9	2.62247
1909.39	2.80756
1910.88	3.06372
1912.37	3.60352
1913.86	3.44225
1915.35	3.03094
1916.84	3.97052
1918.33	4.08809
1919.81	4.47388
1921.3	5.06408
1922.79	4.84812
1924.28	4.85711
1925.76	4.94967
1927.25	5.51081
1928.73	5.77904
1930.22	5.49355
1931.71	5.56461
1933.19	5.91829
1934.68	6.21692
1936.16	6.38877
1937.65	6.53645
1939.13	6.5848
1940.62	7.31196
1942.1	7.12345
1943.58	7.03652
1945.07	6.59429
1946.55	6.97939
1948.03	7.48047
1949.51	7.17791
1951	7.05492
1952.48	7.42779
1953.96	7.49979
1955.44	7.74523
1956.92	7.36796
1958.4	7.78551
1959.88	7.50768
1961.36	7.27549
1962.84	7.07905
1964.32	6.57766
1965.8	6.31567
1967.28	6.22435
1968.76	6.25994
1970.24	5.89473
1971.72	5.7542
1973.2	6.44096
1974.67	6.20531
1976.15	6.07971
1977.63	6.06795
1979.1	6.31987
1980.58	6.68012
1982.06	6.52091
1983.54	6.35103
1985.01	6.74927
1986.49	7.16103
1987.96	7.06561
1989.44	7.36477
1990.91	7.90615
1992.39	8.05283
1993.86	8.27454
1995.33	8.04039
1996.81	7.79394
1998.28	8.26916
1999.75	8.41695
2001.23	8.84955
2002.7	8.53886
2004.17	8.87959
2005.65	9.23268
2007.12	9.53513
2008.59	9.88894
2010.06	9.74932
2011.53	9.81464
2013	10.1892
2014.47	10.0223
2015.94	9.21216
2017.41	9.42933
2018.88	9.05687
2020.35	9.16115
2021.82	9.14153
2023.29	8.86762
2024.76	9.28949
2026.23	8.8273
2027.69	8.79457
2029.16	8.78144
2030.63	8.54868
2032.1	8.52861
2033.56	7.83506
2035.03	7.98798
2036.5	8.21541
2037.96	8.06304
2039.43	8.84149
2040.89	8.73501
2042.36	9.3599
2043.83	9.74673
2045.29	10.1865
2046.75	10.5411
2048.22	10.4259
2049.68	11.0372
2051.15	11.671
2052.61	11.8758
2054.07	11.8742
2055.54	12.1987
2057	12.3919
2058.46	12.6235
2059.92	12.3144
2061.39	12.4702
2062.85	12.5731
2064.31	13.1396
2065.77	13.5567
2067.23	12.8781
2068.69	12.7458
2070.15	13.1886
2071.61	13.6706
2073.07	14.3424
2074.53	14.6109
2075.99	14.9422
2077.45	15.077
2078.91	15.0459
2080.37	15.3905
2081.82	15.4023
2083.28	15.3426
2084.74	15.8694
2086.2	15.288
2087.65	15.0141
2089.11	15.0303
2090.57	15.429
2092.02	14.727
2093.48	15.4371
2094.94	15.5326
2096.39	15.2099
2097.85	15.2339
2099.3	14.5629
2100.76	14.5906
2102.21	14.4639
2103.66	14.306
2105.12	14.4826
2106.57	14.6458
2108.03	15.4215
2109.48	16.3692
2110.93	16.9744
2112.38	17.595
2113.84	17.9095
2115.29	18.5543
2116.74	18.854
2118.19	19.2032
2119.64	19.8414
2121.09	20.0894
2122.54	20.6247
2123.99	20.8739
2125.45	20.5909
2126.89	21.2357
2128.34	21.9241
2129.79	21.6889
2131.24	22.3573
2132.69	22.9273
2134.14	23.4517
2135.59	24.3509
2137.04	25.5946
2138.48	25.5796
2139.93	26.016
2141.38	27.1353
2142.83	28.0611
2144.27	28.8362
2145.72	29.1691
2147.17	29.3023
2148.61	29.9177
2150.06	30.3349
2151.5	30.8385
2152.95	31.4427
2154.39	31.8456
2155.84	32.1611
2157.28	32.8989
2158.73	32.9661
2160.17	34.0907
2161.61	33.9854
2163.06	34.3588
2164.5	34.2109
2165.94	34.1737
2167.38	33.5859
2168.83	33.5267
2170.27	33.5363
2171.71	33.8194
2173.15	34.8381
2174.59	34.8662
2176.03	35.0554
2177.47	35.4367
2178.91	35.252
2180.36	35.6122
2181.8	35.6119
2183.23	34.2279
2184.67	33.6828
2186.11	33.4508
2187.55	33.0043
2188.99	32.9567
2190.43	32.6935
2191.87	32.6305
2193.3	32.1511
2194.74	32.0142
2196.18	31.6465
2197.62	30.8548
2199.05	30.593
2200.49	29.8211
2201.93	28.3272
2203.36	27.7732
2204.8	26.9827
2206.23	26.4383
2207.67	26.6478
2209.1	25.9657
2210.54	24.7929
2211.97	24.5835
2213.41	23.555
2214.84	22.8876
2216.27	22.4014
2217.71	21.7707
2219.14	21.6237
2220.57	21.2697
2222.01	20.7341
2223.44	20.553
2224.87	20.5317
2226.3	20.2998
2227.73	19.865
2229.16	19.674
2230.6	19.1375
2232.03	19.1639
2233.46	18.6764
2234.89	18.6054
2236.32	18.2369
2237.75	17.6329
2239.18	17.7744
2240.61	18.5934
2242.03	18.6462
2243.46	18.4692
2244.89	18.1841
2246.32	17.4154
2247.75	17.13
2249.17	16.4238
2250.6	16.0084
2252.03	16.1073
2253.46	15.6501
2254.88	15.7898
2256.31	16.5423
2257.73	16.7501
2259.16	16.917
2260.59	16.9051
2262.01	16.8965
2263.44	16.5911
2264.86	16.2682
2266.29	16.2666
2267.71	16.4093
2269.14	16.1022
2270.56	16.1564
2271.98	15.3814
2273.4	15.0037
2274.83	15.6534
2276.25	15.6371
2277.67	15.9985
2279.09	16.09
2280.52	15.5087
2281.94	15.1631
2283.36	14.9339
2284.78	15.0446
2286.2	15.5741
2287.62	15.5306
2289.04	14.883
2290.46	15.0929
2291.88	14.1626
2293.3	14.4528
2294.72	15.4392
2296.14	15.9478
2297.56	16.1428
2298.98	16.2091
2300.4	16.3236
2301.82	16.4683
2303.23	16.4007
2304.65	15.7581
2306.07	15.5222
2307.49	15.5155
2308.9	15.2499
2310.32	15.4256
2311.73	15.3336
2313.15	14.6074
2314.57	14.4915
2315.98	14.5596
2317.4	14.0558
2318.81	13.7059
2320.23	13.3743
2321.64	13.1317
2323.06	13.0565
2324.47	12.5753
2325.88	12.4822
2327.3	12.2943
2328.71	11.5394
2330.12	10.9763
2331.54	10.0482
2332.95	9.25694
2334.36	8.49992
2335.77	8.30721
2337.18	8.13447
2338.6	7.37228
2340.01	6.84931
2341.42	6.2383
2342.83	5.22722
2344.24	5.08375
2345.65	4.81003
2347.06	4.30288
2348.47	4.07427
2349.88	3.526
2351.29	2.97011
2352.7	2.76007
2354.1	3.20478
2355.51	3.52873
2356.92	3.3769
2358.33	3.52552
2359.74	3.37949
2361.14	3.95524
2362.55	4.11857
2363.96	5.59242
2365.36	5.45751
2366.77	5.47725
2368.18	5.18945
2369.58	5.10515
2370.99	5.15051
2372.39	5.39099
2373.8	6.07091
2375.2	6.7212
2376.61	7.59609
2378.01	8.25681
2379.42	8.59586
2380.82	8.47805
2382.22	8.57983
2383.63	8.61971
2385.03	8.8415
2386.43	8.94061
2387.84	9.17004
2389.24	9.7111
2390.64	9.64885
2392.04	10.4375
2393.44	10.6309
2394.84	10.6607
2396.25	10.5195
2397.65	10.6776
2399.05	9.99219
2400.45	9.92368
2401.85	9.90376
2403.25	9.88918
2404.65	10.1999
2406.05	10.9226
2407.45	10.5763
2408.84	10.4556
2410.24	10.664
2411.64	10.1136
2413.04	10.4052
2414.44	10.4938
2415.83	10.2352
2417.23	10.4461
2418.63	10.0724
2420.02	10.2527
2421.42	10.2445
2422.82	10.1778
2424.21	10.1271
2425.61	9.698
2427	9.49471
2428.4	9.39561
2429.8	8.62201
2431.19	8.0858
2432.58	8.22414
2433.98	7.71071
2435.37	6.98846
2436.77	6.89507
2438.16	7.04325
2439.55	7.39837
2440.95	7.31586
2442.34	7.04791
2443.73	6.972
2445.12	6.49295
2446.51	5.69895
2447.91	5.33877
2449.3	4.46068
2450.69	3.94296
2452.08	3.6005
2453.47	3.51857
2454.86	4.07904
2456.25	4.20661
2457.64	4.50347
2459.03	4.32155
2460.42	3.66604
2461.81	3.47613
2463.2	3.01008
2464.59	2.88164
2465.98	2.75702
2467.36	2.95211
2468.75	3.06915
2470.14	2.9265
2471.53	2.64308
2472.92	2.49119
2474.3	2.39522
2475.69	2.43192
2477.08	2.4498
2478.46	2.31743
2479.85	2.0363
2481.23	1.52181
2482.62	1.74352
2484	1.30231
2485.39	1.363
2486.77	1.45318
2488.16	1.17158
2489.54	1.13386
2490.93	1.04674
2492.31	0.543266
2493.69	0.717302
2495.08	0.616533
2496.46	0.489724
2497.84	0.334768
2499.23	-0.0599106
2500.61	0.118234
2501.99	0.43407
2503.37	-0.00864704
2504.75	0.0871328
2506.13	0.511278
2507.52	0.684382
2508.9	0.170892
2510.28	-0.399552
2511.66	-0.47987
2513.04	-0.127962
2514.42	0.379207
2515.8	0.128191
2517.18	0.414211
2518.55	-0.305351
2519.93	0.526952
2521.31	0.553249
2522.69	1.0841
2524.07	1.61135
2525.45	1.48087
2526.82	2.05242
2528.2	1.87951
2529.58	2.33349
2530.95	2.81807
2532.33	3.7443
2533.71	3.78927
2535.08	3.83831
2536.46	4.21667
2537.84	4.69993
2539.21	4.45578
2540.59	4.66266
2541.96	4.70357
2543.34	4.4287
2544.71	4.56951
2546.08	4.5216
2547.46	3.98355
2548.83	4.27383
2550.2	3.78907
2551.58	3.98103
2552.95	3.90219
2554.32	3.60477
2555.7	3.581
2557.07	3.75252
2558.44	3.3524
2559.81	3.22555
2561.18	2.74411
2562.55	2.9425
2563.93	2.61549
2565.3	2.3033
2566.67	2.21879
2568.04	2.07489
2569.41	2.30513
2570.78	1.98464
2572.15	1.69518
2573.51	1.54292
2574.88	1.15287
2576.25	1.15673
2577.62	1.22592
2578.99	1.25938
2580.36	1.7677
2581.73	1.70645
2583.09	1.44512
2584.46	1.15086
2585.83	1.35476
2587.19	1.47246
2588.56	2.29079
2589.93	1.92984
2591.29	1.79429
2592.66	1.9907
2594.02	2.04303
2595.39	2.1489
2596.75	2.06003
2598.12	1.77473
2599.48	1.76949
2600.85	1.70327
2602.21	1.19601
2603.58	1.08133
2604.94	1.11459
2606.3	0.66293
2607.67	0.400146
2609.03	-0.143533
2610.39	-0.320127
2611.76	-0.212818
2613.12	-0.347458
2614.48	-0.0334834
2615.84	-0.313662
2617.2	-0.721698
2618.56	-0.784614
2619.92	-0.53311
2621.28	-1.05678
2622.65	-1.25905
2624.01	-1.00582
2625.37	-0.904841
2626.72	-1.13425
2628.08	-0.659437
2629.44	-0.796484
2630.8	-0.624943
2632.16	-0.374966
2633.52	-0.401189
2634.88	-0.281378
2636.24	-0.349378
2637.59	-0.209712
2638.95	-0.516797
2640.31	-0.0544192
2641.67	0.0588835
2643.02	0.4964
2644.38	1.25579
2645.74	1.1911
2647.09	1.28016
2648.45	1.59965
2649.8	1.45007
2651.16	2.04107
2652.51	2.48327
2653.87	2.18991
2655.22	2.08766
2656.58	1.7123
2657.93	1.64725
2659.29	1.10303
2660.64	1.41484
2661.99	1.53413
2663.35	1.6122
2664.7	1.64361
2666.05	1.5856
2667.41	2.01589
2668.76	1.95934
2670.11	2.31839
2671.46	2.04591
2672.81	1.7884
2674.16	1.80324
2675.51	1.93694
2676.87	1.85186
2678.22	2.2327
2679.57	2.42246
2680.92	1.97847
2682.27	2.07873
2683.62	1.82073
2684.97	1.82395
2686.31	1.71848
2687.66	1.50387
2689.01	1.14968
2690.36	1.3974
2691.71	1.73091
2693.06	2.20848
2694.4	2.52059
2695.75	2.54407
2697.1	2.84578
2698.45	3.69377
2699.79	4.15108
2701.14	4.04403
2702.49	3.87633
2703.83	4.46226
2705.18	4.8278
2706.52	4.92998
2707.87	5.40904
2709.21	5.66807
2710.56	6.12761
2711.9	6.05269
2713.25	6.20047
2714.59	6.72802
2715.94	7.72424
2717.28	8.23734
2718.62	8.76667
2719.97	8.72276
2721.31	8.47873
2722.65	9.17809
2723.99	9.57289
2725.34	10.3936
2726.68	10.7956
2728.02	12.0573
2729.36	12.6886
2730.7	12.7298
2732.04	13.0771
2733.39	13.471
2734.73	13.281
2736.07	13.2462
2737.41	13.2219
2738.75	12.5966
2740.08	12.9896
2741.43	13.0979
2742.76	13.0639
2744.1	13.3615
2745.44	13.2991
2746.78	12.9875
2748.12	12.6808
2749.46	12.2605
2750.79	11.6958
2752.13	10.5314
2753.47	10.1967
2754.81	9.98987
2756.14	9.68149
2757.48	9.56203
2758.81	9.46175
2760.15	9.10295
2761.49	8.53385
2762.82	8.22819
2764.16	8.36636
2765.49	7.57388
2766.83	6.91196
2768.16	6.22258
2769.5	5.63664
2770.83	5.45701
2772.16	4.22986
2773.5	3.93683
2774.83	3.76216
2776.17	3.49333
2777.5	3.33763
2778.83	3.38224
2780.16	3.48411
2781.5	3.40057
2782.83	3.41103
2784.16	3.34859
2785.49	3.25577
2786.82	3.16557
2788.15	3.01469
2789.49	3.10297
2790.82	2.99864
2792.15	3.69632
2793.48	4.03814
2794.81	4.1186
2796.14	4.28906
2797.46	4.63342
2798.79	4.75666
2800.12	4.50958
2801.45	4.42889
2802.78	4.68054
2804.11	5.14358
2805.44	5.28363
2806.76	5.66432
2808.09	4.9562
2809.42	4.85655
2810.75	4.9817
2812.07	4.24168
2813.4	3.94653
2814.73	3.95885
2816.05	3.88075
2817.38	4.33778
2818.7	5.26758
2820.03	6.66488
2821.36	7.99955
2822.68	9.34949
2824.01	10.5837
2825.33	12.5227
2826.65	14.0847
2827.98	15.8229
2829.3	17.8399
2830.63	19.8369
2831.95	21.6561
2833.27	24.1254
2834.6	26.1624
2835.92	28.4117
2837.24	31.3406
2838.56	34.5023
2839.88	38.6776
2841.21	42.0404
2842.53	46.1651
2843.85	50.8065
2845.17	55.116
2846.49	59.1928
2847.81	63.9732
2849.13	69.229
2850.45	74.347
2851.77	79.2055
2853.09	84.7727
2854.41	90.2844
2855.73	95.6351
2857.05	100.943
2858.37	106.135
2859.69	111.061
2861	115.728
2862.32	120.215
2863.64	123.524
2864.96	127.062
2866.28	130.504
2867.59	133.869
2868.91	137.405
2870.23	140.161
2871.54	142.064
2872.86	143.698
2874.17	145.692
2875.49	148.045
2876.81	149.83
2878.12	151.278
2879.44	153.759
2880.75	156.03
2882.07	158.262
2883.38	159.567
2884.69	161.542
2886.01	162.595
2887.32	164.169
2888.63	165.45
2889.95	166.659
2891.26	168.908
2892.57	170.296
2893.89	171.982
2895.2	174.445
2896.51	176.814
2897.82	179.547
2899.13	182.787
2900.44	186.308
2901.76	189.898
2903.07	194.586
2904.38	198.675
2905.69	203.389
2907	208.574
2908.31	214.539
2909.62	220.207
2910.93	226.209
2912.24	232.465
2913.55	239.187
2914.85	245.67
2916.16	251.479
2917.47	257.606
2918.78	262.695
2920.09	266.948
2921.4	270.539
2922.7	273.949
2924.01	277.196
2925.32	279.739
2926.62	280.883
2927.93	281.598
2929.24	281.827
2930.54	281.812
2931.85	280.757
2933.15	279.171
2934.46	277.432
2935.76	274.583
2937.07	271.963
2938.37	268.604
2939.68	266.123
2940.98	262.076
2942.29	258.273
2943.59	254.608
2944.89	250.693
2946.2	245.741
2947.5	240.152
2948.8	234.989
2950.11	229.972
2951.41	224.328
2952.71	219.286
2954.01	214.391
2955.32	209.359
2956.62	204.491
2957.92	199.183
2959.22	194.068
2960.52	189.43
2961.82	184.62
2963.12	180.229
2964.42	175.655
2965.72	171.309
2967.02	167.274
2968.32	163.574
2969.62	159.663
2970.92	156.785
2972.22	153.673
2973.51	150.603
2974.81	147.527
2976.11	144.428
2977.41	140.956
2978.71	137.646
2980	133.993
2981.3	130
2982.6	126.036
2983.9	121.543
2985.19	117.298
2986.49	112.869
2987.78	108.559
2989.08	104.233
2990.38	99.5376
2991.67	95.0024
2992.97	90.3991
2994.26	85.7937
2995.56	81.3905
2996.85	77.5932
2998.14	73.3271
2999.44	69.6934
3000.73	66.1964
3002.03	62.742
3003.32	59.2354
3004.61	56.6763
3005.91	53.0394
3007.2	50.5899
3008.49	48.1164
3009.78	45.2368
3011.07	42.2012
3012.37	39.4423
3013.66	37.8479
3014.95	35.6253
3016.24	33.9767
3017.53	32.3366
3018.82	30.6458
3020.11	29.0379
3021.4	27.8447
3022.69	26.758
3023.98	25.5341
3025.27	24.4142
3026.56	23.0457
3027.85	22.3121
3029.14	21.5225
3030.43	21.1152
3031.71	20.8856
3033	20.3915
3034.29	20.6323
3035.58	20.8203
3036.87	20.8473
3038.15	21.5093
3039.44	22.0347
3040.73	22.7583
3042.01	23.6655
3043.3	24.4232
3044.59	25.0011
3045.87	25.4017
3047.16	26.1163
3048.44	26.9892
3049.73	27.6372
3051.01	28.1759
3052.3	28.5764
3053.58	29.3073
3054.87	29.6659
3056.15	29.5934
3057.43	29.0564
3058.72	29.2693
3060	29.1344
3061.29	28.9145
3062.57	28.0662
3063.85	27.4471
3065.13	26.918
3066.42	26.2587
3067.7	25.2619
3068.98	24.6565
3070.26	23.679
3071.54	22.8721
3072.82	21.5759
3074.11	19.8418
3075.39	18.0477
3076.67	16.8622
3077.95	15.9268
3079.23	14.2801
3080.51	12.9523
3081.79	11.2178
3083.07	9.68075
3084.35	8.93511
3085.63	7.93344
3086.9	6.06591
3088.18	4.68864
3089.46	3.3372
3090.74	2.07027
3092.02	1.68543
3093.29	1.15847
3094.57	0.962213
3095.85	0.40942
3097.13	-0.0889213
3098.4	0.0348644
3099.68	0.0362434
3100.95	0.168456
3102.23	0.396723
3103.51	0.65237
3104.78	0.215341
3106.06	0.0580621
3107.33	-0.0512652
3108.61	0.461915
3109.88	0.621726
3111.16	1.39868
3112.43	1.39664
3113.71	1.77471
3114.98	1.73513
3116.25	2.43271
3117.53	2.83755
3118.8	2.83406
3120.07	2.69312
3121.35	2.90834
3122.62	3.34229
3123.89	3.26461
3125.16	3.20928
3126.44	3.0295
3127.71	3.03523
3128.98	3.22868
3130.25	3.24421
3131.52	2.85616
3132.79	2.90074
3134.06	2.26453
3135.33	1.74671
3136.6	1.3015
3137.87	0.947679
3139.14	0.578736
3140.41	0.571233
3141.68	0.23358
3142.95	-0.280383
3144.22	-0.838692
3145.49	-1.38202
3146.76	-2.28662
3148.02	-3.46008
3149.29	-3.89328
