#Acq. time (s)=	45
#Accumulations=	2
#Range (cm-¹)=	200...3150
#Windows=	2
#Auto scanning=	Off
#Autofocus=	Off
#Macrospot=	Off
#AutoExposure=	Off
#Spike filter=	Multiple accum.
#Delay time (s)=	0
#Binning=	1
#Readout mode=	Signal
#DeNoise=	Off
#ICS correction=	On
#Dark correction=	Off
#Inst. Process=	Off
#Detector Gain=	Best Dynamic Range
#Detector ADC=	20 kHz       
#Detector temperature (°C)=	-69.85
#Instrument=	LabRAM HR Evol
#Detector=	Synapse
#Objective=	x100
#Grating=	600 gr/mm
#ND Filter=	100%
#Laser (nm)=	532 
#Hole=	100.021
#Range=	Auto
#Laser Pol.=	No
#Raman. Pol.=	No
#Laser Pol. (°)=	-0.0007625
#Raman Pol. (°)=	89.9995
#Collection=	Microscope
#StageXY=	Marzhauser
#StageZ=	Marzhauser
#X (µm)=	1965.5
#Y (µm)=	-54.3
#Z (µm)=	425.7
#Full time(mm:ss)=	3:19
#Project=	
#Sample=	
#Site=	
#Title=	Thy_40_11_15_2x_45s_532 nm_x100_100%_600 gr_mm
#Remark=	
#Date=	05.07.2022 10:57
#Acquired=	05.07.2022 10:57:42
#Base:Fit=	10.08.2022 10:01:35
#Base:Sub=	10.08.2022 10:01:52
#Filter:Polynom=	16.08.2022 10:21:53
#AxisType[0]=Intens
#AxisUnit[0]=Cnt
#AxisType[1]=Spectr
#AxisUnit[1]=1/cm
200.43	27.7917
202.244	26.3762
204.059	24.248
205.873	21.7837
207.688	19.4973
209.501	17.7312
211.314	16.1894
213.127	14.8513
214.941	13.985
216.753	11.9874
218.564	10.9805
220.375	9.99084
222.186	9.00843
223.999	9.42275
225.809	7.63195
227.618	6.47257
229.428	4.62719
231.236	3.75514
233.045	2.9034
234.855	2.98959
236.663	1.83711
238.471	1.57193
240.278	1.39343
242.085	1.86994
243.891	1.63296
245.698	1.85908
247.503	2.55633
249.309	3.21813
251.116	3.64065
252.921	4.11018
254.725	4.32583
256.529	4.83228
258.333	4.63339
260.136	4.59856
261.939	4.41739
263.742	4.74264
265.544	4.18298
267.346	3.47647
269.148	4.4814
270.949	4.75952
272.75	4.704
274.55	3.9764
276.351	4.30894
278.15	4.34896
279.95	3.9647
281.749	5.64589
283.548	6.51438
285.346	5.75755
287.144	6.21016
288.942	7.21029
290.739	6.41195
292.536	6.17511
294.333	6.35783
296.129	6.38155
297.925	7.17321
299.721	6.70144
301.514	6.87065
303.309	8.21311
305.104	8.33423
306.898	7.49445
308.692	7.54062
310.486	7.44278
312.279	7.66821
314.072	8.44713
315.862	6.88964
317.654	7.24943
319.446	6.72606
321.238	7.17133
323.029	7.45944
324.819	8.14387
326.608	8.04275
328.398	8.63048
330.188	8.82376
331.977	9.67228
333.766	8.95582
335.553	8.72907
337.341	9.18317
339.129	8.38463
340.917	8.78276
342.704	8.46505
344.489	8.18382
346.275	7.81332
348.062	8.03873
349.845	7.79339
351.631	7.59966
353.416	6.91261
355.201	5.74808
356.984	6.82732
358.768	6.58368
360.552	6.92088
362.333	6.84159
364.116	5.42145
365.899	5.50525
367.68	5.27128
369.462	6.34459
371.243	6.87096
373.023	6.51914
374.804	6.30735
376.585	6.45008
378.363	6.25569
380.143	6.08942
381.923	6.22178
383.7	6.22594
385.479	6.07902
387.256	7.10456
389.034	6.7165
390.812	7.20348
392.588	7.35968
394.365	6.7847
396.14	6.4169
397.916	7.14183
399.691	8.11976
401.467	8.2146
403.24	7.61667
405.015	6.62398
406.788	6.28163
408.563	6.60589
410.335	7.94477
412.109	8.08745
413.88	8.72817
415.654	8.57506
417.424	7.95049
419.197	8.08029
420.967	7.76174
422.739	6.7383
424.508	7.26156
426.279	7.83758
428.048	7.92873
429.819	8.3629
431.587	6.93609
433.356	6.27162
435.124	5.3856
436.891	5.4507
438.66	4.75564
440.426	4.91259
442.194	4.6688
443.96	4.27992
445.725	5.06538
447.492	4.32584
449.257	4.82758
451.021	3.52207
452.787	2.91686
454.551	2.8851
456.314	2.79869
458.079	2.93925
459.842	2.88835
461.604	2.53646
463.368	3.32205
465.13	2.57202
466.891	2.66809
468.654	3.06083
470.415	2.97974
472.175	2.90132
473.935	2.99671
475.696	3.22331
477.456	3.03638
479.215	3.46262
480.973	4.96137
482.733	5.33629
484.491	5.9278
486.249	7.32941
488.006	7.61057
489.765	8.50505
491.522	9.44091
493.278	10.9805
495.034	12.1361
496.789	14.3588
498.544	14.8186
500.301	15.0133
502.056	15.6214
503.81	15.7182
505.564	16.2241
507.317	17.5241
509.071	17.0419
510.825	16.8928
512.578	17.8812
514.33	17.856
516.082	17.9289
517.833	17.0065
519.585	17.0042
521.335	17.1165
523.086	17.0574
524.836	16.9931
526.586	16.5515
528.335	16.8735
530.085	16.1468
531.835	15.8735
533.584	15.1933
535.332	15.0631
537.08	13.9133
538.827	12.0743
540.574	12.0348
542.321	10.9969
544.068	10.3739
545.814	9.44602
547.56	9.40305
549.305	8.39737
551.05	8.22399
552.795	7.53404
554.54	8.05235
556.282	8.01766
558.025	6.90395
559.769	6.41034
561.512	5.85675
563.255	5.01762
564.997	5.01346
566.739	5.12533
568.481	5.66878
570.223	5.14739
571.964	5.2845
573.705	5.45569
575.443	5.25493
577.183	5.36251
578.923	5.02877
580.663	5.47108
582.402	5.50099
584.141	6.31914
585.879	6.21428
587.615	6.54974
589.353	6.52149
591.09	7.19492
592.828	6.91162
594.564	7.50019
596.299	6.55243
598.035	7.18684
599.771	7.90496
601.506	7.84808
603.242	7.38796
604.974	7.70561
606.709	8.3515
608.443	8.77846
610.177	9.57506
611.908	10.6136
613.642	10.8054
615.374	11.9618
617.105	12.146
618.837	12.49
620.569	13.2098
622.3	13.3109
624.03	13.2427
625.761	13.4016
627.491	14.3613
629.219	14.6306
630.949	15.3134
632.677	15.3624
634.406	16.1153
636.135	16.6803
637.861	17.6908
639.59	18.4066
641.318	18.6836
643.043	18.7193
644.77	18.5098
646.495	18.3622
648.222	17.8336
649.948	17.7492
651.672	18.8005
653.398	19.6437
655.121	19.7276
656.846	19.9547
658.569	20.372
660.293	21.3091
662.015	21.9113
663.738	23.1081
665.46	24.3419
667.183	24.7354
668.903	24.5998
670.626	25.1218
672.346	24.6226
674.067	24.5003
675.787	24.6749
677.508	24.8054
679.226	25.7086
680.947	26.7236
682.665	25.7226
684.385	26.6632
686.102	27.1503
687.821	27.5306
689.538	28.0859
691.254	29.9266
692.972	30.5794
694.688	31.8143
696.406	32.0068
698.121	31.6294
699.835	31.9818
701.552	33.2944
703.266	34.3339
704.98	34.1585
706.695	35.2503
708.409	34.8602
710.121	36.2
711.836	37.0159
713.548	38.1735
715.26	38.212
716.973	37.889
718.685	38.4946
720.396	39.0944
722.108	40.32
723.818	40.6126
725.528	42.1591
727.238	42.9321
728.949	42.9954
730.658	43.7284
732.367	44.241
734.075	45.3129
735.785	46.0305
737.493	46.5229
739.2	47.1434
740.907	47.6453
742.614	49.1859
744.322	50.4056
746.028	52.6615
747.734	53.9996
749.439	55.1359
751.144	55.3198
752.849	55.5966
754.555	56.2269
756.26	58.2436
757.963	59.6464
759.667	60.8462
761.37	61.9602
763.073	63.3988
764.775	63.938
766.477	64.7117
768.179	65.6424
769.883	67.0517
771.584	67.4521
773.285	67.9846
774.986	68.7737
776.686	69.7366
778.386	69.8493
780.085	70.9976
781.785	72.0155
783.484	73.4087
785.182	75.2304
786.881	76.7797
788.579	77.6117
790.276	78.0691
791.974	80.3027
793.671	81.4263
795.367	82.6213
797.064	83.3678
798.76	83.2512
800.456	83.1453
802.151	84.2108
803.846	85.6975
805.541	85.3398
807.234	86.3909
808.928	86.7732
810.622	87.1467
812.315	85.7941
814.008	85.3886
815.701	84.4792
817.394	82.931
819.086	82.0632
820.778	82.3596
822.468	82.169
824.159	83.0255
825.85	82.9948
827.541	83.3492
829.231	83.5499
830.921	83.5688
832.609	81.9749
834.298	80.7937
835.987	80.5569
837.676	80.2511
839.364	79.5633
841.051	79.9621
842.738	77.7565
844.426	75.9925
846.113	75.726
847.798	74.0804
849.484	72.6074
851.171	72.32
852.857	70.2631
854.54	69.1237
856.226	67.6461
857.911	66.3909
859.593	64.4496
861.278	63.0953
862.961	62.1027
864.645	61.6926
866.327	60.7425
868.01	60.3043
869.692	59.791
871.373	59.4909
873.055	58.2821
874.735	57.2928
876.416	56.4723
878.097	55.8395
879.776	54.6877
881.457	54.0827
883.135	53.5852
884.815	53.2459
886.495	53.6957
888.172	53.1339
889.851	51.7711
891.528	51.8373
893.206	50.7716
894.882	49.8057
896.56	49.4416
898.237	48.9826
899.912	48.7517
901.589	49.2489
903.263	50.221
904.94	51.6187
906.614	50.793
908.289	50.6262
909.962	50.1374
911.635	50.107
913.31	49.3594
914.982	47.5876
916.656	47.2207
918.328	47.4633
920.001	48.2549
921.672	47.7491
923.345	46.9686
925.015	46.7316
926.685	46.1496
928.357	46.2149
930.026	45.8428
931.698	44.3263
933.366	44.5431
935.035	44.692
936.705	45.0475
938.373	45.2997
940.041	44.0968
941.71	43.2365
943.377	41.9779
945.044	40.5523
946.712	40.5282
948.378	39.7948
950.044	39.2516
951.709	38.5192
953.376	37.8097
955.041	36.2638
956.706	34.2456
958.372	33.7009
960.036	33.6699
961.699	33.1479
963.362	32.8192
965.027	32.1761
966.69	32.0045
968.352	31.3536
970.014	31.4347
971.676	30.4371
973.339	29.4346
975	30.3698
976.661	29.6219
978.322	29.6727
979.982	29.6414
981.642	29.9225
983.303	29.8611
984.962	29.7051
986.621	29.0234
988.28	27.7032
989.938	26.4163
991.596	25.2377
993.254	24.9494
994.911	24.1356
996.57	23.8039
998.227	24.7398
999.884	25.5576
1001.54	25.4053
1003.2	25.2029
1004.85	24.8622
1006.51	24.3975
1008.16	25.0003
1009.82	25.0479
1011.47	24.5043
1013.12	24.8562
1014.78	25.7458
1016.43	26.8385
1018.08	27.5488
1019.74	27.2868
1021.39	27.0616
1023.04	26.462
1024.69	26.1778
1026.34	25.5834
1028	24.7313
1029.65	25.5109
1031.3	25.7847
1032.95	25.3315
1034.6	25.2073
1036.25	25.1308
1037.9	24.5727
1039.54	23.7774
1041.19	24.589
1042.84	23.9068
1044.49	24.1473
1046.14	24.4123
1047.78	24.2963
1049.43	23.9704
1051.08	23.9823
1052.72	24.7291
1054.37	24.1375
1056.02	23.3486
1057.66	22.4285
1059.31	21.1024
1060.95	21.8817
1062.6	21.552
1064.24	20.5596
1065.88	19.0779
1067.53	18.2317
1069.17	16.6373
1070.81	16.1528
1072.45	16.6575
1074.1	15.86
1075.74	15.4676
1077.38	15.221
1079.02	14.4959
1080.66	14.3038
1082.3	13.2604
1083.94	12.2591
1085.58	12.1818
1087.22	12.3695
1088.86	12.3776
1090.5	12.4396
1092.14	12.701
1093.78	13.3502
1095.42	14.432
1097.05	15.2572
1098.69	16.1128
1100.33	16.6291
1101.96	17.3203
1103.6	18.1377
1105.24	17.8302
1106.87	18.2179
1108.51	18.5489
1110.14	18.9446
1111.78	19.4868
1113.41	20.3406
1115.05	20.4439
1116.68	20.5883
1118.31	20.1776
1119.95	19.9758
1121.58	19.1777
1123.21	20.2411
1124.85	19.8366
1126.48	19.6575
1128.11	18.7694
1129.74	16.9736
1131.37	15.1386
1133	15.5853
1134.63	14.6747
1136.26	13.5434
1137.89	12.333
1139.52	11.3031
1141.15	11.4991
1142.78	10.2025
1144.41	8.8474
1146.04	7.28009
1147.66	6.74991
1149.29	6.39121
1150.92	6.32013
1152.55	5.70799
1154.17	5.15164
1155.8	3.84423
1157.43	2.50426
1159.05	1.8856
1160.68	0.646211
1162.3	1.21173
1163.93	0.27326
1165.55	-0.315291
1167.17	0.741444
1168.8	0.445255
1170.42	0.205902
1172.05	0.622558
1173.67	0.667785
1175.29	1.15843
1176.91	1.49135
1178.54	2.05758
1180.16	2.28271
1181.78	2.48566
1183.4	3.41042
1185.02	3.95179
1186.64	4.62429
1188.26	5.56378
1189.88	6.47303
1191.5	6.66401
1193.12	7.12411
1194.74	7.89356
1196.36	8.27631
1197.97	8.7374
1199.59	9.1637
1201.21	9.99775
1202.83	10.7792
1204.44	11.8677
1206.06	11.8277
1207.68	12.4089
1209.29	13.02
1210.91	13.1892
1212.52	15.0192
1214.14	16.7902
1215.75	16.2657
1217.37	17.1124
1218.98	17.133
1220.59	18.1878
1222.21	18.4693
1223.82	19.1414
1225.43	19.9066
1227.05	20.6353
1228.66	21.5168
1230.27	22.1879
1231.88	23.1434
1233.49	23.8681
1235.1	24.7878
1236.72	24.9142
1238.33	24.8974
1239.94	25.0601
1241.55	25.9073
1243.16	26.9985
1244.76	27.0764
1246.37	27.9637
1247.98	28.5862
1249.59	29.0389
1251.2	29.4673
1252.8	30.6793
1254.41	30.8929
1256.02	31.8225
1257.62	32.1043
1259.23	32.921
1260.84	33.0696
1262.44	33.9176
1264.05	35.1995
1265.66	36.2785
1267.26	36.7578
1268.86	36.5385
1270.47	37.3788
1272.07	36.5217
1273.67	37.3601
1275.28	37.5961
1276.88	38.1931
1278.48	38.4656
1280.09	38.4567
1281.69	39.329
1283.29	39.6553
1284.89	39.6811
1286.49	39.0453
1288.09	39.4032
1289.69	38.9237
1291.29	38.9767
1292.89	39.3363
1294.49	39.7326
1296.09	40.1103
1297.69	40.9853
1299.29	41.0207
1300.89	40.8869
1302.49	40.5543
1304.08	41.0218
1305.68	41.6997
1307.28	43.1207
1308.88	43.5855
1310.47	43.8585
1312.07	43.7112
1313.66	42.9138
1315.26	42.4634
1316.85	42.8364
1318.45	43.1751
1320.04	42.9192
1321.64	43.3402
1323.23	43.2329
1324.83	43.3302
1326.42	43.5605
1328.01	43.4874
1329.61	43.0652
1331.2	43.018
1332.79	43.0405
1334.38	42.5109
1335.97	41.7354
1337.56	41.0243
1339.16	41.2369
1340.75	41.4502
1342.34	41.294
1343.93	41.656
1345.52	41.0331
1347.11	39.5221
1348.7	38.7316
1350.29	38.8815
1351.87	38.0984
1353.46	38.1984
1355.05	37.5288
1356.64	37.5299
1358.22	36.5365
1359.81	36.1674
1361.4	35.9004
1362.98	35.3002
1364.57	34.8778
1366.16	34.6101
1367.74	34.2048
1369.33	33.7958
1370.91	33.6043
1372.5	33.418
1374.08	32.1853
1375.67	32.1177
1377.25	31.0907
1378.83	30.1133
1380.41	30.0737
1382	29.561
1383.58	30.1689
1385.16	30.4236
1386.74	29.6013
1388.33	28.9056
1389.91	28.5649
1391.49	27.8355
1393.07	28.1937
1394.65	28.5656
1396.23	27.4303
1397.81	27.2691
1399.39	26.9398
1400.97	26.4767
1402.55	26.9396
1404.13	26.8344
1405.7	26.6621
1407.28	26.3029
1408.86	26.417
1410.44	26.3215
1412.01	26.5076
1413.59	26.5156
1415.17	26.0335
1416.74	26.8964
1418.32	28.7738
1419.89	28.9989
1421.47	29.7666
1423.04	31.3477
1424.62	31.9782
1426.19	33.2584
1427.77	34.9339
1429.34	36.7785
1430.91	38.4199
1432.49	39.5676
1434.06	41.446
1435.63	43.0486
1437.2	44.2787
1438.78	45.477
1440.35	46.9279
1441.92	47.6555
1443.49	48.6043
1445.06	48.5823
1446.63	49.1619
1448.2	49.3288
1449.77	48.8935
1451.34	48.8869
1452.91	47.8475
1454.48	48.8801
1456.05	47.7504
1457.62	47.5542
1459.18	47.0333
1460.75	45.6459
1462.32	45.4176
1463.89	44.0141
1465.45	43.0304
1467.02	41.5112
1468.59	39.863
1470.15	37.7036
1471.72	36.0839
1473.28	34.5055
1474.85	32.9732
1476.41	32.2853
1477.98	29.8319
1479.54	26.8201
1481.1	25.2577
1482.67	23.0882
1484.23	21.9863
1485.79	20.2861
1487.36	18.7304
1488.92	17.2707
1490.48	16.5237
1492.04	15.8743
1493.61	14.8363
1495.17	14.6912
1496.73	14.0688
1498.29	13.2406
1499.85	13.5327
1501.41	13.2765
1502.97	13.2191
1504.53	13.5157
1506.09	13.9653
1507.65	13.7266
1509.2	14.3669
1510.76	15.0093
1512.32	16.0167
1513.88	16.4393
1515.43	16.351
1516.99	16.0871
1518.55	16.4922
1520.1	17.1232
1521.66	17.6076
1523.22	17.1869
1524.77	17.3273
1526.33	16.6643
1527.88	17.1928
1529.44	17.7814
1530.99	18.3742
1532.54	19.932
1534.1	20.4416
1535.65	20.8828
1537.21	22.1594
1538.76	23.1238
1540.31	24.2339
1541.86	24.9088
1543.42	24.4698
1544.97	25.2257
1546.52	25.9814
1548.07	26.5452
1549.62	27.4466
1551.17	29.3046
1552.72	29.736
1554.27	29.6815
1555.82	29.9278
1557.37	29.8406
1558.92	32.1468
1560.47	32.8706
1562.02	33.7538
1563.56	33.9233
1565.11	34.9657
1566.66	35.6705
1568.21	36.2753
1569.75	37.1348
1571.3	36.8856
1572.85	37.1069
1574.39	37.662
1575.94	38.4013
1577.49	38.8403
1579.03	39.4919
1580.57	39.9378
1582.12	40.2046
1583.66	40.1121
1585.21	40.4357
1586.75	41.1862
1588.3	41.2873
1589.84	41.5491
1591.38	40.4153
1592.92	40.3757
1594.47	39.2365
1596.01	38.5321
1597.55	38.3518
1599.09	36.6261
1600.63	36.2929
1602.17	36.8409
1603.71	36.5277
1605.25	36.6177
1606.79	36.2317
1608.33	36.4713
1609.87	36.7237
1611.41	36.0355
1612.95	36.3461
1614.49	37.202
1616.03	36.7568
1617.57	37.0597
1619.1	36.5523
1620.64	36.7772
1622.18	38.1231
1623.72	37.8785
1625.25	38.6636
1626.79	39.5515
1628.32	40.6734
1629.86	40.6022
1631.39	41.3024
1632.93	42.3374
1634.46	43.1684
1636	44.8996
1637.53	45.4426
1639.07	46.9087
1640.6	48.2791
1642.13	49.4397
1643.67	50.2645
1645.2	51.1705
1646.73	51.3266
1648.26	52.0011
1649.8	52.9257
1651.33	54.1996
1652.86	54.8287
1654.39	54.8525
1655.92	55.2608
1657.45	56.0852
1658.98	55.8567
1660.51	55.931
1662.04	56.0733
1663.57	55.7425
1665.1	54.9633
1666.63	53.5183
1668.16	51.7078
1669.68	51.3208
1671.21	49.4083
1672.74	48.9178
1674.27	47.7152
1675.79	46.8289
1677.32	46.6521
1678.85	44.7487
1680.37	42.775
1681.9	41.2486
1683.42	39.6127
1684.95	38.7511
1686.47	37.3284
1688	35.5686
1689.52	34.5981
1691.05	31.9679
1692.57	29.6555
1694.09	28.5509
1695.62	26.8617
1697.14	25.842
1698.66	24.7954
1700.18	23.196
1701.71	22.2564
1703.23	21.3308
1704.75	20.0782
1706.27	18.6398
1707.79	18.1846
1709.31	16.8064
1710.83	15.6173
1712.35	14.8478
1713.87	14.4996
1715.39	14.0449
1716.91	13.6657
1718.43	13.3535
1719.95	13.2564
1721.47	12.2732
1722.99	12.0228
1724.5	12.8433
1726.02	12.3057
1727.54	11.8327
1729.06	11.486
1730.57	11.1911
1732.09	11.1763
1733.61	11.3288
1735.12	10.6539
1736.64	11.0165
1738.15	10.6873
1739.67	10.9288
1741.18	10.3997
1742.7	10.7358
1744.21	11.2778
1745.72	11.1457
1747.24	10.3795
1748.75	10.5756
1750.26	10.5588
1751.77	10.7356
1753.29	10.6309
1754.8	10.5341
1756.31	10.3751
1757.82	10.0704
1759.33	10.2048
1760.84	10.2603
1762.36	9.4276
1763.87	9.04915
1765.38	8.58124
1766.89	8.26541
1768.4	8.52761
1769.91	9.21489
1771.41	8.27325
1772.92	7.85507
1774.43	7.60128
1775.94	6.70079
1777.45	6.67401
1778.95	6.47233
1780.46	6.56283
1781.97	6.97946
1783.48	6.96591
1784.98	6.63941
1786.49	6.6881
1787.99	7.12163
1789.5	7.64442
1791.01	7.31506
1792.51	7.4375
1794.01	7.14383
1795.52	6.51017
1797.02	6.21735
1798.53	5.70976
1800.03	5.17656
1801.53	4.37523
1803.04	4.39418
1804.54	4.49405
1806.04	4.3853
1807.54	4.59198
1809.05	4.63314
1810.55	4.92473
1812.05	5.01783
1813.55	5.35328
1815.05	5.2399
1816.55	4.98201
1818.05	5.23894
1819.55	4.92387
1821.05	4.61767
1822.55	4.70369
1824.05	5.02378
1825.55	4.97592
1827.05	5.01663
1828.55	5.1206
1830.04	4.72746
1831.54	4.30199
1833.04	4.62892
1834.54	4.798
1836.03	4.36812
1837.53	4.40192
1839.03	4.76152
1840.52	4.42387
1842.02	4.57217
1843.51	4.57552
1845.01	5.2034
1846.5	5.33026
1848	5.43732
1849.49	5.83511
1850.99	6.13798
1852.48	6.81515
1853.97	7.22912
1855.47	7.60087
1856.96	6.62983
1858.45	6.57506
1859.94	6.17319
1861.44	5.87163
1862.93	5.87365
1864.42	5.65459
1865.91	5.62328
1867.4	5.65704
1868.89	4.97492
1870.38	4.84801
1871.87	4.67925
1873.36	4.45784
1874.85	4.99035
1876.34	5.04744
1877.83	4.7297
1879.32	4.88102
1880.81	4.19521
1882.3	4.28506
1882.57	4.09075
1884.07	3.75676
1885.56	3.48923
1887.06	3.01254
1888.55	3.11179
1890.04	2.76616
1891.54	2.83305
1893.03	2.18847
1894.52	1.38575
1896.02	0.754873
1897.51	1.57528
1899	1.45796
1900.49	1.08454
1901.98	0.39254
1903.47	0.300912
1904.96	1.16112
1906.45	0.597143
1907.94	0.70005
1909.43	0.681434
1910.92	1.52658
1912.41	1.20899
1913.9	1.59482
1915.39	2.10354
1916.88	2.08213
1918.37	2.14467
1919.85	1.68337
1921.34	1.37754
1922.83	1.63641
1924.32	1.5019
1925.8	1.17484
1927.29	1.81423
1928.78	1.50857
1930.26	1.42001
1931.75	1.93522
1933.23	2.13942
1934.72	2.70357
1936.2	3.425
1937.69	3.41675
1939.17	3.81819
1940.66	3.77554
1942.14	3.99226
1943.63	4.21969
1945.11	4.12198
1946.59	4.61699
1948.07	4.17214
1949.56	3.80866
1951.04	4.0762
1952.52	4.14817
1954	3.77659
1955.48	4.48695
1956.96	4.24295
1958.45	3.82274
1959.93	3.88741
1961.41	3.74823
1962.89	3.78591
1964.37	2.73666
1965.85	2.83894
1967.32	2.3999
1968.8	2.57527
1970.28	3.00102
1971.76	3.45979
1973.24	2.33549
1974.72	1.92125
1976.19	2.29611
1977.67	2.21204
1979.15	1.92399
1980.63	1.34884
1982.1	2.21598
1983.58	2.28291
1985.05	2.1068
1986.53	1.25846
1988	1.03923
1989.48	0.251861
1990.95	-0.196888
1992.43	-0.51406
1993.9	-0.621928
1995.38	0.248627
1996.85	0.615972
1998.32	0.784824
1999.8	0.478112
2001.27	0.658232
2002.74	0.735555
2004.22	1.0428
2005.69	1.63809
2007.16	1.87097
2008.63	1.97918
2010.1	2.36548
2011.57	2.17872
2013.04	2.70403
2014.51	2.69226
2015.98	2.93297
2017.45	3.0319
2018.92	2.94259
2020.39	3.6508
2021.86	3.96149
2023.33	4.75314
2024.8	5.60481
2026.27	5.22525
2027.74	5.1816
2029.2	4.99303
2030.67	4.79119
2032.14	4.73879
2033.61	4.77014
2035.07	5.1295
2036.54	5.44817
2038.01	6.27258
2039.47	7.09535
2040.94	7.33307
2042.4	7.30189
2043.87	6.68989
2045.33	7.03987
2046.8	7.12176
2048.26	7.04745
2049.72	7.21651
2051.19	6.65533
2052.65	6.67335
2054.12	7.32875
2055.58	7.83375
2057.04	7.20681
2058.5	7.19504
2059.97	7.53632
2061.43	7.58
2062.89	7.88021
2064.35	8.09764
2065.81	8.38083
2067.27	8.84798
2068.73	9.19965
2070.19	9.02508
2071.65	9.27276
2073.11	9.13539
2074.57	9.8023
2076.03	10.2493
2077.49	9.89824
2078.95	10.0335
2080.41	9.86546
2081.87	9.7813
2083.32	9.86037
2084.78	9.98451
2086.24	9.9776
2087.7	10.1772
2089.15	10.0488
2090.61	10.7179
2092.07	10.8938
2093.52	11.7538
2094.98	12.122
2096.43	12.3469
2097.89	12.5313
2099.34	12.4396
2100.8	12.8888
2102.25	13.4519
2103.71	14.452
2105.16	14.8456
2106.61	15.8202
2108.07	17.2623
2109.52	18.2359
2110.97	19.1155
2112.43	18.9979
2113.88	19.4145
2115.33	19.8624
2116.78	21.3689
2118.23	22.8523
2119.68	23.5823
2121.13	24.5612
2122.59	25.8449
2124.04	26.8255
2125.49	28.1616
2126.94	29.6301
2128.39	30.8662
2129.83	31.485
2131.28	33.0219
2132.73	33.4192
2134.18	33.7632
2135.63	34.6589
2137.08	35.5119
2138.53	36.6628
2139.97	38.1186
2141.42	39.0082
2142.87	40.1249
2144.31	40.3048
2145.76	40.6368
2147.21	41.3206
2148.65	40.8896
2150.1	40.8396
2151.54	41.2945
2152.99	41.3213
2154.43	41.2715
2155.88	41.9886
2157.32	42.503
2158.77	42.4911
2160.21	42.5311
2161.65	43.0071
2163.1	43.6989
2164.54	43.186
2165.98	43.3483
2167.43	43.4001
2168.87	43.292
2170.31	43.4634
2171.75	44.5583
2173.19	44.8289
2174.64	44.5894
2176.07	44.4451
2177.52	44.5837
2178.96	44.6355
2180.4	44.2724
2181.84	43.8851
2183.28	43.5967
2184.72	43.1023
2186.15	43.596
2187.59	43.3076
2189.03	43.184
2190.47	42.2088
2191.91	41.6092
2193.35	40.8199
2194.78	40.2597
2196.22	39.4356
2197.66	38.6834
2199.09	38.1223
2200.53	37.1355
2201.97	35.9494
2203.4	34.9682
2204.84	33.6063
2206.27	33.1659
2207.71	32.5951
2209.14	31.9541
2210.58	31.4838
2212.01	30.7424
2213.45	28.766
2214.88	27.6274
2216.31	26.0759
2217.75	25.0554
2219.18	23.6044
2220.61	22.3544
2222.05	22.3315
2223.48	22.1332
2224.91	20.9887
2226.34	20.8128
2227.78	20.6957
2229.21	20.3576
2230.64	19.685
2232.07	19.1832
2233.5	18.3958
2234.93	17.7603
2236.36	17.0887
2237.79	17.2276
2239.22	16.4047
2240.65	16.2399
2242.08	16.7424
2243.5	16.6114
2244.93	15.3683
2246.36	14.5562
2247.79	14.1216
2249.22	13.8803
2250.64	12.692
2252.07	12.526
2253.5	11.8188
2254.92	11.3073
2256.35	10.922
2257.78	10.061
2259.2	9.25627
2260.63	8.25041
2262.05	8.08013
2263.48	7.54051
2264.9	7.24023
2266.33	6.92104
2267.75	6.34037
2269.18	6.22004
2270.6	5.8412
2272.02	5.44022
2273.45	4.79422
2274.87	4.70378
2276.29	4.72125
2277.71	4.42404
2279.14	4.31122
2280.56	4.31378
2281.98	4.0628
2283.4	3.27989
2284.82	2.80288
2286.24	3.19514
2287.66	2.94821
2289.08	3.21166
2290.5	3.42087
2291.92	3.79344
2293.34	4.3051
2294.76	3.67953
2296.18	3.63842
2297.6	4.41354
2299.02	4.79363
2300.44	4.59942
2301.86	4.40501
2303.27	4.66523
2304.69	4.93963
2306.11	5.25292
2307.53	5.06544
2308.94	6.16345
2310.36	6.39046
2311.78	7.02785
2313.19	7.57704
2314.61	7.17808
2316.02	8.02766
2317.44	7.99283
2318.85	8.08701
2320.27	8.23851
2321.68	7.34104
2323.1	7.93113
2324.51	7.5547
2325.92	7.98449
2327.34	7.94106
2328.75	7.73485
2330.16	8.23911
2331.58	8.02127
2332.99	8.81132
2334.4	8.61213
2335.81	9.3775
2337.23	8.84329
2338.64	8.82993
2340.05	8.61124
2341.46	7.94374
2342.87	7.60931
2344.28	6.7659
2345.69	6.91643
2347.1	6.62377
2348.51	5.8598
2349.92	5.42535
2351.33	4.56963
2352.74	3.83232
2354.15	3.23894
2355.55	2.81411
2356.96	2.46329
2358.37	1.97744
2359.78	1.86662
2361.19	1.9936
2362.59	1.62852
2364	1.48944
2365.41	1.06428
2366.81	1.62474
2368.22	1.5587
2369.62	1.26305
2371.03	1.16255
2372.44	1.57403
2373.84	1.7387
2375.24	1.882
2376.65	1.8236
2378.05	2.39142
2379.46	3.0471
2380.86	2.95439
2382.26	2.32082
2383.67	2.896
2385.07	3.2878
2386.47	4.15075
2387.88	3.51894
2389.28	3.48422
2390.68	3.5289
2392.08	3.38607
2393.48	4.79609
2394.89	4.70143
2396.29	4.84684
2397.69	4.88706
2399.09	5.39375
2400.49	5.01439
2401.89	4.4593
2403.29	5.09951
2404.69	4.58673
2406.09	4.2306
2407.48	2.93159
2408.88	3.18808
2410.28	3.02718
2411.68	3.14135
2413.08	2.84614
2414.48	3.37814
2415.87	3.5249
2417.27	3.43513
2418.67	2.97978
2420.06	3.24445
2421.46	3.77218
2422.86	4.21881
2424.25	4.26513
2425.65	4.53686
2427.04	4.94484
2428.44	4.95742
2429.83	5.18716
2431.23	4.97294
2432.62	4.44001
2434.02	4.44019
2435.41	4.70103
2436.81	4.90376
2438.2	5.59188
2439.59	6.01415
2440.99	6.54661
2442.38	6.5506
2443.77	6.766
2445.16	6.91876
2446.56	7.01834
2447.95	7.25959
2449.34	7.20267
2450.73	7.71323
2452.12	7.90883
2453.51	8.76343
2454.9	9.06779
2456.29	9.01462
2457.68	8.88225
2459.07	9.46942
2460.46	9.2606
2461.85	9.50735
2463.24	8.99563
2464.63	8.12362
2466.02	7.99423
2467.4	7.36737
2468.79	7.19188
2470.18	6.86937
2471.57	6.83376
2472.95	6.6483
2474.34	5.64203
2475.73	5.01971
2477.12	5.12786
2478.5	5.57421
2479.89	5.86101
2481.27	5.88221
2482.66	5.54776
2484.04	5.77006
2485.43	5.43667
2486.81	5.75344
2488.2	6.0721
2489.58	5.90035
2490.97	5.28196
2492.35	4.42491
2493.73	4.10636
2495.12	3.79432
2496.5	3.32544
2497.88	3.1028
2499.27	2.92138
2500.65	2.96395
2502.03	3.40611
2503.41	3.99233
2504.79	4.49778
2506.17	4.71249
2507.56	4.83538
2508.94	4.77291
2510.32	4.38829
2511.7	4.21697
2513.08	4.72564
2514.46	4.00351
2515.84	4.25123
2517.22	3.86797
2518.59	3.9598
2519.97	3.87574
2521.35	4.15534
2522.73	4.3693
2524.11	4.79351
2525.49	5.17623
2526.86	5.33225
2528.24	5.46749
2529.62	4.93048
2530.99	4.80538
2532.37	4.34607
2533.75	4.22011
2535.12	3.90191
2536.5	3.3553
2537.88	4.08032
2539.25	4.14191
2540.63	3.34367
2542	3.53691
2543.38	4.05037
2544.75	4.36979
2546.12	5.14072
2547.5	5.43945
2548.87	5.8321
2550.24	5.27878
2551.62	5.71664
2552.99	5.90718
2554.36	6.16251
2555.74	5.86274
2557.11	5.26947
2558.48	5.19913
2559.85	4.90749
2561.22	5.15712
2562.59	5.13849
2563.96	4.74772
2565.34	4.20463
2566.71	4.39942
2568.08	3.87382
2569.45	4.23229
2570.82	4.52285
2572.18	4.26174
2573.55	3.69056
2574.92	3.56736
2576.29	3.0963
2577.66	2.93059
2579.03	2.2751
2580.4	2.10743
2581.77	1.75434
2583.13	1.00486
2584.5	1.78271
2585.87	1.65289
2587.23	1.52798
2588.6	1.38418
2589.97	2.1585
2591.33	1.88775
2592.7	1.72487
2594.06	1.55155
2595.43	1.55822
2596.79	1.88576
2598.16	1.54622
2599.52	1.5815
2600.89	1.77329
2602.25	1.57046
2603.62	1.891
2604.98	2.2029
2606.34	2.88317
2607.71	2.98615
2609.07	3.70765
2610.43	4.28849
2611.79	4.40727
2613.16	4.59062
2614.52	4.97056
2615.88	4.90787
2617.24	4.76241
2618.6	4.44161
2619.96	4.69185
2621.32	4.00009
2622.68	3.83997
2624.04	3.54162
2625.4	3.82711
2626.76	4.13265
2628.12	3.65489
2629.48	3.96932
2630.84	4.30495
2632.2	4.31755
2633.56	4.45795
2634.92	5.54693
2636.28	5.57754
2637.63	6.18792
2638.99	6.52049
2640.35	6.36709
2641.71	6.88279
2643.06	6.98049
2644.42	7.28078
2645.77	7.64956
2647.13	7.65041
2648.49	7.33037
2649.84	6.98417
2651.2	6.99086
2652.55	7.18785
2653.91	6.82289
2655.26	6.68868
2656.62	7.04235
2657.97	6.99489
2659.33	7.30328
2660.68	7.79662
2662.03	8.01732
2663.39	8.66064
2664.74	8.28768
2666.09	7.97737
2667.44	7.72837
2668.8	7.61656
2670.15	7.6219
2671.5	7.24879
2672.85	7.31466
2674.2	7.09288
2675.55	6.47713
2676.91	6.02116
2678.26	5.06454
2679.61	4.89056
2680.96	4.6402
2682.31	4.6916
2683.66	4.05125
2685	3.64109
2686.35	3.53836
2687.7	3.84958
2689.05	3.81514
2690.4	4.09973
2691.75	4.2326
2693.1	4.43749
2694.44	4.45058
2695.79	4.73075
2697.14	5.05437
2698.49	5.60577
2699.83	5.14068
2701.18	5.77729
2702.52	6.11437
2703.87	6.27605
2705.22	6.83383
2706.56	7.25704
2707.91	7.39671
2709.25	7.75981
2710.6	7.68329
2711.94	7.84718
2713.29	7.53403
2714.63	7.00471
2715.97	6.69049
2717.32	7.34363
2718.66	7.51266
2720.01	7.70573
2721.35	7.77144
2722.69	7.25311
2724.03	7.55471
2725.38	7.68305
2726.72	7.55596
2728.06	7.0769
2729.4	6.77906
2730.74	7.00954
2732.08	6.23664
2733.42	5.93924
2734.76	5.59621
2736.1	5.73655
2737.44	5.06694
2738.78	4.75044
2740.12	4.93961
2741.46	3.95365
2742.8	3.83366
2744.14	4.05788
2745.48	4.06643
2746.82	4.29339
2748.16	4.44611
2749.49	4.12217
2750.83	3.78049
2752.17	3.84391
2753.51	3.89727
2754.84	3.50535
2756.18	2.79464
2757.52	2.2814
2758.85	1.98656
2760.19	1.57783
2761.53	1.35774
2762.86	1.72052
2764.2	2.05362
2765.53	2.01576
2766.87	1.64749
2768.2	1.92117
2769.54	2.12886
2770.87	2.9573
2772.2	2.39153
2773.54	1.69182
2774.87	1.81446
2776.2	2.17777
2777.54	1.60715
2778.87	1.56505
2780.2	1.37576
2781.53	1.30543
2782.87	1.32224
2784.2	1.78934
2785.53	1.38197
2786.86	1.09588
2788.19	0.629954
2789.52	-0.0401264
2790.85	0.820037
2792.18	1.16975
2793.51	0.499699
2794.84	0.833515
2796.17	0.654294
2797.5	0.383401
2798.83	0.0454491
2800.16	0.0845466
2801.49	0.187061
2802.82	0.251973
2804.15	0.0833348
2805.47	-0.0514184
2806.8	-0.185194
2808.13	-0.515954
2809.46	-0.153803
2810.78	-0.333917
2812.11	-0.686325
2813.44	-0.542282
2814.76	-0.611992
2816.09	-0.707327
2817.42	0.0251676
2818.74	0.645843
2820.07	0.653539
2821.39	0.962865
2822.72	1.66684
2824.04	2.67109
2825.37	3.72285
2826.69	4.93105
2828.02	6.37559
2829.34	7.70808
2830.66	8.57624
2831.99	9.04753
2833.31	9.93607
2834.63	11.5752
2835.96	12.9996
2837.28	13.982
2838.6	14.2577
2839.92	16.1947
2841.24	17.7591
2842.57	19.0516
2843.89	20.4341
2845.21	22.8971
2846.53	25.0016
2847.85	26.4327
2849.17	28.3037
2850.49	29.8884
2851.81	31.3928
2853.13	32.8666
2854.45	34.8648
2855.77	36.8677
2857.09	39.7509
2858.41	41.6976
2859.72	42.3068
2861.04	44.0422
2862.36	45.3001
2863.68	46.9799
2865	48.3886
2866.31	49.9993
2867.63	51.2902
2868.95	52.5623
2870.26	53.5399
2871.58	53.9085
2872.9	54.9538
2874.21	55.7115
2875.53	55.6993
2876.84	56.1477
2878.16	56.5062
2879.47	57.2975
2880.79	58.0132
2882.1	58.7507
2883.42	59.6464
2884.73	60.4521
2886.05	60.9566
2887.36	61.637
2888.67	62.8468
2889.99	63.6558
2891.3	63.5954
2892.61	64.269
2893.92	64.7008
2895.24	65.4254
2896.55	65.9347
2897.86	67.3527
2899.17	68.7731
2900.48	70.2683
2901.79	71.4507
2903.11	72.7365
2904.42	74.529
2905.73	77.1377
2907.04	79.1687
2908.35	81.6654
2909.66	84.4735
2910.97	86.6238
2912.27	88.3555
2913.58	90.6193
2914.89	93.2974
2916.2	95.1003
2917.51	97.9245
2918.82	100.407
2920.13	102.395
2921.43	104.603
2922.74	106.561
2924.05	107.438
2925.35	108.04
2926.66	109.427
2927.97	110.051
2929.27	110.345
2930.58	110.416
2931.89	110.813
2933.19	111.128
2934.5	110.371
2935.8	108.986
2937.11	107.548
2938.41	106.279
2939.72	104.014
2941.02	102.557
2942.32	101.594
2943.63	100.412
2944.93	98.9852
2946.24	97.4648
2947.54	95.7024
2948.84	93.6006
2950.14	91.7701
2951.45	89.4746
2952.75	87.024
2954.05	84.8689
2955.35	81.5933
2956.65	78.7974
2957.95	76.7262
2959.26	74.9243
2960.56	72.9778
2961.86	71.015
2963.16	69.6215
2964.46	67.1767
2965.76	65.4349
2967.06	63.2797
2968.36	61.4496
2969.66	59.9143
2970.96	58.0573
2972.25	55.8339
2973.55	53.9302
2974.85	52.2331
2976.15	50.0796
2977.45	48.3984
2978.74	46.8245
2980.04	44.5913
2981.34	42.412
2982.64	40.5856
2983.93	38.4307
2985.23	36.5236
2986.52	34.554
2987.82	32.3281
2989.12	30.0573
2990.41	28.1364
2991.71	26.1717
2993	24.3251
2994.3	22.7341
2995.59	21.0652
2996.89	19.4494
2998.18	18.1236
2999.48	15.5166
3000.77	13.5488
3002.06	12.3871
3003.36	11.3532
3004.65	10.3294
3005.94	10.7107
3007.23	9.44455
3008.53	8.11668
3009.82	6.70755
3011.11	5.77103
3012.4	5.1573
3013.69	4.08828
3014.99	3.27575
3016.28	2.11478
3017.57	1.99138
3018.86	1.54617
3020.15	1.39624
3021.44	1.18415
3022.73	1.31726
3024.02	1.82925
3025.31	1.72478
3026.6	1.51437
3027.89	1.4408
3029.18	1.02195
3030.46	1.29589
3031.75	0.718473
3033.04	0.562837
3034.33	0.562459
3035.62	0.884757
3036.9	1.22578
3038.19	1.66915
3039.48	1.9085
3040.76	1.98769
3042.05	2.3826
3043.34	2.8234
3044.62	2.8979
3045.91	2.93926
3047.19	3.20246
3048.48	3.64611
3049.77	3.60374
3051.05	3.28174
3052.34	3.33361
3053.62	3.42884
3054.9	3.43096
3056.19	3.65074
3057.47	3.79404
3058.76	3.64333
3060.04	3.46786
3061.32	3.27249
3062.61	3.35714
3063.89	3.04108
3065.17	2.86285
3066.45	2.71083
3067.74	2.40175
3069.02	1.83784
3070.3	1.85339
3071.58	0.767899
3072.86	0.788844
3074.14	0.710894
3075.42	0.73948
3076.7	0.907431
3077.99	0.607267
3079.26	0.69754
3080.54	1.33359
3081.82	2.21354
3083.1	1.9551
3084.38	1.80787
3085.66	1.30064
3086.94	1.52357
3088.22	1.38013
3089.5	1.24752
3090.78	1.11729
3092.05	1.42727
3093.33	1.38441
3094.61	2.17979
3095.89	2.0771
3097.16	2.44539
3098.44	3.10346
3099.72	3.79139
3100.99	3.86925
3102.27	4.43807
3103.54	4.7679
3104.82	5.70297
3106.1	6.34796
3107.37	6.76149
3108.65	6.95284
3109.92	7.70922
3111.2	8.55117
3112.47	8.92231
3113.74	8.87012
3115.02	9.01579
3116.29	9.66159
3117.56	9.94358
3118.84	10.1905
3120.11	10.5942
3121.38	10.8218
3122.66	11.1531
3123.93	11.2241
3125.2	11.2202
3126.47	11.7369
3127.74	11.8392
3129.01	11.4951
3130.29	11.6926
3131.56	12.1948
3132.83	12.7337
3134.1	13.2693
3135.37	13.3312
3136.64	13.9862
3137.91	14.0957
3139.18	14.556
3140.45	14.7442
3141.72	14.7991
3142.99	14.6715
3144.26	14.4391
3145.52	14.2107
3146.79	14.5192
3148.06	15.1042
3149.33	16.2234
