#Acq. time (s)=	45
#Accumulations=	2
#Range (cm-¹)=	200...3150
#Windows=	2
#Auto scanning=	Off
#Autofocus=	Off
#Macrospot=	Off
#AutoExposure=	Off
#Spike filter=	Multiple accum.
#Delay time (s)=	0
#Binning=	1
#Readout mode=	Signal
#DeNoise=	Off
#ICS correction=	On
#Dark correction=	Off
#Inst. Process=	Off
#Detector Gain=	Best Dynamic Range
#Detector ADC=	20 kHz       
#Detector temperature (°C)=	-69.85
#Instrument=	LabRAM HR Evol
#Detector=	Synapse
#Objective=	x100
#Grating=	600 gr/mm
#ND Filter=	100%
#Laser (nm)=	532 
#Hole=	100.021
#Range=	Auto
#Laser Pol.=	No
#Raman. Pol.=	No
#Laser Pol. (°)=	-0.0007625
#Raman Pol. (°)=	89.9995
#Collection=	Microscope
#StageXY=	Marzhauser
#StageZ=	Marzhauser
#X (µm)=	-5923.1
#Y (µm)=	2855
#Z (µm)=	-223.8
#Full time(mm:ss)=	3:18
#Project=	
#Sample=	
#Site=	
#Title=	Thy_20_09_43_2x_45s_532 nm_x100_100%_600 gr_mm
#Remark=	
#Date=	29.06.2022 13:41
#Acquired=	29.06.2022 13:41:30
#Base:Fit=	10.08.2022 09:52:02
#Base:Fit=	10.08.2022 09:52:12
#Base:Sub=	10.08.2022 09:54:21
#Filter:Polynom=	16.08.2022 10:24:04
#AxisType[0]=Intens
#AxisUnit[0]=Cnt
#AxisType[1]=Spectr
#AxisUnit[1]=1/cm
200.523	3.05692
202.339	4.64233
204.154	5.8681
205.967	6.33247
207.781	6.19513
209.596	6.0631
211.409	6.1789
213.222	6.69383
215.034	6.83392
216.848	7.30303
218.659	8.0464
220.47	8.56979
222.281	8.65752
224.091	9.72293
225.903	9.82304
227.713	10.9516
229.522	11.5332
231.331	12.6758
233.14	13.184
234.948	13.5616
236.756	13.6286
238.566	14.1332
240.373	14.89
242.18	15.4932
243.986	16.6156
245.792	16.4529
247.598	16.8431
249.403	17.9507
251.208	18.9678
253.013	18.8021
254.818	17.9348
256.624	17.8689
258.427	18.3109
260.231	18.7978
262.034	19.3346
263.836	20.1272
265.638	21.1295
267.44	22.554
269.242	23.6105
271.043	23.6395
272.844	23.6711
274.645	24.0287
276.445	23.9589
278.245	24.0366
280.044	24.3863
281.843	24.2733
283.642	24.8435
285.44	24.7333
287.238	24.8399
289.036	24.3953
290.833	24.0704
292.63	23.1873
294.425	22.9098
296.221	22.781
298.017	24.5274
299.813	25.4895
301.608	24.8928
303.403	24.8792
305.198	24.7771
306.992	25.1683
308.786	25.1627
310.579	24.4116
312.371	24.115
314.163	24.119
315.956	23.5809
317.748	24.7015
319.54	24.2106
321.331	23.1935
323.122	21.984
324.911	20.2827
326.701	19.6016
328.491	18.8477
330.281	17.9491
332.071	17.106
333.857	16.1795
335.646	15.0997
337.434	13.7402
339.222	12.9527
341.008	10.9291
342.795	9.31556
344.582	8.69041
346.369	8.49602
348.153	8.85729
349.939	7.97374
351.724	9.08327
353.51	9.3207
355.292	9.32572
357.077	8.58324
358.861	8.85012
360.643	9.14229
362.426	8.75488
364.21	8.23504
365.99	8.91031
367.773	8.83775
369.555	9.32517
371.335	9.65203
373.116	9.56041
374.897	9.08168
376.676	10.0035
378.456	10.024
380.236	10.123
382.014	11.6596
383.793	12.4804
385.57	14.155
387.349	15.6675
389.127	15.2519
390.903	15.2106
392.681	16.1906
394.456	16.6116
396.233	16.4665
398.007	16.7432
399.784	16.4735
401.56	16.618
403.333	16.0762
405.108	16.0534
406.881	15.9961
408.656	14.1828
410.428	12.5087
412.202	12.1976
413.973	12.0373
415.746	11.8742
417.517	11.2754
419.29	10.9633
421.06	10.0969
422.831	9.35374
424.601	9.11599
426.37	7.94391
428.141	8.6637
429.909	8.08443
431.679	7.93597
433.447	7.19679
435.216	5.808
436.983	5.83216
438.75	4.85605
440.519	5.18724
442.285	5.42523
444.052	5.28829
445.818	5.86429
447.583	6.97807
449.349	7.00122
451.114	5.9289
452.878	5.98615
454.643	5.94726
456.407	5.78452
458.169	6.63526
459.934	6.24098
461.696	7.49901
463.458	8.66488
465.222	9.32088
466.983	10.1848
468.744	9.86199
470.507	11.406
472.267	11.6473
474.027	12.6212
475.787	12.114
477.548	11.3755
479.307	11.1834
481.065	10.9705
482.823	10.484
484.583	11.097
486.341	11.0812
488.098	10.2675
489.855	10.2971
491.612	10.602
493.37	12.0613
495.126	11.3029
496.881	11.1339
498.636	10.7095
500.391	11.8529
502.148	11.5059
503.902	11.1676
505.656	12.0605
507.409	12.7535
509.162	13.1182
510.915	13.041
512.668	13.9801
514.42	13.2467
516.174	13.3335
517.925	12.8446
519.676	12.7514
521.427	11.9228
523.178	12.3382
524.928	13.8237
526.678	12.8011
528.427	12.7127
530.176	12.8626
531.925	11.7544
533.673	12.0398
535.422	11.6145
537.169	11.8488
538.917	10.5301
540.664	9.76727
542.411	9.9187
544.157	10.4326
545.903	11.3783
547.649	11.3703
549.395	11.9093
551.14	9.90294
552.884	8.66315
554.629	9.35955
556.373	8.74993
558.117	9.5767
559.86	9.51618
561.603	8.67981
563.346	8.28297
565.089	8.25398
566.831	8.15797
568.573	8.63794
570.314	8.42613
572.053	9.81799
573.794	8.69946
575.534	9.46919
577.274	8.58084
579.014	8.05007
580.754	7.46902
582.493	6.40379
584.23	6.94159
585.968	7.08211
587.706	8.75991
589.444	8.23197
591.181	9.5049
592.919	10.1304
594.653	10.3793
596.39	10.2519
598.126	9.95147
599.862	10.371
601.595	9.69707
603.33	10.3637
605.065	10.3434
606.8	10.1378
608.532	10.1178
610.266	10.6349
611.999	9.87546
613.732	8.58016
615.463	9.84429
617.196	11.1765
618.928	12.1875
620.66	11.9451
622.389	12.2421
624.12	13.0213
625.851	12.6903
627.58	13.1462
629.31	14.028
631.04	14.0476
632.767	14.7606
634.497	14.6297
636.223	14.9305
637.952	15.3222
639.68	16.8589
641.406	19.9554
643.134	20.4231
644.861	20.3188
646.586	20.8553
648.312	20.955
650.037	21.943
651.762	22.4303
653.486	22.3285
655.211	23.5153
656.936	23.2838
658.659	23.142
660.383	22.0804
662.105	22.2625
663.829	22.0919
665.55	22.7502
667.273	22.5909
668.994	23.9577
670.716	24.104
672.436	23.8598
674.158	24.5438
675.877	24.7873
677.598	26.1194
679.317	26.2067
681.035	27.5592
682.755	28.7409
684.473	28.6677
686.192	30.0807
687.909	31.2432
689.628	32.2033
691.344	33.4398
693.06	34.5065
694.778	34.7868
696.493	35.4711
698.211	36.478
699.925	36.86
701.64	37.6844
703.356	38.0877
705.07	38.6581
706.783	38.8742
708.498	40.634
710.211	41.1773
711.924	41.0336
713.638	41.7533
715.35	43.1857
717.061	43.8586
718.774	44.6169
720.485	45.2392
722.196	45.9079
723.906	46.8974
725.618	47.5032
727.328	48.923
729.037	47.7594
730.746	47.5698
732.456	49.3015
734.165	49.2467
735.873	49.7669
737.58	50.6327
739.289	50.6853
740.997	52.0608
742.703	52.6524
744.41	53.8808
746.116	54.6761
747.823	55.808
749.529	57.0747
751.234	58.4771
752.938	60.8358
754.643	63.368
756.347	64.0888
758.051	66.0712
759.756	69.1961
761.459	71.1443
763.162	72.9035
764.865	75.8337
766.567	79.0828
768.269	80.9153
769.97	82.6976
771.671	84.7527
773.372	85.7612
775.073	87.5569
776.773	88.4911
778.473	90.0854
780.174	91.2035
781.874	93.8133
783.573	95.5187
785.271	96.9294
786.97	98.9607
788.668	100.801
790.365	102.687
792.063	103.61
793.76	104.53
795.456	105.176
797.153	106.548
798.847	107.987
800.543	110.181
802.238	110.959
803.933	111.682
805.628	112.6
807.322	114.693
809.017	115.004
810.71	114.167
812.404	114.623
814.097	114.734
815.79	114.734
817.483	114.539
819.173	114.033
820.865	114.693
822.556	114.73
824.248	113.628
825.939	114.171
827.629	112.641
829.318	112.128
831.008	110.953
832.697	111.116
834.387	111.502
836.076	111.194
837.765	110.402
839.451	109.013
841.139	108.806
842.827	108.405
844.514	107.873
846.2	106.894
847.886	105.886
849.573	105.882
851.259	104.355
852.943	103.205
854.629	101.609
856.314	99.7015
857.997	98.8709
859.682	98.4297
861.366	97.5484
863.05	98.1807
864.732	97.4082
866.415	97.1376
868.098	96.4716
869.779	95.8148
871.461	94.8854
873.141	94.1531
874.823	92.6599
876.505	91.6883
878.184	91.0602
879.865	90.7715
881.545	90.0665
883.223	89.9577
884.903	90.1113
886.581	89.091
888.26	88.36
889.937	88.2132
891.616	87.3235
893.294	85.3119
894.97	83.4069
896.648	83.1757
898.323	82.2019
900	80.4205
901.675	79.8634
903.351	78.5607
905.026	77.6505
906.701	75.1227
908.375	73.9975
910.05	74.5024
911.723	72.1193
913.398	72.3735
915.07	72.3545
916.742	71.7039
918.415	71.3806
920.087	69.6338
921.76	69.7853
923.43	68.7681
925.103	67.907
926.773	66.6316
928.443	66.0925
930.114	65.0006
931.783	64.1967
933.454	63.5461
935.123	64.1969
936.791	63.1454
938.461	61.8176
940.128	61.0943
941.796	60.387
943.464	59.3314
945.131	58.0413
946.797	57.7259
948.465	56.4966
950.131	54.8755
951.797	52.8361
953.462	52.1521
955.128	49.4925
956.793	48.0383
958.457	46.0819
960.121	44.9937
961.786	42.9245
963.45	41.3846
965.113	40.9191
966.775	40.8748
968.44	40.3932
970.102	40.0668
971.763	39.1575
973.425	37.5564
975.086	35.3374
976.748	34.7353
978.409	32.4656
980.069	31.461
981.729	30.7246
983.388	29.4853
985.048	29.3109
986.708	27.4125
988.367	27.4591
990.025	26.5724
991.683	26.2933
993.341	26.0851
994.998	24.7138
996.655	25.0673
998.312	24.3564
999.969	22.7535
1001.62	23.0194
1003.28	22.4549
1004.94	22.6293
1006.59	21.7798
1008.25	21.5211
1009.9	21.8587
1011.56	21.5567
1013.21	21.1048
1014.86	20.6591
1016.52	19.9102
1018.17	19.4891
1019.82	18.2525
1021.48	17.6703
1023.13	17.2085
1024.78	16.14
1026.43	15.7837
1028.08	16.4114
1029.73	15.5744
1031.38	14.8563
1033.03	13.9635
1034.68	13.0626
1036.33	13.4158
1037.98	11.4657
1039.63	11.1514
1041.28	9.85019
1042.93	9.38844
1044.57	9.38308
1046.22	10.4438
1047.87	11.4049
1049.52	11.3833
1051.16	11.9595
1052.81	11.8206
1054.45	11.3452
1056.1	9.93692
1057.75	9.50147
1059.39	9.91648
1061.04	8.41035
1062.68	8.51966
1064.32	10.1057
1065.97	9.78155
1067.61	10.1001
1069.25	9.5161
1070.9	9.83181
1072.54	9.99073
1074.18	8.69456
1075.82	9.28125
1077.47	8.86285
1079.11	7.96705
1080.75	7.06371
1082.39	7.48825
1084.03	7.95496
1085.67	7.25949
1087.31	7.4613
1088.95	7.5341
1090.59	7.54122
1092.22	6.66883
1093.86	6.60582
1095.5	7.13421
1097.14	6.90572
1098.78	6.73161
1100.41	6.86418
1102.05	8.28127
1103.69	7.33252
1105.32	7.52662
1106.96	7.41024
1108.59	8.23325
1110.23	8.0492
1111.86	6.53461
1113.5	6.49711
1115.13	5.71964
1116.77	4.98191
1118.4	5.89395
1120.03	5.7726
1121.67	5.61483
1123.3	6.05651
1124.93	7.44378
1126.56	7.31907
1128.19	7.15056
1129.83	6.70131
1131.46	7.56328
1133.09	8.00824
1134.72	7.24127
1136.35	5.86338
1137.98	5.20028
1139.61	4.33724
1141.24	4.70211
1142.86	4.30756
1144.49	4.89547
1146.12	4.81056
1147.75	2.93576
1149.38	3.55522
1151	3.19652
1152.63	3.01933
1154.26	2.62196
1155.88	1.86152
1157.51	3.06436
1159.14	2.92384
1160.76	3.68175
1162.39	4.5507
1164.01	5.69272
1165.63	6.44999
1167.26	6.83898
1168.88	6.58155
1170.51	6.81054
1172.13	6.85217
1173.75	7.60161
1175.38	9.45853
1177	10.7232
1178.62	10.5477
1180.24	11.2121
1181.86	11.4666
1183.48	12.8852
1185.1	13.6705
1186.72	14.5259
1188.34	14.9267
1189.96	15.5892
1191.58	15.1251
1193.2	15.3897
1194.82	16.5401
1196.44	16.8447
1198.06	17.1477
1199.68	19.0883
1201.29	20.0799
1202.91	21.0439
1204.53	21.9975
1206.14	22.3692
1207.76	22.206
1209.38	23.3795
1210.99	24.2488
1212.61	25.7251
1214.22	25.3206
1215.84	25.4697
1217.45	26.0074
1219.07	27.535
1220.68	27.9761
1222.29	29.4871
1223.91	30.0713
1225.52	30.9374
1227.13	32.35
1228.74	33.5882
1230.36	36.3339
1231.97	36.9767
1233.58	39.9892
1235.19	41.5962
1236.8	44.0202
1238.41	46.2108
1240.02	47.1948
1241.63	48.9239
1243.24	49.8681
1244.85	50.9602
1246.46	52.0682
1248.07	51.8923
1249.67	50.9998
1251.28	52.5996
1252.89	52.2716
1254.5	54.5959
1256.1	55.5157
1257.71	55.94
1259.32	56.0863
1260.92	57.1895
1262.53	58.4028
1264.13	59.4496
1265.74	60.4661
1267.34	60.3522
1268.95	60.9287
1270.55	62.1959
1272.15	63.0442
1273.76	64.3732
1275.36	65.8948
1276.97	65.6646
1278.57	66.5164
1280.17	68.0338
1281.77	69.3667
1283.37	69.9558
1284.97	71.1418
1286.58	71.6803
1288.18	73.424
1289.78	75.1645
1291.38	75.0745
1292.98	76.4316
1294.58	77.3836
1296.18	79.4974
1297.78	81.226
1299.37	83.2268
1300.97	83.706
1302.57	85.3253
1304.17	86.9436
1305.77	88.4452
1307.36	90.7743
1308.96	92.7865
1310.55	95.627
1312.15	97.0876
1313.75	99.9432
1315.34	100.545
1316.94	101.431
1318.53	102.143
1320.13	102.913
1321.72	102.481
1323.32	103.017
1324.91	102.669
1326.5	101.745
1328.1	101.673
1329.69	101.912
1331.28	102.624
1332.87	103.043
1334.47	102.817
1336.06	102.364
1337.65	101.318
1339.24	100.085
1340.83	98.3785
1342.42	97.2091
1344.01	95.7321
1345.6	95.9434
1347.19	95.2908
1348.78	94.3315
1350.37	93.98
1351.96	92.218
1353.54	90.4447
1355.13	89.0805
1356.72	86.4049
1358.31	86.4077
1359.89	85.6671
1361.48	84.376
1363.07	82.2854
1364.65	82.747
1366.24	81.4024
1367.82	79.7247
1369.41	77.964
1370.99	75.6507
1372.58	75.0367
1374.16	74.0704
1375.75	73.5722
1377.33	73.1607
1378.91	71.3036
1380.5	69.3877
1382.08	68.7958
1383.66	68.1335
1385.25	67.5952
1386.83	67.5804
1388.41	67.445
1389.99	66.4654
1391.57	64.9922
1393.15	64.4923
1394.73	64.0784
1396.31	62.9223
1397.89	63.1406
1399.47	61.7337
1401.05	59.9453
1402.63	61.2043
1404.21	60.634
1405.78	59.9138
1407.36	59.8828
1408.94	59.049
1410.52	58.2152
1412.1	58.7425
1413.67	57.8175
1415.25	58.7618
1416.82	57.6257
1418.4	58.3944
1419.98	60.0095
1421.55	60.474
1423.13	62.1927
1424.7	64.44
1426.28	65.0967
1427.85	66.7066
1429.42	68.5571
1431	69.3372
1432.57	72.0342
1434.14	74.5201
1435.71	75.709
1437.29	77.6719
1438.86	79.0162
1440.43	80.2766
1442	81.1702
1443.57	82.0661
1445.14	80.2669
1446.71	79.4539
1448.28	79.6481
1449.85	79.3617
1451.42	78.3559
1452.99	77.8886
1454.56	77.27
1456.13	75.9488
1457.7	74.0798
1459.26	72.7589
1460.83	71.0592
1462.4	70.1578
1463.97	68.0792
1465.54	67.5719
1467.1	66.2424
1468.67	63.5548
1470.23	61.6807
1471.8	60.1819
1473.36	57.6889
1474.93	53.6212
1476.49	51.4857
1478.06	48.5048
1479.62	45.9498
1481.19	44.032
1482.75	40.4704
1484.31	37.4941
1485.88	36.6053
1487.44	34.7678
1489	33.1042
1490.56	31.088
1492.13	29.2065
1493.69	28.9457
1495.25	27.9529
1496.81	27.1398
1498.37	27.0218
1499.93	25.7894
1501.49	26.9121
1503.05	28.2098
1504.61	28.0233
1506.17	29.0405
1507.73	28.6966
1509.28	29.8434
1510.84	31.063
1512.4	30.4156
1513.96	30.255
1515.52	29.9552
1517.07	31.2764
1518.63	31.4614
1520.19	30.8976
1521.74	31.4132
1523.3	32.2254
1524.85	33.9437
1526.41	34.8888
1527.96	37.2025
1529.52	38.9471
1531.07	41.4089
1532.63	43.3021
1534.18	44.678
1535.73	46.8644
1537.29	48.561
1538.84	50.9839
1540.39	53.1504
1541.94	55.8163
1543.5	58.2599
1545.05	59.1215
1546.6	60.1983
1548.15	62.164
1549.7	63.8101
1551.25	65.55
1552.8	67.566
1554.35	69.9794
1555.9	73.6984
1557.45	76.2164
1559	79.3398
1560.55	81.903
1562.1	84.5523
1563.65	87.3303
1565.19	89.9002
1566.74	92.1541
1568.29	94.867
1569.83	97.7541
1571.38	99.4902
1572.93	99.9984
1574.47	101.191
1576.02	104.285
1577.56	105.224
1579.11	107.777
1580.66	109.853
1582.2	110.611
1583.74	110.878
1585.29	112.098
1586.83	113.717
1588.38	113.394
1589.92	113.293
1591.46	114.523
1593.01	114.443
1594.55	115.443
1596.09	114.744
1597.63	114.214
1599.17	113.935
1600.71	113.449
1602.25	112.416
1603.79	111.191
1605.34	109.85
1606.88	108.037
1608.41	106.931
1609.95	106.034
1611.49	103.312
1613.03	101.746
1614.57	99.6342
1616.11	97.1345
1617.65	94.6599
1619.18	92.7472
1620.72	90.0826
1622.26	88.6764
1623.79	87.2381
1625.33	85.1902
1626.87	83.1204
1628.4	82.0148
1629.94	80.3216
1631.48	79.0616
1633.01	78.4349
1634.55	75.698
1636.08	73.5275
1637.61	70.5645
1639.15	68.5872
1640.68	68.0287
1642.21	66.4205
1643.75	64.0985
1645.28	63.0747
1646.81	61.29
1648.34	60.3197
1649.88	59.9762
1651.41	59.3401
1652.94	59.1335
1654.47	57.7826
1656	57.2214
1657.53	55.7297
1659.06	55.2357
1660.59	54.1475
1662.12	53.7556
1663.65	52.9078
1665.18	51.6351
1666.71	51.1068
1668.24	50.5131
1669.76	47.931
1671.29	46.7027
1672.82	44.7491
1674.35	43.576
1675.87	41.0435
1677.4	39.5659
1678.93	38.9395
1680.45	37.8263
1681.98	36.5495
1683.5	36.3527
1685.03	34.6541
1686.55	32.0484
1688.08	28.6613
1689.6	28.1195
1691.13	25.7678
1692.65	24.2282
1694.17	23.0901
1695.7	22.1127
1697.22	21.6007
1698.74	21.151
1700.27	19.5889
1701.79	17.9877
1703.31	16.7263
1704.83	15.6601
1706.35	13.8687
1707.87	13.0968
1709.39	12.3954
1710.91	11.2712
1712.43	10.2548
1713.95	8.94944
1715.47	8.55368
1716.99	8.91775
1718.51	8.70391
1720.03	8.79106
1721.55	8.44947
1723.07	7.84971
1724.58	8.47675
1726.1	7.79886
1727.62	7.47698
1729.13	8.19862
1730.65	8.58432
1732.17	8.37127
1733.68	8.51905
1735.2	9.48582
1736.72	9.07884
1738.23	8.35993
1739.74	9.17269
1741.26	8.49295
1742.77	7.37813
1744.29	6.68703
1745.8	5.66957
1747.32	5.48874
1748.83	4.77232
1750.34	4.87341
1751.85	4.19644
1753.37	4.12632
1754.88	3.9628
1756.39	3.38375
1757.9	2.77885
1759.41	2.24047
1760.92	1.55331
1762.44	1.85552
1763.95	1.58144
1765.46	1.62029
1766.96	0.836931
1768.47	1.54588
1769.98	1.84661
1771.49	2.00988
1773	2.0286
1774.51	1.76542
1776.02	1.44711
1777.53	1.04928
1779.03	0.809858
1780.54	0.851344
1782.05	1.13947
1783.55	1.52362
1785.06	1.8977
1786.57	2.08758
1788.07	1.93489
1789.58	2.04499
1791.08	2.94098
1792.59	4.08597
1794.09	4.39069
1795.6	4.85063
1797.1	4.94653
1798.61	5.9567
1800.11	6.27336
1801.61	6.30522
1803.12	6.54418
1804.62	6.94055
1806.12	6.18216
1807.62	6.02475
1809.12	6.65159
1810.63	6.78811
1812.13	6.77085
1813.63	6.46148
1815.13	6.5821
1816.63	5.84049
1818.13	5.30514
1819.63	6.07468
1821.13	5.4759
1822.63	5.47699
1824.13	6.10756
1825.63	6.12061
1827.13	5.38022
1828.62	5.61953
1830.12	6.17876
1831.62	5.75825
1833.12	5.16585
1834.61	5.14359
1836.11	5.61914
1837.61	5.19788
1839.1	3.84747
1840.6	4.13291
1842.09	4.42768
1843.59	5.29058
1845.09	5.48
1846.58	5.34828
1848.08	5.69613
1849.57	6.04455
1851.06	7.17041
1852.56	6.96771
1854.05	6.34459
1855.54	6.41308
1857.04	7.23342
1858.53	7.28993
1860.02	8.16562
1861.51	7.88532
1863.01	8.14236
1864.5	9.42868
1865.99	9.55993
1867.48	10.5204
1868.97	10.91
1870.46	11.5209
1871.95	10.8513
1873.44	11.491
1874.93	11.3411
1876.42	11.3833
1877.91	11.1723
1879.4	11.5591
1880.89	11.0203
1882.37	11.7266
1882.46	12.6251
1883.95	12.1572
1885.45	11.9163
1886.94	11.7624
1888.43	11.5147
1889.93	11.9343
1891.42	11.9989
1892.91	12.039
1894.41	11.7927
1895.9	12.8624
1897.39	12.3225
1898.88	11.3192
1900.37	10.7392
1901.86	10.936
1903.36	11.2198
1904.85	10.7849
1906.34	11.3512
1907.83	11.5895
1909.32	11.3083
1910.81	11.6588
1912.29	11.2432
1913.78	12.039
1915.27	12.0257
1916.76	12.8146
1918.25	12.1502
1919.74	11.7748
1921.23	10.9557
1922.71	11.9266
1924.2	11.6454
1925.69	11.396
1927.17	11.4058
1928.66	11.581
1930.15	11.3068
1931.63	10.8945
1933.12	10.4853
1934.6	10.444
1936.09	10.6652
1937.57	11.6295
1939.06	11.144
1940.54	11.7166
1942.02	10.9579
1943.51	10.7655
1944.99	10.2384
1946.47	10.8501
1947.96	10.3073
1949.44	10.0766
1950.92	10.7623
1952.4	9.68703
1953.88	8.54592
1955.37	8.50494
1956.85	7.82798
1958.33	6.46819
1959.81	6.53992
1961.29	6.25592
1962.77	5.14274
1964.25	5.47219
1965.73	5.38372
1967.21	5.37949
1968.69	5.40678
1970.16	4.38244
1971.64	3.07364
1973.12	3.07618
1974.6	3.00189
1976.08	3.26574
1977.55	3.99597
1979.03	3.64234
1980.51	3.49555
1981.98	3.65112
1983.46	3.48951
1984.94	4.21783
1986.41	3.91543
1987.89	3.86298
1989.36	3.94438
1990.84	3.94334
1992.31	3.18761
1993.79	3.87099
1995.26	4.70531
1996.73	6.60148
1998.21	5.7247
1999.68	6.85942
2001.15	5.38795
2002.63	4.62196
2004.1	4.39689
2005.57	5.31299
2007.04	5.65755
2008.51	6.04136
2009.99	6.22854
2011.46	7.13987
2012.93	6.5762
2014.4	6.66478
2015.87	6.74038
2017.34	6.35401
2018.81	6.03314
2020.28	6.12334
2021.75	5.41783
2023.21	4.41994
2024.68	4.31104
2026.15	3.72402
2027.62	3.95349
2029.09	4.26905
2030.56	3.81954
2032.02	3.74894
2033.49	4.23033
2034.96	3.97115
2036.42	3.67804
2037.89	3.35332
2039.36	3.67058
2040.82	2.94079
2042.29	2.24176
2043.75	1.856
2045.22	2.13628
2046.68	1.8644
2048.14	1.81887
2049.61	2.07438
2051.07	2.01485
2052.54	1.57151
2054	1.64103
2055.46	2.15698
2056.93	2.20974
2058.39	3.01953
2059.85	2.92601
2061.31	2.72335
2062.77	3.9664
2064.23	4.07062
2065.7	5.41579
2067.16	7.14931
2068.62	7.17721
2070.08	7.64314
2071.54	6.98786
2073	7.808
2074.46	7.49436
2075.92	8.53934
2077.38	10.5113
2078.83	11.5595
2080.29	12.281
2081.75	13.0944
2083.21	14.1921
2084.67	14.2331
2086.12	14.7597
2087.58	15.5753
2089.04	15.9107
2090.49	15.6668
2091.95	15.5593
2093.41	16.0747
2094.86	16.1026
2096.32	16.646
2097.77	17.3589
2099.23	17.7538
2100.68	16.661
2102.14	16.8551
2103.59	16.3945
2105.05	16.6434
2106.5	16.6278
2107.95	15.79
2109.41	15.4008
2110.86	15.8886
2112.31	16.6612
2113.76	16.9517
2115.21	17.902
2116.67	17.8353
2118.12	17.7805
2119.57	17.4638
2121.02	18.2176
2122.47	18.1841
2123.92	18.8453
2125.37	18.681
2126.82	18.6877
2128.27	19.1237
2129.72	18.8505
2131.17	19.5366
2132.62	19.7831
2134.07	20.3688
2135.51	21.4165
2136.96	21.5664
2138.41	22.6338
2139.86	23.575
2141.31	22.7056
2142.75	24.0121
2144.2	25.2511
2145.65	26.1152
2147.09	27.2016
2148.54	28.7117
2149.98	31.1027
2151.43	31.2413
2152.87	33.0006
2154.32	33.676
2155.76	33.8645
2157.21	34.1711
2158.65	35.0152
2160.1	34.7919
2161.54	34.8246
2162.98	34.1187
2164.43	34.0875
2165.87	34.8474
2167.31	35.5301
2168.75	36.1261
2170.2	36.2007
2171.64	36.271
2173.08	36.5778
2174.52	37.2385
2175.96	36.6628
2177.4	37.428
2178.84	37.0808
2180.28	37.5277
2181.72	38.6488
2183.16	38.9435
2184.6	38.7259
2186.04	39.1736
2187.48	38.2785
2188.92	36.8818
2190.36	36.3072
2191.79	36.0467
2193.23	35.7341
2194.67	35.0047
2196.11	34.0247
2197.54	32.8236
2198.98	32.5433
2200.42	33.0812
2201.85	32.4836
2203.29	32.7903
2204.72	33.1603
2206.16	32.9054
2207.59	32.5244
2209.03	32.0215
2210.46	31.2766
2211.9	30.8874
2213.33	30.172
2214.77	31.513
2216.2	32.0761
2217.63	31.5974
2219.07	32.7446
2220.5	33.5862
2221.93	33.8104
2223.36	33.0426
2224.8	32.2379
2226.23	31.6582
2227.66	30.4195
2229.09	30.1542
2230.52	29.3997
2231.95	28.6214
2233.39	28.3199
2234.81	27.0886
2236.25	27.2812
2237.67	27.8423
2239.1	28.0695
2240.53	27.1506
2241.96	25.6179
2243.39	24.4749
2244.82	24.9677
2246.25	24.1355
2247.68	23.1275
2249.1	23.5641
2250.53	22.7468
2251.96	22.363
2253.38	22.0037
2254.81	20.2225
2256.24	19.7731
2257.66	19.4645
2259.09	19.1144
2260.51	17.8811
2261.94	17.6133
2263.36	17.6477
2264.79	17.9927
2266.21	17.8946
2267.64	17.5714
2269.06	17.4453
2270.49	17.1701
2271.91	16.4917
2273.33	15.8316
2274.76	16.0739
2276.18	16.3693
2277.6	15.2224
2279.02	14.3977
2280.44	14.6864
2281.87	14.661
2283.29	14.5578
2284.71	15.2854
2286.13	15.4836
2287.55	15.7119
2288.97	15.3868
2290.39	15.1906
2291.81	13.8029
2293.23	13.2037
2294.65	12.9738
2296.07	13.2489
2297.49	14.2507
2298.91	14.8358
2300.33	15.921
2301.74	15.9578
2303.16	16.3981
2304.58	17.6023
2306	18.6133
2307.41	19.9271
2308.83	20.8473
2310.25	20.6151
2311.66	20.218
2313.08	19.7553
2314.5	20.6536
2315.91	21.912
2317.33	21.4595
2318.74	21.1678
2320.16	21.4634
2321.57	21.5103
2322.98	21.5171
2324.4	21.6235
2325.81	21.0203
2327.23	21.8172
2328.64	21.3283
2330.05	20.7876
2331.46	19.8611
2332.88	20.0757
2334.29	20.1074
2335.7	18.7724
2337.11	16.7645
2338.52	15.907
2339.94	14.7002
2341.35	14.5727
2342.76	13.7332
2344.17	13.0225
2345.58	12.0565
2346.99	10.6755
2348.4	9.88243
2349.81	9.45293
2351.22	8.61397
2352.62	7.09435
2354.03	6.13384
2355.44	5.57621
2356.85	4.34542
2358.26	4.30593
2359.67	3.59635
2361.07	2.95802
2362.48	2.47554
2363.89	3.50714
2365.29	4.96086
2366.7	5.69276
2368.11	5.47346
2369.51	6.02943
2370.92	5.68554
2372.32	5.232
2373.73	4.61469
2375.13	5.35552
2376.54	4.85916
2377.94	4.38663
2379.35	3.7028
2380.75	3.26702
2382.15	3.04353
2383.56	3.57849
2384.96	4.19547
2386.36	4.44039
2387.76	4.57642
2389.17	5.03437
2390.57	5.3974
2391.97	6.08451
2393.37	5.61144
2394.77	5.44809
2396.17	5.59615
2397.58	6.59461
2398.98	5.90862
2400.38	6.36863
2401.78	7.08177
2403.18	7.69816
2404.58	8.0706
2405.97	7.56485
2407.37	8.81171
2408.77	9.8107
2410.17	9.73791
2411.57	10.0405
2412.97	9.77226
2414.37	9.4817
2415.76	10.3173
2417.16	11.0205
2418.56	12.3139
2419.95	12.5144
2421.35	12.2153
2422.75	12.3825
2424.14	13.0846
2425.54	12.7203
2426.93	13.3517
2428.33	14.6618
2429.72	14.0115
2431.12	13.9155
2432.51	13.868
2433.91	13.6199
2435.3	13.7601
2436.7	12.0572
2438.09	10.6078
2439.48	9.94637
2440.88	9.8367
2442.27	9.06751
2443.66	8.39847
2445.05	8.71549
2446.44	8.51988
2447.84	8.63203
2449.23	8.92704
2450.62	9.3435
2452.01	9.20297
2453.4	8.86133
2454.79	7.95404
2456.18	7.08943
2457.57	6.46644
2458.96	6.08241
2460.35	5.63026
2461.74	5.15468
2463.13	5.09615
2464.52	4.97396
2465.91	5.89739
2467.29	6.44567
2468.68	5.45357
2470.07	5.5659
2471.46	6.01964
2472.85	5.65914
2474.23	5.90347
2475.62	5.90248
2477.01	6.46517
2478.39	5.91623
2479.78	5.14727
2481.16	5.51434
2482.55	6.12122
2483.93	6.58086
2485.32	7.22106
2486.7	6.68246
2488.09	7.27145
2489.47	7.01984
2490.86	6.21794
2492.24	6.02438
2493.62	5.75881
2495.01	5.39709
2496.39	5.49521
2497.77	4.81655
2499.15	3.55404
2500.54	2.91822
2501.92	2.37149
2503.3	2.16718
2504.68	2.55648
2506.06	2.22181
2507.45	2.1476
2508.83	3.3529
2510.21	4.49014
2511.59	4.43405
2512.97	5.04731
2514.35	5.41127
2515.73	5.70201
2517.11	5.74706
2518.48	4.82016
2519.86	4.59989
2521.24	3.03
2522.62	3.2956
2524	2.8505
2525.38	2.56587
2526.75	2.50084
2528.13	2.4428
2529.51	2.47756
2530.89	2.51437
2532.26	3.61103
2533.64	3.4947
2535.02	3.54635
2536.39	2.93857
2537.77	2.18203
2539.14	3.303
2540.52	4.26335
2541.89	4.68677
2543.27	4.7029
2544.64	4.49972
2546.01	4.46295
2547.39	4.02953
2548.76	3.98926
2550.14	4.73804
2551.51	4.34619
2552.88	4.03462
2554.25	3.9318
2555.63	4.16929
2557	3.83011
2558.37	2.75464
2559.74	1.79933
2561.11	2.15256
2562.49	2.4573
2563.86	2.44115
2565.23	2.7167
2566.6	2.49178
2567.97	2.50638
2569.34	2.67797
2570.71	3.55966
2572.08	4.63739
2573.45	4.26519
2574.82	4.78602
2576.18	4.98555
2577.55	5.88132
2578.92	6.34876
2580.29	6.53895
2581.66	6.25753
2583.02	5.5945
2584.39	5.91575
2585.76	5.62817
2587.13	5.13637
2588.49	6.22104
2589.86	5.59031
2591.22	5.47297
2592.59	4.91515
2593.96	4.58493
2595.32	4.24616
2596.69	4.81367
2598.05	4.93381
2599.42	4.87447
2600.78	5.04309
2602.14	4.01539
2603.51	4.21878
2604.87	4.25199
2606.23	4.88472
2607.6	5.48081
2608.96	5.34294
2610.32	5.30532
2611.69	4.74188
2613.05	5.28997
2614.41	5.07255
2615.77	4.48523
2617.13	4.98875
2618.49	4.43599
2619.86	3.83016
2621.22	3.06651
2622.58	1.87755
2623.94	1.10048
2625.3	0.553779
2626.66	1.08951
2628.02	1.44852
2629.37	1.80373
2630.73	2.51756
2632.09	2.56433
2633.45	3.39529
2634.81	3.05275
2636.17	3.28396
2637.53	3.53129
2638.88	3.7086
2640.24	4.36111
2641.6	3.82566
2642.96	4.41366
2644.31	4.28497
2645.67	5.01165
2647.02	5.73228
2648.38	5.36199
2649.74	4.96732
2651.09	5.35077
2652.45	5.81124
2653.8	5.53252
2655.16	5.79678
2656.51	5.37359
2657.86	4.55157
2659.22	4.69989
2660.57	5.04621
2661.93	5.03592
2663.28	5.23014
2664.63	5.51646
2665.98	5.36221
2667.34	5.86703
2668.69	6.00921
2670.04	6.64887
2671.39	7.63143
2672.75	7.28423
2674.09	7.4585
2675.45	7.11699
2676.8	7.29071
2678.15	7.34199
2679.5	7.0535
2680.85	6.66626
2682.2	6.16276
2683.55	5.16129
2684.9	4.59542
2686.25	3.6102
2687.6	3.02091
2688.94	2.33502
2690.29	2.47626
2691.64	3.42779
2692.99	4.43646
2694.34	4.67759
2695.68	4.59538
2697.03	4.45249
2698.38	4.99218
2699.73	4.01309
2701.07	3.92294
2702.42	3.17904
2703.76	2.85322
2705.11	2.04347
2706.45	2.16462
2707.8	2.6797
2709.15	2.33823
2710.49	2.1893
2711.83	2.11624
2713.18	2.54492
2714.52	3.32998
2715.87	3.22345
2717.21	4.20703
2718.55	4.64897
2719.9	4.73113
2721.24	4.36364
2722.58	4.30527
2723.93	4.23159
2725.27	5.30753
2726.61	6.42248
2727.95	6.38312
2729.29	7.09302
2730.63	6.82576
2731.98	7.36571
2733.32	7.36095
2734.66	7.87244
2736	7.83554
2737.34	8.93036
2738.68	8.64404
2740.02	8.05827
2741.36	8.0479
2742.7	8.14709
2744.03	8.86412
2745.37	8.84116
2746.71	8.21632
2748.05	8.35309
2749.39	8.28777
2750.72	7.40886
2752.06	7.62931
2753.4	7.67628
2754.74	7.58655
2756.07	7.21656
2757.41	6.8983
2758.75	7.49691
2760.08	7.15972
2761.42	5.82833
2762.76	4.79807
2764.09	3.79243
2765.42	4.31271
2766.76	3.32803
2768.09	2.90566
2769.43	2.66842
2770.76	1.90074
2772.1	1.57494
2773.43	1.90729
2774.76	1.83922
2776.1	1.41071
2777.43	1.5503
2778.76	2.01533
2780.1	2.49444
2781.43	2.42165
2782.76	1.87051
2784.09	1.96263
2785.42	1.09328
2786.75	0.893807
2788.09	0.0970198
2789.42	0.458492
2790.75	0.40173
2792.08	0.69358
2793.41	0.361056
2794.74	0.252578
2796.07	0.190905
2797.4	-0.0594919
2798.73	0.00806625
2800.06	-0.239285
2801.39	-0.0766546
2802.71	-0.429302
2804.04	0.0204397
2805.37	-0.517539
2806.7	-0.762145
2808.03	-0.841582
2809.35	-0.844346
2810.68	-0.237697
2812.01	-1.09282
2813.33	-1.73644
2814.66	-1.50486
2815.99	-2.03035
2817.31	-2.13628
2818.64	-1.71023
2819.96	-1.1342
2821.29	-0.207014
2822.61	0.231783
2823.94	1.59619
2825.26	3.69282
2826.59	5.07886
2827.91	7.12919
2829.23	9.6189
2830.56	11.6695
2831.88	14.7382
2833.21	15.7483
2834.53	18.7265
2835.85	21.2029
2837.17	23.0782
2838.5	26.1809
2839.82	29.0212
2841.14	31.7675
2842.46	34.9539
2843.78	38.4492
2845.1	41.5341
2846.42	45.0117
2847.74	48.5021
2849.06	52.5822
2850.38	56.6329
2851.71	60.4116
2853.03	62.961
2854.34	66.2094
2855.66	70.7888
2856.98	73.5231
2858.3	77.1728
2859.62	80.1871
2860.94	83.2395
2862.26	85.4474
2863.57	87.5636
2864.89	90.047
2866.21	92.4921
2867.53	94.3367
2868.84	96.4288
2870.16	98.3271
2871.48	99.5929
2872.79	100.904
2874.11	102.806
2875.42	104.399
2876.74	105.779
2878.05	106.683
2879.37	107.9
2880.68	109.047
2882	110.015
2883.31	112.088
2884.63	113.67
2885.94	115.325
2887.26	116.553
2888.57	118.256
2889.88	120.174
2891.19	122.883
2892.51	124.601
2893.82	126.931
2895.13	128.442
2896.44	130.087
2897.76	132.755
2899.07	134.591
2900.38	137.421
2901.69	140.021
2903	143.159
2904.31	146.488
2905.62	150.099
2906.93	154.172
2908.24	158.634
2909.55	162.955
2910.86	166.858
2912.17	170.951
2913.48	173.977
2914.79	177.974
2916.1	181.101
2917.41	183.514
2918.71	185.939
2920.02	189.411
2921.33	191.842
2922.64	192.995
2923.94	194.004
2925.25	194.986
2926.56	195.7
2927.86	196.435
2929.17	196.081
2930.48	195.549
2931.78	193.941
2933.09	192.368
2934.39	191.372
2935.7	189.946
2937	188.408
2938.31	186.523
2939.61	184.395
2940.92	181.294
2942.22	178.206
2943.53	174.851
2944.83	171.409
2946.13	167.762
2947.43	164.254
2948.74	161.478
2950.04	157.108
2951.34	153.922
2952.64	150.038
2953.95	146.656
2955.25	143.781
2956.55	140.672
2957.85	136.348
2959.15	133.435
2960.45	129.087
2961.75	125.804
2963.05	122.473
2964.35	119.247
2965.65	117.089
2966.95	114.505
2968.25	111.685
2969.55	108.675
2970.85	106.051
2972.15	103.83
2973.45	100.873
2974.75	98.4456
2976.05	95.6806
2977.34	92.6908
2978.64	89.007
2979.94	86.6293
2981.24	83.3545
2982.53	80.1296
2983.83	77.1051
2985.13	73.1968
2986.42	69.5491
2987.72	65.8904
2989.01	62.2313
2990.31	59.7965
2991.61	56.2086
2992.9	52.8617
2994.19	49.4076
2995.49	45.9492
2996.78	43.2118
2998.08	40.274
2999.37	37.887
3000.67	35.3687
3001.96	32.0756
3003.25	30.1642
3004.55	27.8341
3005.84	25.2987
3007.13	23.5227
3008.42	21.4728
3009.72	19.9464
3011.01	18.2995
3012.3	16.9853
3013.59	16.3242
3014.88	14.1108
3016.17	12.8947
3017.46	11.0909
3018.76	11.2149
3020.05	10.631
3021.34	9.57175
3022.63	8.72509
3023.92	8.56627
3025.21	6.65778
3026.49	7.00686
3027.78	7.19909
3029.07	7.66374
3030.36	7.56111
3031.65	6.95451
3032.94	7.29133
3034.23	7.87082
3035.51	9.18142
3036.8	10.2308
3038.09	10.3487
3039.38	11.1326
3040.66	10.8923
3041.95	10.606
3043.23	10.4244
3044.52	10.8433
3045.81	10.913
3047.09	11.2855
3048.38	11.2989
3049.66	11.1594
3050.95	12.052
3052.23	12.1031
3053.52	12.1144
3054.8	12.3407
3056.09	11.4044
3057.37	11.1455
3058.65	11.2565
3059.94	10.3581
3061.22	10.0923
3062.5	9.19531
3063.79	8.89703
3065.07	8.57792
3066.35	8.04622
3067.63	7.78883
3068.92	6.2224
3070.2	5.99272
3071.48	5.53274
3072.76	4.38622
3074.04	3.87186
3075.32	3.05409
3076.6	2.269
3077.88	1.30421
3079.16	0.24726
3080.44	0.448965
3081.72	0.443426
3083	1.20187
3084.28	0.610006
3085.56	0.280672
3086.84	-0.23999
3088.12	-0.293286
3089.4	0.0229259
3090.67	1.0116
3091.95	0.875399
3093.23	1.0049
3094.51	1.19937
3095.78	1.44536
3097.06	1.81348
3098.34	2.20094
3099.61	2.46414
3100.89	2.02881
3102.17	2.29049
3103.44	2.51765
3104.72	2.242
3105.99	2.54228
3107.27	2.61075
3108.54	3.41117
3109.82	3.91265
3111.09	4.50525
3112.37	4.77886
3113.64	5.00317
3114.92	5.23564
3116.19	4.51625
3117.46	4.20773
3118.74	4.56567
3120.01	4.38886
3121.28	5.13386
3122.55	5.54572
3123.83	5.12491
3125.1	5.3232
3126.37	5.24199
3127.64	5.36671
3128.91	5.85221
3130.19	5.61772
3131.46	5.23348
3132.73	5.55397
3134	6.22112
3135.27	5.99645
3136.54	6.20835
3137.81	6.93381
3139.08	7.57541
3140.35	8.47016
3141.62	9.51513
3142.89	10.6455
3144.16	11.7547
3145.42	12.9414
3146.69	13.7404
3147.96	15.9877
3149.23	18.2814
