#Acq. time (s)=	45
#Accumulations=	2
#Range (cm-¹)=	200...3150
#Windows=	2
#Auto scanning=	Off
#Autofocus=	Off
#Macrospot=	Off
#AutoExposure=	Off
#Spike filter=	Multiple accum.
#Delay time (s)=	0
#Binning=	1
#Readout mode=	Signal
#DeNoise=	Off
#ICS correction=	On
#Dark correction=	Off
#Inst. Process=	Off
#Detector Gain=	Best Dynamic Range
#Detector ADC=	20 kHz       
#Detector temperature (°C)=	-69.85
#Instrument=	LabRAM HR Evol
#Detector=	Synapse
#Objective=	x100
#Grating=	600 gr/mm
#ND Filter=	100%
#Laser (nm)=	532 
#Hole=	100.021
#Range=	Auto
#Laser Pol.=	No
#Raman. Pol.=	No
#Laser Pol. (°)=	-0.0007625
#Raman Pol. (°)=	89.9995
#Collection=	Microscope
#StageXY=	Marzhauser
#StageZ=	Marzhauser
#X (µm)=	1955.5
#Y (µm)=	-78.7
#Z (µm)=	425.95
#Full time(mm:ss)=	3:18
#Project=	
#Sample=	
#Site=	
#Title=	Thy_40_11_07_2x_45s_532 nm_x100_100%_600 gr_mm
#Remark=	
#Date=	05.07.2022 10:21
#Acquired=	05.07.2022 10:21:50
#Base:Fit=	10.08.2022 10:00:48
#Base:Fit=	10.08.2022 10:01:07
#Base:Fit=	10.08.2022 10:01:15
#Base:Fit=	10.08.2022 10:01:35
#Base:Sub=	10.08.2022 10:01:52
#Filter:Polynom=	16.08.2022 10:21:53
#AxisType[0]=Intens
#AxisUnit[0]=Cnt
#AxisType[1]=Spectr
#AxisUnit[1]=1/cm
200.43	7.95556
202.244	11.0832
204.059	11.9746
205.873	12.2266
207.688	12.3761
209.501	12.1385
211.314	11.8694
213.127	11.4671
214.941	10.4375
216.753	9.8646
218.564	9.7044
220.375	9.89817
222.186	9.90852
223.999	9.03182
225.809	8.11455
227.618	7.40841
229.428	7.48417
231.236	5.68341
233.045	5.6743
234.855	4.77577
236.663	5.22236
238.471	5.03174
240.278	3.46882
242.085	3.54461
243.891	3.44255
245.698	3.65292
247.503	2.98302
249.309	2.51498
251.116	2.19293
252.921	2.01979
254.725	1.81765
256.529	2.24327
258.333	2.0731
260.136	3.76176
261.939	4.02987
263.742	3.93865
265.544	4.74917
267.346	6.1797
269.148	6.36546
270.949	4.7563
272.75	4.01446
274.55	4.39951
276.351	5.48916
278.15	4.77412
279.95	4.49573
281.749	4.22873
283.548	4.20863
285.346	3.79233
287.144	4.14344
288.942	5.31402
290.739	5.48861
292.536	4.99322
294.333	5.8686
296.129	6.88402
297.925	7.69716
299.721	8.81268
301.514	8.79752
303.309	9.39697
305.104	9.88474
306.898	10.9419
308.692	11.8371
310.486	11.2309
312.279	10.9116
314.072	10.0947
315.862	10.2439
317.654	10.6321
319.446	10.6366
321.238	10.2817
323.029	11.3303
324.819	10.3858
326.608	10.9714
328.398	10.8676
330.188	10.5139
331.977	11.5089
333.766	11.5725
335.553	12.3439
337.341	12.6347
339.129	12.5119
340.917	12.9377
342.704	13.6486
344.489	14.3718
346.275	13.862
348.062	13.4334
349.845	13.4599
351.631	11.4902
353.416	12.1672
355.201	10.9496
356.984	10.871
358.768	10.1486
360.552	9.75607
362.333	10.0852
364.116	10.8625
365.899	10.8137
367.68	9.8861
369.462	10.6211
371.243	11.1889
373.023	11.4763
374.804	11.8848
376.585	11.8187
378.363	13.2138
380.143	13.8739
381.923	14.2679
383.7	15.241
385.479	14.7647
387.256	14.1669
389.034	13.2427
390.812	13.0215
392.588	13.2849
394.365	12.3467
396.14	12.093
397.916	11.1024
399.691	10.3477
401.467	10.0447
403.24	8.87957
405.015	8.94113
406.788	8.99889
408.563	8.66847
410.335	7.96237
412.109	6.53243
413.88	6.27066
415.654	7.1647
417.424	6.49743
419.197	6.26631
420.967	5.40144
422.739	5.96085
424.508	6.46478
426.279	6.56611
428.048	6.39939
429.819	6.90526
431.587	6.85449
433.356	6.52667
435.124	5.44492
436.891	5.79552
438.66	5.74597
440.426	5.90973
442.194	6.63682
443.96	5.80812
445.725	6.84329
447.492	8.48333
449.257	9.2331
451.021	9.07285
452.787	9.81687
454.551	10.2929
456.314	10.8251
458.079	11.8987
459.842	12.7346
461.604	13.3272
463.368	13.7101
465.13	14.7951
466.891	15.51
468.654	15.3464
470.415	15.5591
472.175	15.4896
473.935	15.3277
475.696	16.4473
477.456	17.5971
479.215	18.0075
480.973	17.7969
482.733	19.229
484.491	19.6692
486.249	19.9894
488.006	20.941
489.765	21.0761
491.522	21.691
493.278	23.3836
495.034	24.069
496.789	23.7519
498.544	23.3848
500.301	23.8936
502.056	25.1856
503.81	25.2525
505.564	24.3586
507.317	25.1797
509.071	24.9282
510.825	26.7499
512.578	26.3284
514.33	26.0267
516.082	26.391
517.833	26.6234
519.585	26.541
521.335	26.7865
523.086	26.5549
524.836	26.1302
526.586	25.1415
528.335	24.6798
530.085	24.0352
531.835	24.1836
533.584	24.8388
535.332	24.4951
537.08	23.0405
538.827	22.4804
540.574	22.4677
542.321	22.6909
544.068	22.6512
545.814	21.9133
547.56	21.0429
549.305	20.6829
551.05	20.3859
552.795	20.8274
554.54	19.3917
556.282	19.625
558.025	19.2776
559.769	19.5232
561.512	20.1965
563.255	19.2537
564.997	18.5716
566.739	16.632
568.481	17.2256
570.223	17.9929
571.964	16.465
573.705	15.5992
575.443	14.4956
577.183	13.6205
578.923	12.8644
580.663	12.0939
582.402	11.1901
584.141	10.5248
585.879	9.93727
587.615	9.53798
589.353	9.67921
591.09	9.11262
592.828	8.48905
594.564	8.79332
596.299	8.17426
598.035	7.35891
599.771	6.86412
601.506	7.3975
603.242	7.26186
604.974	7.03953
606.709	6.60578
608.443	5.97437
610.177	5.70525
611.908	6.1351
613.642	6.46967
615.374	7.3836
617.105	7.62414
618.837	7.60425
620.569	8.12277
622.3	8.67976
624.03	9.77218
625.761	10.2491
627.491	10.5511
629.219	11.2075
630.949	11.1229
632.677	11.4649
634.406	12.2533
636.135	13.6681
637.861	15.0037
639.59	15.6859
641.318	15.1471
643.043	16.6263
644.77	16.9821
646.495	17.5063
648.222	16.9497
649.948	16.9461
651.672	18.1457
653.398	18.8526
655.121	20.8962
656.846	20.5382
658.569	20.3046
660.293	20.6158
662.015	21.725
663.738	22.4033
665.46	23.5539
667.183	24.5808
668.903	25.3013
670.626	25.546
672.346	25.0954
674.067	25.6816
675.787	26.4527
677.508	26.0511
679.226	26.025
680.947	26.5179
682.665	27.3136
684.385	27.3132
686.102	29.1635
687.821	30.0867
689.538	30.1299
691.254	31.3273
692.972	32.3375
694.688	33.5815
696.406	35.7498
698.121	37.53
699.835	38.4974
701.552	39.4607
703.266	40.5141
704.98	41.7929
706.695	43.6794
708.409	44.6632
710.121	44.6959
711.836	44.53
713.548	44.9957
715.26	45.9292
716.973	47.4129
718.685	48.7394
720.396	48.9518
722.108	49.9397
723.818	50.4944
725.528	50.4374
727.238	51.1456
728.949	52.1445
730.658	53.5051
732.367	54.11
734.075	54.9811
735.785	55.5705
737.493	56.7236
739.2	57.7084
740.907	59.0576
742.614	59.7975
744.322	61.0509
746.028	62.1523
747.734	62.2903
749.439	63.8828
751.144	64.9473
752.849	65.9188
754.555	63.2481
756.26	65.2283
757.963	66.9626
759.667	69.6249
761.37	71.5641
763.073	72.45
764.775	73.9703
766.477	75.707
768.179	77.2752
769.883	78.952
771.584	81.1238
773.285	81.7489
774.986	83.0846
776.686	85.2518
778.386	88.2907
780.085	89.4975
781.785	90.3628
783.484	91.8834
785.182	92.6117
786.881	92.033
788.579	92.1524
790.276	92.2594
791.974	91.7363
793.671	91.3441
795.367	90.667
797.064	90.4611
798.76	91.2114
800.456	90.8606
802.151	90.4861
803.846	90.2855
805.541	89.4596
807.234	88.6867
808.928	89.1548
810.622	89.1784
812.315	89.1703
814.008	89.3988
815.701	89.3474
817.394	88.2707
819.086	88.2818
820.778	87.5945
822.468	88.3792
824.159	87.9346
825.85	88.0564
827.541	87.553
829.231	87.06
830.921	86.0261
832.609	85.85
834.298	85.7024
835.987	84.1815
837.676	83.1234
839.364	80.9474
841.051	83.5036
842.738	82.9148
844.426	82.2421
846.113	80.8636
847.798	79.4118
849.484	78.596
851.171	77.3782
852.857	76.7759
854.54	75.9631
856.226	74.9675
857.911	74.4377
859.593	74.3719
861.278	73.3793
862.961	72.2872
864.645	70.0337
866.327	68.9743
868.01	68.1969
869.692	65.5342
871.373	63.5485
873.055	62.0551
874.735	60.678
876.416	59.4836
878.097	58.3482
879.776	57.661
881.457	57.1471
883.135	56.3231
884.815	55.199
886.495	55.6036
888.172	55.1764
889.851	53.1641
891.528	53.163
893.206	53.8744
894.882	53.2643
896.56	52.7548
898.237	52.1477
899.912	51.1309
901.589	51.4761
903.263	51.3727
904.94	50.7593
906.614	50.4071
908.289	51.2316
909.962	51.3831
911.635	50.2537
913.31	49.9404
914.982	48.8844
916.656	49.7732
918.328	48.6977
920.001	48.1907
921.672	47.6646
923.345	47.6455
925.015	47.4354
926.685	47.3361
928.357	46.7531
930.026	46.2936
931.698	45.5846
933.366	44.6683
935.035	44.41
936.705	44.4178
938.373	44.1089
940.041	44.0667
941.71	44.2955
943.377	42.5969
945.044	41.5693
946.712	40.603
948.378	40.3238
950.044	40.3377
951.709	39.4164
953.376	38.7916
955.041	38.2212
956.706	37.3228
958.372	37.5829
960.036	36.9851
961.699	36.0383
963.362	36.5996
965.027	37.0881
966.69	37.3977
968.352	38.976
970.014	39.3379
971.676	38.72
973.339	38.5897
975	39.8881
976.661	40.5661
978.322	40.9287
979.982	40.9965
981.642	42.0225
983.303	42.6003
984.962	43.3658
986.621	42.9441
988.28	42.3203
989.938	42.3231
991.596	42.2214
993.254	41.3956
994.911	40.7029
996.57	40.9283
998.227	40.68
999.884	40.9707
1001.54	40.0873
1003.2	40.3959
1004.85	39.1445
1006.51	38.5203
1008.16	38.3792
1009.82	38.6783
1011.47	38.5826
1013.12	38.283
1014.78	37.8415
1016.43	37.1335
1018.08	36.5441
1019.74	36.0326
1021.39	36.4836
1023.04	36.5624
1024.69	35.7043
1026.34	34.6773
1028	35.2115
1029.65	34.9146
1031.3	34.1827
1032.95	33.9393
1034.6	33.1456
1036.25	32.8022
1037.9	32.456
1039.54	32.9932
1041.19	33.445
1042.84	33.2243
1044.49	33.7883
1046.14	34.992
1047.78	35.6823
1049.43	34.409
1051.08	32.8912
1052.72	32.0692
1054.37	32.6647
1056.02	32.9042
1057.66	33.666
1059.31	33.5517
1060.95	33.24
1062.6	32.2837
1064.24	32.1107
1065.88	31.2124
1067.53	30.1206
1069.17	28.5578
1070.81	28.1561
1072.45	28.2488
1074.1	28.1835
1075.74	29.0363
1077.38	29.6605
1079.02	29.9835
1080.66	29.985
1082.3	29.8357
1083.94	30.4854
1085.58	30.3462
1087.22	30.0522
1088.86	31.1089
1090.5	30.6904
1092.14	29.9963
1093.78	30.7893
1095.42	30.8788
1097.05	30.4365
1098.69	29.7529
1100.33	29.9024
1101.96	30.6115
1103.6	31.2149
1105.24	31.1903
1106.87	30.2625
1108.51	30.5997
1110.14	29.024
1111.78	27.9143
1113.41	27.5467
1115.05	28.1364
1116.68	28.1052
1118.31	28.0127
1119.95	27.71
1121.58	26.9581
1123.21	25.4013
1124.85	24.5179
1126.48	23.3999
1128.11	21.6737
1129.74	20.0395
1131.37	19.0471
1133	19.3864
1134.63	19.6835
1136.26	19.1754
1137.89	18.2184
1139.52	16.9917
1141.15	15.6971
1142.78	14.809
1144.41	13.455
1146.04	12.8236
1147.66	12.4263
1149.29	11.1488
1150.92	10.6592
1152.55	10.2234
1154.17	8.61476
1155.8	7.50956
1157.43	6.45992
1159.05	4.73305
1160.68	3.52859
1162.3	4.21692
1163.93	3.54754
1165.55	3.57442
1167.17	2.48154
1168.8	1.73832
1170.42	1.69952
1172.05	1.8066
1173.67	3.32301
1175.29	4.67764
1176.91	4.92699
1178.54	5.43814
1180.16	6.31855
1181.78	7.23919
1183.4	7.72798
1185.02	8.68951
1186.64	9.13213
1188.26	9.05945
1189.88	8.78059
1191.5	9.31559
1193.12	10.9938
1194.74	12.2696
1196.36	13.2423
1197.97	13.7678
1199.59	13.9066
1201.21	14.4769
1202.83	15.2584
1204.44	15.2335
1206.06	17.2654
1207.68	18.9897
1209.29	20.6122
1210.91	22.6221
1212.52	25.1262
1214.14	26.0493
1215.75	27.0681
1217.37	29.2155
1218.98	31.9746
1220.59	33.2293
1222.21	35.2948
1223.82	36.5447
1225.43	37.6436
1227.05	39.2695
1228.66	41.1282
1230.27	41.8373
1231.88	43.9272
1233.49	46.306
1235.1	48.2205
1236.72	50.5463
1238.33	53.54
1239.94	55.7953
1241.55	58.3361
1243.16	59.856
1244.76	60.2869
1246.37	62.655
1247.98	65.257
1249.59	68.2774
1251.2	70.7971
1252.8	71.7038
1254.41	73.2704
1256.02	74.1967
1257.62	75.1635
1259.23	76.4636
1260.84	76.5505
1262.44	77.2553
1264.05	78.5971
1265.66	79.5957
1267.26	79.8604
1268.86	80.3512
1270.47	81.238
1272.07	82.8428
1273.67	83.753
1275.28	84.1703
1276.88	84.4242
1278.48	84.8171
1280.09	85.6817
1281.69	86.7565
1283.29	88.3079
1284.89	89.359
1286.49	91.2413
1288.09	92.3454
1289.69	92.4086
1291.29	93.4016
1292.89	94.2624
1294.49	94.2203
1296.09	95.728
1297.69	97.2478
1299.29	98.3922
1300.89	98.0495
1302.49	98.6391
1304.08	99.2113
1305.68	99.9635
1307.28	101.541
1308.88	102.478
1310.47	103.465
1312.07	104.468
1313.66	104.891
1315.26	104.517
1316.85	104.524
1318.45	104.133
1320.04	102.791
1321.64	101.717
1323.23	101.371
1324.83	100.824
1326.42	100.721
1328.01	100.164
1329.61	98.4372
1331.2	95.4367
1332.79	93.7982
1334.38	93.0348
1335.97	92.103
1337.56	91.2611
1339.16	90.8756
1340.75	89.2698
1342.34	88.532
1343.93	87.7342
1345.52	85.9937
1347.11	85.1
1348.7	83.7978
1350.29	83.2589
1351.87	82.1193
1353.46	80.3172
1355.05	78.6228
1356.64	77.5435
1358.22	76.4124
1359.81	75.406
1361.4	74.0598
1362.98	73.3822
1364.57	71.5312
1366.16	70.9638
1367.74	70.1176
1369.33	69.2856
1370.91	68.6233
1372.5	65.4567
1374.08	64.2359
1375.67	64.5619
1377.25	66.0322
1378.83	66.1845
1380.41	66.932
1382	66.9926
1383.58	68.4489
1385.16	68.2973
1386.74	69.1252
1388.33	69.8691
1389.91	69.9411
1391.49	70.0267
1393.07	69.4808
1394.65	69.2964
1396.23	68.5901
1397.81	67.7986
1399.39	66.8001
1400.97	67.4424
1402.55	68.0467
1404.13	67.8308
1405.7	69.0427
1407.28	69.206
1408.86	69.2363
1410.44	69.5763
1412.01	71.4013
1413.59	72.4033
1415.17	73.5752
1416.74	74.6667
1418.32	76.493
1419.89	77.7051
1421.47	79.7492
1423.04	81.4114
1424.62	83.9339
1426.19	85.652
1427.77	87.0482
1429.34	88.7908
1430.91	90.2521
1432.49	91.1632
1434.06	92.738
1435.63	94.9703
1437.2	96.7844
1438.78	98.7926
1440.35	100.239
1441.92	101.554
1443.49	102.108
1445.06	103.133
1446.63	103.517
1448.2	103.354
1449.77	102.833
1451.34	102.206
1452.91	104.405
1454.48	106.285
1456.05	106.687
1457.62	105.743
1459.18	104.321
1460.75	102.882
1462.32	101.709
1463.89	99.2918
1465.45	97.0429
1467.02	94.9852
1468.59	92.2842
1470.15	90.1825
1471.72	86.9056
1473.28	83.7997
1474.85	80.9813
1476.41	77.4777
1477.98	74.6654
1479.54	72.1992
1481.1	68.7182
1482.67	66.0682
1484.23	63.6728
1485.79	60.5443
1487.36	57.6928
1488.92	55.0917
1490.48	52.3526
1492.04	50.4619
1493.61	48.0786
1495.17	46.171
1496.73	45.1528
1498.29	43.8765
1499.85	41.6649
1501.41	39.7575
1502.97	39.0907
1504.53	37.7534
1506.09	36.9047
1507.65	37.4993
1509.2	37.7326
1510.76	37.1146
1512.32	37.866
1513.88	38.6447
1515.43	38.4923
1516.99	38.5953
1518.55	38.0222
1520.1	38.1241
1521.66	38.4503
1523.22	39.1374
1524.77	39.6144
1526.33	40.9637
1527.88	42.085
1529.44	43.5166
1530.99	45.4298
1532.54	47.3778
1534.1	48.4618
1535.65	49.9187
1537.21	51.1787
1538.76	54.5451
1540.31	56.76
1541.86	60.1327
1543.42	62.5244
1544.97	66.7196
1546.52	69.037
1548.07	71.924
1549.62	74.572
1551.17	78.1677
1552.72	81.4451
1554.27	84.5186
1555.82	87.6236
1557.37	90.6265
1558.92	93.269
1560.47	96.1716
1562.02	98.1254
1563.56	100.107
1565.11	101.109
1566.66	102.517
1568.21	103.917
1569.75	105.829
1571.3	106.584
1572.85	108.782
1574.39	109.728
1575.94	110.035
1577.49	110.564
1579.03	111.655
1580.57	113.1
1582.12	114.035
1583.66	114.795
1585.21	115.565
1586.75	114.597
1588.3	113.976
1589.84	113.612
1591.38	112.753
1592.92	112.313
1594.47	111.197
1596.01	110.029
1597.55	109.337
1599.09	108.692
1600.63	106.741
1602.17	106.017
1603.71	105.502
1605.25	102.726
1606.79	102.578
1608.33	101.905
1609.87	100.346
1611.41	99.3403
1612.95	98.7662
1614.49	98.9677
1616.03	98.9266
1617.57	98.6504
1619.1	99.9568
1620.64	99.7332
1622.18	100.33
1623.72	101.005
1625.25	102.39
1626.79	103.737
1628.32	104.56
1629.86	104.781
1631.39	105.81
1632.93	106.495
1634.46	108.202
1636	109.411
1637.53	110.339
1639.07	111.706
1640.6	112.336
1642.13	112.479
1643.67	113.17
1645.2	114.452
1646.73	115.991
1648.26	116.733
1649.8	117.737
1651.33	118.166
1652.86	119.175
1654.39	120.373
1655.92	120.705
1657.45	121.057
1658.98	121.094
1660.51	120.837
1662.04	119.591
1663.57	118.623
1665.1	116.981
1666.63	116.093
1668.16	115.334
1669.68	113.002
1671.21	110.712
1672.74	108.702
1674.27	106.068
1675.79	102.704
1677.32	98.5041
1678.85	95.8202
1680.37	92.4416
1681.9	87.9841
1683.42	85.2642
1684.95	81.1629
1686.47	76.5105
1688	73.2666
1689.52	69.7789
1691.05	66.7208
1692.57	63.6814
1694.09	60.9799
1695.62	58.351
1697.14	54.8787
1698.66	52.0869
1700.18	49.6124
1701.71	46.816
1703.23	44.8643
1704.75	42.3786
1706.27	40.8862
1707.79	39.6446
1709.31	38.9884
1710.83	36.9277
1712.35	35.0122
1713.87	33.1089
1715.39	31.9654
1716.91	30.1312
1718.43	28.9917
1719.95	28.6731
1721.47	28.9305
1722.99	28.132
1724.5	26.9882
1726.02	27.2958
1727.54	26.8151
1729.06	26.3943
1730.57	26.5844
1732.09	26.4829
1733.61	26.0902
1735.12	26.2538
1736.64	25.8434
1738.15	25.7815
1739.67	25.6139
1741.18	25.4181
1742.7	26.0672
1744.21	25.5721
1745.72	24.8668
1747.24	24.2224
1748.75	23.6388
1750.26	22.9392
1751.77	21.9876
1753.29	21.5896
1754.8	21.3737
1756.31	20.9829
1757.82	20.4853
1759.33	20.1675
1760.84	19.609
1762.36	18.9488
1763.87	18.8785
1765.38	18.8095
1766.89	17.9658
1768.4	17.2075
1769.91	16.8329
1771.41	16.2227
1772.92	16.025
1774.43	15.3523
1775.94	15.3536
1777.45	15.2492
1778.95	14.9962
1780.46	14.5169
1781.97	14.6826
1783.48	13.9385
1784.98	13.436
1786.49	12.5284
1787.99	12.4474
1789.5	12.0603
1791.01	11.3239
1792.51	10.9209
1794.01	10.6214
1795.52	10.4276
1797.02	9.71215
1798.53	8.99367
1800.03	8.73266
1801.53	8.49261
1803.04	7.9061
1804.54	8.28339
1806.04	8.24747
1807.54	7.66209
1809.05	6.69979
1810.55	6.53612
1812.05	6.93328
1813.55	7.10126
1815.05	6.77862
1816.55	7.43759
1818.05	7.81184
1819.55	7.93768
1821.05	8.23516
1822.55	8.06039
1824.05	8.61944
1825.55	8.63322
1827.05	8.59731
1828.55	8.85275
1830.04	8.89249
1831.54	8.29918
1833.04	8.22723
1834.54	7.15778
1836.03	6.96827
1837.53	6.94685
1839.03	7.12736
1840.52	7.35524
1842.02	6.84891
1843.51	6.55905
1845.01	6.45694
1846.5	5.95282
1848	6.2422
1849.49	5.94188
1850.99	5.96952
1852.48	5.24102
1853.97	5.31168
1855.47	5.14177
1856.96	5.36662
1858.45	4.66699
1859.94	4.45483
1861.44	3.60716
1862.93	2.99243
1864.42	2.32059
1865.91	1.57019
1867.4	1.26797
1868.89	1.27425
1870.38	0.982149
1871.87	0.702833
1873.36	0.929403
1874.85	0.564251
1876.34	-0.0888221
1877.83	0.729878
1879.32	0.329547
1880.81	0.343334
1882.3	0.322066
1882.57	0.909131
1884.07	1.84297
1885.56	2.40644
1887.06	2.56664
1888.55	2.89525
1890.04	4.38111
1891.54	4.84886
1893.03	5.27568
1894.52	5.14556
1896.02	5.95277
1897.51	6.38614
1899	6.56337
1900.49	6.46636
1901.98	7.20479
1903.47	7.43824
1904.96	7.11533
1906.45	8.00999
1907.94	7.69758
1909.43	8.29794
1910.92	8.91653
1912.41	9.04969
1913.9	7.87895
1915.39	6.9789
1916.88	7.13319
1918.37	7.2625
1919.85	7.49964
1921.34	7.62746
1922.83	7.11157
1924.32	7.3256
1925.8	7.18587
1927.29	8.03248
1928.78	7.38985
1930.26	6.93347
1931.75	6.24964
1933.23	5.27692
1934.72	4.2937
1936.2	4.1026
1937.69	3.78916
1939.17	3.35148
1940.66	3.41243
1942.14	3.07666
1943.63	2.49632
1945.11	1.68568
1946.59	1.40851
1948.07	0.620567
1949.56	0.734615
1951.04	1.84958
1952.52	1.32587
1954	2.02886
1955.48	1.27356
1956.96	1.34338
1958.45	1.3043
1959.93	0.892131
1961.41	1.34236
1962.89	1.79813
1964.37	2.61176
1965.85	2.45377
1967.32	2.58008
1968.8	2.76023
1970.28	3.61367
1971.76	3.08378
1973.24	3.72386
1974.72	3.73216
1976.19	4.62693
1977.67	4.0735
1979.15	3.71454
1980.63	4.19869
1982.1	4.12301
1983.58	4.35322
1985.05	4.06883
1986.53	3.81921
1988	3.88105
1989.48	5.4447
1990.95	6.0638
1992.43	6.27668
1993.9	6.85752
1995.38	7.73461
1996.85	8.20031
1998.32	8.58329
1999.8	8.84474
2001.27	8.65278
2002.74	7.84383
2004.22	7.69353
2005.69	7.34497
2007.16	7.11326
2008.63	6.86439
2010.1	6.9335
2011.57	6.79531
2013.04	6.82042
2014.51	7.15343
2015.98	7.01419
2017.45	7.49384
2018.92	7.51941
2020.39	8.03362
2021.86	7.99258
2023.33	8.18975
2024.8	8.13722
2026.27	7.45755
2027.74	6.89244
2029.2	6.83215
2030.67	7.01576
2032.14	7.32329
2033.61	7.09154
2035.07	7.08918
2036.54	7.02684
2038.01	7.58735
2039.47	7.68931
2040.94	7.26721
2042.4	7.28114
2043.87	7.31173
2045.33	7.45924
2046.8	7.50802
2048.26	7.29087
2049.72	7.52041
2051.19	7.21251
2052.65	8.06812
2054.12	8.64077
2055.58	9.00643
2057.04	9.6928
2058.5	10.1254
2059.97	11.1739
2061.43	11.851
2062.89	12.5277
2064.35	13.029
2065.81	14.3014
2067.27	14.8638
2068.73	15.083
2070.19	15.105
2071.65	15.2027
2073.11	16.2233
2074.57	16.5271
2076.03	17.3436
2077.49	17.7346
2078.95	19.0735
2080.41	20.0857
2081.87	20.953
2083.32	22.2581
2084.78	23.4525
2086.24	24.9404
2087.7	25.8731
2089.15	26.1954
2090.61	26.8174
2092.07	27.7081
2093.52	28.5388
2094.98	29.0834
2096.43	29.8671
2097.89	30.6541
2099.34	31.7105
2100.8	32.3071
2102.25	33.0938
2103.71	34.0305
2105.16	34.9437
2106.61	35.9049
2108.07	36.1886
2109.52	37.4865
2110.97	38.5675
2112.43	38.7034
2113.88	39.8598
2115.33	41.0784
2116.78	42.8046
2118.23	44.241
2119.68	45.4404
2121.13	47.6346
2122.59	49.4009
2124.04	51.9243
2125.49	54.0455
2126.94	56.018
2128.39	58.1877
2129.83	59.2591
2131.28	61.2028
2132.73	63.6436
2134.18	66.0367
2135.63	68.0842
2137.08	70.0732
2138.53	71.8552
2139.97	73.5922
2141.42	75.9523
2142.87	78.3196
2144.31	80.3055
2145.76	83.4613
2147.21	85.3835
2148.65	87.7748
2150.1	89.4601
2151.54	91.5034
2152.99	92.9302
2154.43	94.5163
2155.88	95.5921
2157.32	96.8234
2158.77	97.894
2160.21	98.6823
2161.65	99.7735
2163.1	100.57
2164.54	101.475
2165.98	102.093
2167.43	102.109
2168.87	103.101
2170.31	103.266
2171.75	103.01
2173.19	102.503
2174.64	102.272
2176.07	102.17
2177.52	101.315
2178.96	100.865
2180.4	99.6064
2181.84	99.004
2183.28	98.5073
2184.72	97.4054
2186.15	97.0809
2187.59	96.0719
2189.03	95.3553
2190.47	94.0668
2191.91	92.7731
2193.35	91.2513
2194.78	89.7238
2196.22	88.6268
2197.66	86.0632
2199.09	84.2954
2200.53	81.9679
2201.97	79.8419
2203.4	78.5337
2204.84	76.0045
2206.27	74.014
2207.71	71.7002
2209.14	69.6621
2210.58	67.8804
2212.01	65.9282
2213.45	63.6245
2214.88	61.3149
2216.31	59.6887
2217.75	58.2765
2219.18	56.0656
2220.61	53.9964
2222.05	51.4723
2223.48	49.6502
2224.91	48.2922
2226.34	46.2443
2227.78	44.9161
2229.21	44.0133
2230.64	42.8292
2232.07	41.538
2233.5	40.1955
2234.93	38.9315
2236.36	39.0575
2237.79	37.9413
2239.22	36.875
2240.65	36.4681
2242.08	35.0473
2243.5	34.3844
2244.93	34.1332
2246.36	33.5812
2247.79	32.7162
2249.22	32.0813
2250.64	31.8745
2252.07	31.3379
2253.5	30.952
2254.92	31.0768
2256.35	30.45
2257.78	30.539
2259.2	29.5492
2260.63	28.8055
2262.05	28.1802
2263.48	27.6065
2264.9	26.5608
2266.33	25.9407
2267.75	24.9757
2269.18	23.8168
2270.6	23.0601
2272.02	22.0101
2273.45	21.2352
2274.87	20.1251
2276.29	19.8817
2277.71	19.7861
2279.14	18.9747
2280.56	17.9012
2281.98	17.5544
2283.4	16.7098
2284.82	16.4012
2286.24	16.2317
2287.66	15.8239
2289.08	15.0872
2290.5	14.1236
2291.92	13.41
2293.34	12.3243
2294.76	12.0133
2296.18	12.0745
2297.6	11.5179
2299.02	11.8112
2300.44	11.37
2301.86	11.027
2303.27	10.7371
2304.69	10.9127
2306.11	11.2352
2307.53	11.4783
2308.94	10.674
2310.36	11.0534
2311.78	11.1743
2313.19	11.4203
2314.61	11.3825
2316.02	11.1701
2317.44	10.8982
2318.85	10.3728
2320.27	10.257
2321.68	10.5163
2323.1	10.2044
2324.51	9.87643
2325.92	9.69431
2327.34	9.45713
2328.75	8.77114
2330.16	8.18458
2331.58	7.88905
2332.99	7.63594
2334.4	6.87988
2335.81	5.8725
2337.23	5.47616
2338.64	5.29979
2340.05	5.39372
2341.46	5.34519
2342.87	5.1553
2344.28	4.63295
2345.69	4.75298
2347.1	5.01641
2348.51	5.01406
2349.92	4.84501
2351.33	4.64705
2352.74	4.43689
2354.15	4.0214
2355.55	4.1086
2356.96	3.50487
2358.37	2.77718
2359.78	2.64718
2361.19	2.33128
2362.59	2.00662
2364	1.76634
2365.41	2.72474
2366.81	2.84399
2368.22	2.66662
2369.62	2.55268
2371.03	2.25048
2372.44	2.77039
2373.84	3.71336
2375.24	3.95828
2376.65	4.62871
2378.05	4.93868
2379.46	4.89794
2380.86	5.54493
2382.26	5.96254
2383.67	5.99373
2385.07	5.82216
2386.47	5.33876
2387.88	4.59558
2389.28	5.05578
2390.68	4.97927
2392.08	5.00914
2393.48	4.57567
2394.89	4.24424
2396.29	3.85557
2397.69	3.39836
2399.09	3.30491
2400.49	3.39944
2401.89	3.36436
2403.29	3.45759
2404.69	2.96966
2406.09	3.42809
2407.48	3.85558
2408.88	3.93205
2410.28	3.9583
2411.68	4.30013
2413.08	4.32873
2414.48	4.44933
2415.87	5.17868
2417.27	5.69559
2418.67	5.44283
2420.06	4.87367
2421.46	4.86408
2422.86	5.25845
2424.25	5.53873
2425.65	5.0779
2427.04	4.31116
2428.44	4.1118
2429.83	3.99124
2431.23	4.32655
2432.62	4.90674
2434.02	4.97634
2435.41	4.96927
2436.81	4.77194
2438.2	4.96719
2439.59	5.11576
2440.99	5.5352
2442.38	6.55391
2443.77	6.80711
2445.16	5.91089
2446.56	6.32808
2447.95	6.53469
2449.34	6.10745
2450.73	6.4033
2452.12	6.25343
2453.51	5.71529
2454.9	5.49412
2456.29	5.63007
2457.68	5.70346
2459.07	6.52436
2460.46	5.44648
2461.85	5.34324
2463.24	5.09132
2464.63	5.26724
2466.02	5.06371
2467.4	5.17897
2468.79	5.21641
2470.18	5.0253
2471.57	4.75432
2472.95	4.59864
2474.34	4.76532
2475.73	5.38358
2477.12	5.51984
2478.5	5.44549
2479.89	5.87156
2481.27	6.38184
2482.66	6.71028
2484.04	6.42296
2485.43	6.27876
2486.81	5.64336
2488.2	5.06104
2489.58	5.81798
2490.97	6.2142
2492.35	5.6739
2493.73	4.44824
2495.12	3.91894
2496.5	3.95328
2497.88	3.68939
2499.27	3.68868
2500.65	3.95969
2502.03	3.64338
2503.41	2.73533
2504.79	2.20329
2506.17	1.87606
2507.56	1.95875
2508.94	1.88017
2510.32	1.52782
2511.7	0.992272
2513.08	0.289203
2514.46	0.102565
2515.84	0.740354
2517.22	0.743977
2518.59	-0.473605
2519.97	0.0349686
2521.35	-0.0474639
2522.73	0.212655
2524.11	0.716886
2525.49	0.706366
2526.86	0.390373
2528.24	0.894249
2529.62	0.433141
2530.99	0.935617
2532.37	1.21342
2533.75	1.21911
2535.12	1.00936
2536.5	1.00318
2537.88	1.21402
2539.25	1.9032
2540.63	2.37376
2542	2.8179
2543.38	3.22707
2544.75	4.26939
2546.12	4.69346
2547.5	5.1464
2548.87	5.88023
2550.24	6.58504
2551.62	6.62338
2552.99	6.23029
2554.36	6.77933
2555.74	7.24722
2557.11	7.99055
2558.48	7.99626
2559.85	6.85003
2561.22	6.51934
2562.59	6.63238
2563.96	6.84988
2565.34	5.91746
2566.71	5.81009
2568.08	6.29862
2569.45	6.1945
2570.82	6.13293
2572.18	5.85338
2573.55	5.664
2574.92	5.41087
2576.29	5.12825
2577.66	5.09256
2579.03	4.65701
2580.4	4.19033
2581.77	4.50995
2583.13	4.3954
2584.5	4.12265
2585.87	3.28907
2587.23	2.39986
2588.6	3.31294
2589.97	3.28977
2591.33	3.60314
2592.7	3.02244
2594.06	2.5288
2595.43	2.79962
2596.79	2.40971
2598.16	1.97858
2599.52	1.86855
2600.89	1.27006
2602.25	0.55851
2603.62	0.429484
2604.98	0.270831
2606.34	0.602758
2607.71	0.090016
2609.07	-0.150776
2610.43	-0.128873
2611.79	0.793274
2613.16	1.46129
2614.52	1.48754
2615.88	2.02856
2617.24	2.08308
2618.6	1.8088
2619.96	1.71662
2621.32	1.82322
2622.68	1.7625
2624.04	1.18461
2625.4	1.12728
2626.76	0.933118
2628.12	1.03664
2629.48	2.11265
2630.84	2.45316
2632.2	3.01971
2633.56	3.22543
2634.92	4.53703
2636.28	4.86447
2637.63	5.18513
2638.99	5.63086
2640.35	5.86533
2641.71	5.60127
2643.06	5.58911
2644.42	6.25209
2645.77	6.87287
2647.13	6.47926
2648.49	6.63817
2649.84	7.02854
2651.2	7.2782
2652.55	6.8917
2653.91	6.48163
2655.26	6.86598
2656.62	7.20107
2657.97	6.62508
2659.33	6.20417
2660.68	5.88665
2662.03	6.22201
2663.39	6.46795
2664.74	5.78944
2666.09	5.90298
2667.44	5.78484
2668.8	6.14985
2670.15	6.60806
2671.5	6.99772
2672.85	6.99718
2674.2	7.20979
2675.55	7.17138
2676.91	8.09092
2678.26	8.55008
2679.61	8.96116
2680.96	8.94876
2682.31	8.9441
2683.66	8.53331
2685	8.32442
2686.35	7.89077
2687.7	8.22939
2689.05	7.77106
2690.4	7.73811
2691.75	8.17993
2693.1	8.63837
2694.44	8.88286
2695.79	9.09485
2697.14	9.61129
2698.49	9.57643
2699.83	9.69052
2701.18	9.27676
2702.52	9.70369
2703.87	9.188
2705.22	9.23529
2706.56	9.33785
2707.91	8.93378
2709.25	8.30095
2710.6	7.98369
2711.94	8.14214
2713.29	7.7092
2714.63	7.64646
2715.97	7.28857
2717.32	6.61604
2718.66	6.31568
2720.01	5.8974
2721.35	6.24437
2722.69	6.62292
2724.03	6.70783
2725.38	6.67719
2726.72	7.09921
2728.06	8.01845
2729.4	8.2938
2730.74	7.95402
2732.08	7.87356
2733.42	8.44986
2734.76	8.84278
2736.1	9.23472
2737.44	8.86201
2738.78	8.83844
2740.12	8.66121
2741.46	8.70974
2742.8	8.97318
2744.14	8.96973
2745.48	8.76384
2746.82	8.45597
2748.16	8.26663
2749.49	7.77476
2750.83	7.37548
2752.17	7.68318
2753.51	7.02761
2754.84	6.94494
2756.18	6.42185
2757.52	6.2916
2758.85	6.30983
2760.19	6.22164
2761.53	5.89122
2762.86	5.21837
2764.2	5.0053
2765.53	4.6849
2766.87	3.78273
2768.2	4.21835
2769.54	3.8931
2770.87	3.55395
2772.2	3.64456
2773.54	3.2693
2774.87	2.30878
2776.2	1.39536
2777.54	1.71977
2778.87	1.83464
2780.2	1.09661
2781.53	1.1755
2782.87	0.754274
2784.2	1.02226
2785.53	1.29906
2786.86	1.35694
2788.19	0.597824
2789.52	0.321686
2790.85	0.366494
2792.18	0.259673
2793.51	0.317654
2794.84	0.0485196
2796.17	-0.752753
2797.5	-1.09354
2798.83	-0.76294
2800.16	-0.728317
2801.49	-0.993975
2802.82	-0.960415
2804.15	-0.969235
2805.47	-0.824048
2806.8	-0.817553
2808.13	-1.16776
2809.46	-1.08163
2810.78	-1.75519
2812.11	-1.38054
2813.44	-0.990736
2814.76	-0.594845
2816.09	-0.196872
2817.42	0.538253
2818.74	0.891812
2820.07	1.2342
2821.39	2.34835
2822.72	3.45992
2824.04	4.87191
2825.37	7.00176
2826.69	8.62945
2828.02	10.1174
2829.34	11.9257
2830.66	14.4832
2831.99	16.2718
2833.31	18.2406
2834.63	20.6943
2835.96	22.1896
2837.28	23.9721
2838.6	25.6651
2839.92	27.3224
2841.24	29.7187
2842.57	32.0697
2843.89	35.2976
2845.21	37.7499
2846.53	41.0998
2847.85	44.8635
2849.17	48.6579
2850.49	51.9148
2851.81	56.1314
2853.13	60.6762
2854.45	64.9675
2855.77	68.8712
2857.09	72.9208
2858.41	76.6065
2859.72	79.8486
2861.04	83.4207
2862.36	87.7275
2863.68	91.382
2865	94.4438
2866.31	97.1622
2867.63	100.476
2868.95	104.237
2870.26	106.942
2871.58	109.232
2872.9	112.092
2874.21	114.798
2875.53	117.626
2876.84	120.1
2878.16	123.033
2879.47	125.445
2880.79	127.416
2882.1	129.885
2883.42	131.516
2884.73	133.818
2886.05	136.522
2887.36	139.072
2888.67	140.797
2889.99	143.202
2891.3	145.643
2892.61	147.625
2893.92	149.446
2895.24	152.312
2896.55	154.939
2897.86	157.391
2899.17	160.542
2900.48	164.157
2901.79	167.974
2903.11	172.055
2904.42	177.363
2905.73	182.3
2907.04	188.035
2908.35	193.787
2909.66	200.602
2910.97	206.414
2912.27	213.375
2913.58	219.568
2914.89	225.829
2916.2	231.627
2917.51	238.274
2918.82	243.319
2920.13	248.33
2921.43	252.568
2922.74	257.182
2924.05	261.178
2925.35	264.671
2926.66	268.217
2927.97	270.691
2929.27	271.385
2930.58	271.936
2931.89	272.781
2933.19	273.414
2934.5	272.805
2935.8	271.941
2937.11	270.446
2938.41	268.581
2939.72	266.163
2941.02	263.306
2942.32	259.934
2943.63	256.168
2944.93	251.776
2946.24	247.238
2947.54	242.266
2948.84	236.623
2950.14	231.836
2951.45	226.138
2952.75	220.74
2954.05	215.053
2955.35	209.543
2956.65	203.973
2957.95	198.775
2959.26	193.373
2960.56	188.708
2961.86	182.861
2963.16	177.748
2964.46	172.634
2965.76	167.795
2967.06	162.565
2968.36	158
2969.66	153.506
2970.96	148.894
2972.25	144.856
2973.55	140.818
2974.85	136.393
2976.15	131.896
2977.45	127.615
2978.74	122.955
2980.04	118.235
2981.34	113.917
2982.64	109.602
2983.93	104.88
2985.23	100.965
2986.52	95.6502
2987.82	90.7638
2989.12	86.1463
2990.41	81.2273
2991.71	76.0886
2993	70.8125
2994.3	66.3456
2995.59	62.3993
2996.89	58.9586
2998.18	55.4472
2999.48	51.4287
3000.77	47.8447
3002.06	43.4904
3003.36	40.0192
3004.65	36.6483
3005.94	33.0103
3007.23	29.3765
3008.53	26.1566
3009.82	23.267
3011.11	20.7069
3012.4	18.3043
3013.69	16.5422
3014.99	15.1564
3016.28	13.0854
3017.57	11.3509
3018.86	9.82596
3020.15	8.28296
3021.44	7.8025
3022.73	6.87071
3024.02	5.44293
3025.31	4.36851
3026.6	3.18834
3027.89	2.86679
3029.18	2.82048
3030.46	2.72461
3031.75	2.78393
3033.04	3.3818
3034.33	3.88777
3035.62	4.10656
3036.9	4.57384
3038.19	4.95652
3039.48	4.92559
3040.76	5.28243
3042.05	5.41829
3043.34	5.92376
3044.62	6.61762
3045.91	7.52455
3047.19	7.76251
3048.48	8.54162
3049.77	9.1956
3051.05	9.50227
3052.34	10.0468
3053.62	10.433
3054.9	10.4965
3056.19	10.7816
3057.47	11.6158
3058.76	11.9266
3060.04	11.5325
3061.32	11.5069
3062.61	10.6347
3063.89	9.876
3065.17	9.40399
3066.45	8.88598
3067.74	8.83427
3069.02	8.63652
3070.3	8.642
3071.58	8.37304
3072.86	7.88265
3074.14	7.37951
3075.42	6.83709
3076.7	6.57745
3077.99	6.15771
3079.26	5.3066
3080.54	4.71026
3081.82	3.85301
3083.1	3.52363
3084.38	2.8214
3085.66	2.98534
3086.94	1.79695
3088.22	1.48238
3089.5	1.32265
3090.78	1.20201
3092.05	1.15263
3093.33	0.856621
3094.61	0.527613
3095.89	0.547626
3097.16	0.674568
3098.44	0.55348
3099.72	0.328986
3100.99	0.376627
3102.27	0.914568
3103.54	0.990315
3104.82	1.58673
3106.1	2.06857
3107.37	3.13724
3108.65	3.94196
3109.92	4.49697
3111.2	5.07989
3112.47	6.06677
3113.74	6.42298
3115.02	6.7426
3116.29	7.27526
3117.56	7.66701
3118.84	8.23755
3120.11	9.04751
3121.38	9.72771
3122.66	9.94378
3123.93	10.5566
3125.2	11.5471
3126.47	12.0374
3127.74	13.5783
3129.01	14.5466
3130.29	15.811
3131.56	16.9454
3132.83	17.8668
3134.1	18.2887
3135.37	18.4939
3136.64	18.9547
3137.91	19.7036
3139.18	20.6983
3140.45	21.4763
3141.72	22.107
3142.99	22.5843
3144.26	23.2758
3145.52	24.2231
3146.79	24.5982
3148.06	24.9423
3149.33	25.2753
