#Acq. time (s)=	45
#Accumulations=	2
#Range (cm-¹)=	200...3150
#Windows=	2
#Auto scanning=	Off
#Autofocus=	Off
#Macrospot=	Off
#AutoExposure=	Off
#Spike filter=	Multiple accum.
#Delay time (s)=	0
#Binning=	1
#Readout mode=	Signal
#DeNoise=	Off
#ICS correction=	On
#Dark correction=	Off
#Inst. Process=	Off
#Detector Gain=	Best Dynamic Range
#Detector ADC=	20 kHz       
#Detector temperature (°C)=	-69.85
#Instrument=	LabRAM HR Evol
#Detector=	Synapse
#Objective=	x100
#Grating=	600 gr/mm
#ND Filter=	100%
#Laser (nm)=	532 
#Hole=	100.021
#Range=	Auto
#Laser Pol.=	No
#Raman. Pol.=	No
#Laser Pol. (°)=	-0.0007625
#Raman Pol. (°)=	89.9995
#Collection=	Microscope
#StageXY=	Marzhauser
#StageZ=	Marzhauser
#X (µm)=	9000.2
#Y (µm)=	-3097.9
#Z (µm)=	-55.3
#Full time(mm:ss)=	3:05
#Project=	
#Sample=	
#Site=	
#Title=	Thy_00_07_5_2x_45s_532 nm_x100_100%_600 gr_mm
#Remark=	
#Date=	28.06.2022 10:21
#Acquired=	28.06.2022 10:21:10
#Base:Fit=	10.08.2022 10:07:56
#Base:Sub=	10.08.2022 10:08:40
#Filter:Polynom=	16.08.2022 10:26:06
#AxisType[0]=Intens
#AxisUnit[0]=Cnt
#AxisType[1]=Spectr
#AxisUnit[1]=1/cm
200.407	28.5552
202.221	28.6689
204.035	27.1667
205.849	24.9485
207.665	23.219
209.478	21.3219
211.291	19.4212
213.104	18.2687
214.916	16.91
216.73	15.2377
218.541	12.5516
220.352	10.823
222.163	10.3958
223.973	9.58198
225.785	8.29996
227.595	7.22189
229.404	7.01211
231.213	7.02366
233.022	6.90821
234.83	6.22193
236.638	5.27777
238.448	4.35854
240.255	3.77161
242.062	2.64984
243.868	2.94835
245.675	3.11249
247.48	3.6209
249.286	3.68291
251.091	4.12396
252.896	3.68501
254.702	3.89163
256.506	4.67116
258.31	5.30106
260.113	4.96258
261.916	4.65585
263.719	4.80266
265.521	5.1381
267.323	5.85498
269.125	5.39511
270.926	5.83936
272.727	6.77395
274.527	8.15396
276.328	8.52334
278.127	8.89437
279.927	9.61043
281.726	10.8189
283.525	11.6525
285.323	12.3657
287.121	12.652
288.919	12.4463
290.716	12.2955
292.513	12.5005
294.31	13.1044
296.104	13.7098
297.9	14.2838
299.696	15.5302
301.491	16.6688
303.286	17.0096
305.081	16.7681
306.875	16.5077
308.669	16.9315
310.463	19.237
312.256	20.7738
314.047	21.1883
315.839	21.3044
317.631	21.8324
319.423	22.272
321.215	22.071
323.006	21.7522
324.794	21.8565
326.585	21.8825
328.375	21.4697
330.165	21.9932
331.954	22.1193
333.741	23.4865
335.53	22.6634
337.318	21.6759
339.106	20.0597
340.894	19.7519
342.679	19.4564
344.466	19.6309
346.253	19.6099
348.039	19.745
349.823	19.8843
351.608	20.1284
353.393	21.3537
355.176	22.3919
356.961	23.2434
358.745	23.8876
360.529	25.3122
362.31	26.2585
364.093	26.7588
365.876	28.0125
367.657	28.5972
369.439	28.8014
371.221	28.8948
373	29.8089
374.781	30.5902
376.56	30.5713
378.34	30.4382
380.12	30.5289
381.898	30.6388
383.677	29.9681
385.456	29.8319
387.233	30.2249
389.011	29.5332
390.787	28.7163
392.565	28.1515
394.34	27.6174
396.117	27.1824
397.894	26.5694
399.668	25.3145
401.444	23.6516
403.217	21.6033
404.993	20.4778
406.766	19.3667
408.54	18.1229
410.312	16.8673
412.086	15.9429
413.858	14.6306
415.631	12.9064
417.402	11.3407
419.174	10.6275
420.944	9.17871
422.716	7.6718
424.486	5.37672
426.257	3.80297
428.025	3.2106
429.794	3.40064
431.564	2.4263
433.332	1.70775
435.101	0.98896
436.868	0.967197
438.637	1.74542
440.403	2.91044
442.169	3.76569
443.937	4.5776
445.703	6.12555
447.468	7.13252
449.234	8.55256
450.999	9.36025
452.765	10.5937
454.528	11.8051
456.292	13.1669
458.057	14.8166
459.819	16.1685
461.582	17.199
463.344	16.3962
465.107	16.6138
466.868	17.4552
468.629	18.6745
470.392	19.425
472.152	20.9959
473.912	22.6472
475.672	23.5541
477.433	24.0503
479.192	25.0842
480.951	25.8121
482.709	26.5159
484.469	27.3013
486.226	27.5936
487.984	28.7643
489.74	31.0064
491.499	32.5352
493.255	34.4
495.011	35.2492
496.767	36.941
498.522	38.0357
500.277	39.7475
502.033	40.4917
503.788	41.4529
505.541	41.8072
507.295	41.7513
509.048	41.7662
510.801	41.4144
512.553	40.9665
514.308	40.0896
516.06	39.8413
517.811	39.3281
519.562	37.4911
521.313	37.3585
523.063	36.6818
524.814	36.2471
526.563	35.1357
528.313	33.4654
530.062	31.5469
531.811	30.5835
533.559	29.624
535.308	27.5061
537.055	25.6039
538.803	24.3078
540.55	24.0641
542.297	22.6047
544.043	20.8843
545.789	18.1663
547.535	15.9687
549.281	12.978
551.026	11.1423
552.771	10.1334
554.515	9.47659
556.259	7.97133
558.003	6.19545
559.747	5.74269
561.49	3.80709
563.233	2.51411
564.975	2.75061
566.717	2.51034
568.459	1.57221
570.2	1.43509
571.942	1.30228
573.68	2.55244
575.421	2.77525
577.161	3.71864
578.901	3.90056
580.64	4.40043
582.379	4.79773
584.118	5.94868
585.855	5.94626
587.593	6.42203
589.331	6.28469
591.068	6.72581
592.805	7.11485
594.54	8.17682
596.277	8.38992
598.013	8.60928
599.749	8.81692
601.484	8.60741
603.217	9.40523
604.952	9.49969
606.687	8.15489
608.421	8.25391
610.153	8.38997
611.886	8.03347
613.619	6.69484
615.35	6.58833
617.083	6.93256
618.815	7.21691
620.547	6.58577
622.276	5.92309
624.008	6.29896
625.738	6.94903
627.467	7.34877
629.197	6.04429
630.927	4.58947
632.655	4.37607
634.384	4.13166
636.113	3.55042
637.839	3.80452
639.568	4.37379
641.293	4.23806
643.021	4.23469
644.748	4.92742
646.473	5.52343
648.2	5.31635
649.924	6.3727
651.65	6.49699
653.376	5.8682
655.099	5.54315
656.824	6.44018
658.546	6.50476
660.271	5.93983
661.993	5.00573
663.716	5.07973
665.438	5.02279
667.161	4.48195
668.881	4.33665
670.604	4.63378
672.324	4.73677
674.045	5.37529
675.765	6.10641
677.486	7.34982
679.204	8.17912
680.925	8.74197
682.643	8.16859
684.361	9.89536
686.08	11.0229
687.797	12.5908
689.516	13.6922
691.232	14.2263
692.95	14.1446
694.666	15.6197
696.382	16.0395
698.099	15.4975
699.813	15.3236
701.528	16.4488
703.244	17.1376
704.958	17.0265
706.673	16.7023
708.387	18.0372
710.099	19.1714
711.814	19.5838
713.526	19.5229
715.238	19.7092
716.949	20.8993
718.663	22.208
720.374	22.8795
722.084	23.6011
723.796	25.5583
725.506	27.2085
727.216	27.6958
728.925	28.8489
730.636	29.8341
732.345	31.4234
734.053	33.2592
735.761	34.9424
737.471	36.3775
739.178	38.3737
740.885	41.0633
742.592	43.0538
744.298	45.6153
746.006	48.4491
747.712	52.4849
749.417	55.4146
751.122	59.2503
752.827	63.0273
754.532	67.4126
756.236	70.0822
757.942	73.3583
759.645	75.3748
761.348	77.8621
763.051	80.5751
764.753	82.6287
766.456	84.7738
768.158	87.5326
769.859	90.4613
771.56	90.995
773.261	92.2784
774.964	92.3007
776.664	92.5623
778.364	91.52
780.064	91.7462
781.763	89.8154
783.462	89.0266
785.16	88.5909
786.859	88.0209
788.557	87.0894
790.255	85.0216
791.952	83.7983
793.649	82.9241
795.346	80.8944
797.042	79.4055
798.738	77.2528
800.434	75.5206
802.127	74.3658
803.823	72.5641
805.517	70.4584
807.212	68.3664
808.906	66.8978
810.6	64.4053
812.293	61.6726
813.987	61.014
815.68	60.3896
817.372	59.5321
819.064	58.7815
820.754	58.3541
822.446	58.0016
824.137	58.6182
825.828	59.1474
827.519	58.3797
829.209	59.2696
830.897	59.4258
832.587	59.3059
834.276	59.0632
835.966	58.8687
837.654	58.273
839.341	56.7671
841.029	55.1728
842.717	55.4987
844.404	54.6803
846.091	55.343
847.776	54.2892
849.463	54.1758
851.149	54.3238
852.833	53.7364
854.519	52.1832
856.204	51.2259
857.889	51.1828
859.572	49.5804
861.256	48.3605
862.94	47.6259
864.622	46.6461
866.305	44.8712
867.988	45.3789
869.669	45.5021
871.351	44.7283
873.033	44.0491
874.713	43.1295
876.395	43.1347
878.074	42.1547
879.755	41.0101
881.435	40.3568
883.114	38.8647
884.794	37.6078
886.471	37.625
888.15	36.8476
889.829	35.6709
891.506	34.7441
893.184	34.2595
894.861	33.7783
896.538	33.5466
898.214	34.4179
899.891	34.3795
901.566	34.1862
903.242	34.901
904.916	35.3232
906.592	35.7384
908.266	37.0627
909.941	37.3721
911.614	37.8204
913.288	38.7145
914.961	38.7399
916.635	38.7983
918.306	39.608
919.979	39.4841
921.651	39.4593
923.321	40.494
924.994	40.9381
926.664	41.2613
928.336	40.4555
930.005	40.0852
931.674	38.9984
933.345	39.5382
935.014	39.1161
936.682	37.4084
938.352	36.4451
940.019	35.8282
941.687	35.0103
943.356	34.2847
945.022	33.6333
946.689	32.9813
948.357	31.476
950.022	30.8616
951.688	30.627
953.355	29.3591
955.02	27.6766
956.684	25.5992
958.348	24.0404
960.014	21.9229
961.678	19.4212
963.341	18.8105
965.004	18.4533
966.669	18.5855
968.331	19.1122
969.993	20.3657
971.655	19.9492
973.316	20.0137
974.979	19.8757
976.64	20.022
978.3	20.3809
979.961	20.7124
981.62	21.4519
983.28	21.7034
984.941	21.4825
986.6	21.7915
988.259	22.5819
989.917	22.6712
991.575	23.8602
993.233	24.899
994.89	25.5975
996.547	26.5234
998.204	28.0626
999.86	29.858
1001.52	31.5177
1003.17	33.7008
1004.83	35.3538
1006.49	37.4632
1008.14	39.0684
1009.79	40.4447
1011.45	41.8195
1013.1	43.5211
1014.76	44.8549
1016.41	45.999
1018.06	46.5375
1019.72	47.2536
1021.37	48.5672
1023.02	48.8734
1024.67	49.3438
1026.32	48.8675
1027.97	47.8111
1029.62	47.0042
1031.27	46.622
1032.92	45.6065
1034.57	44.9982
1036.22	42.9356
1037.87	40.434
1039.52	38.6785
1041.17	37.7527
1042.82	36.0124
1044.47	35.3984
1046.11	35.5415
1047.76	34.5646
1049.41	33.3232
1051.06	31.347
1052.7	29.6693
1054.35	27.0772
1055.99	25.5854
1057.64	24.0871
1059.28	22.9377
1060.93	21.8596
1062.57	21.3474
1064.22	20.2895
1065.86	19.9212
1067.5	19.4436
1069.15	19.0037
1070.79	19.0777
1072.43	19.3841
1074.08	20.9886
1075.72	21.437
1077.36	21.4729
1079	22.1265
1080.64	23.5757
1082.28	24.1384
1083.92	24.9636
1085.56	25.2344
1087.2	25.4667
1088.84	26.0935
1090.48	27.1104
1092.12	27.1437
1093.76	28.2349
1095.39	28.5366
1097.03	28.7816
1098.67	29.0969
1100.31	30.5424
1101.94	30.795
1103.58	30.505
1105.22	29.4552
1106.85	28.99
1108.49	28.1339
1110.12	27.2876
1111.76	26.2031
1113.39	25.6332
1115.03	23.7828
1116.66	22.8977
1118.29	20.8048
1119.93	19.4083
1121.56	18.3226
1123.19	17.4768
1124.82	16.532
1126.46	15.6195
1128.09	14.727
1129.72	13.5373
1131.35	12.4325
1132.98	12.3347
1134.61	11.7972
1136.24	11.4607
1137.87	12.1412
1139.5	13.0445
1141.13	13.5575
1142.76	14.1974
1144.39	14.309
1146.01	12.8389
1147.64	13.1517
1149.27	13.6145
1150.9	12.1838
1152.53	11.9017
1154.15	11.9204
1155.78	10.6076
1157.4	10.0258
1159.03	9.43269
1160.65	8.16361
1162.28	8.58105
1163.9	7.36273
1165.53	7.52576
1167.15	6.78748
1168.78	7.9276
1170.4	7.82762
1172.02	8.74165
1173.65	8.88574
1175.27	9.57736
1176.89	9.443
1178.51	10.0623
1180.14	9.82406
1181.76	10.4355
1183.38	9.18207
1185	8.88702
1186.62	8.77294
1188.24	8.65599
1189.86	8.4888
1191.48	7.86128
1193.1	7.96975
1194.71	9.28173
1196.33	8.86451
1197.95	8.82997
1199.57	8.6493
1201.19	8.93319
1202.8	9.02609
1204.42	10.2684
1206.04	10.8384
1207.65	12.3146
1209.27	14.5702
1210.88	15.6083
1212.5	17.0727
1214.12	19.1829
1215.73	20.625
1217.35	22.9689
1218.96	25.1034
1220.57	26.8612
1222.19	28.2017
1223.8	29.8904
1225.41	31.5341
1227.03	33.2299
1228.64	35.5301
1230.25	36.1793
1231.86	36.088
1233.47	38.2279
1235.08	39.7533
1236.69	40.4604
1238.31	42.2203
1239.92	42.2676
1241.52	43.4007
1243.13	45.1509
1244.74	45.6981
1246.35	46.4447
1247.96	46.6458
1249.57	47.8338
1251.18	47.5869
1252.78	47.5008
1254.39	47.5827
1256	47.4648
1257.6	47.3109
1259.21	46.7903
1260.82	45.4986
1262.42	45.5635
1264.03	44.7235
1265.63	44.1467
1267.24	42.8729
1268.84	42.1369
1270.45	41.1483
1272.05	40.7329
1273.65	40.3505
1275.26	39.656
1276.86	38.5292
1278.46	38.7903
1280.06	40.0302
1281.67	40.4467
1283.27	39.9601
1284.87	40.6995
1286.47	41.3845
1288.07	41.723
1289.67	42.0711
1291.27	41.9353
1292.87	43.4115
1294.47	44.8297
1296.07	46.2644
1297.67	47.9621
1299.27	49.5012
1300.87	50.631
1302.47	52.7662
1304.06	55.476
1305.66	57.3818
1307.26	58.3581
1308.85	60.3775
1310.45	61.7689
1312.05	64.0359
1313.64	66.8743
1315.24	68.1487
1316.83	69.5101
1318.43	71.832
1320.02	72.427
1321.62	74.709
1323.21	74.8987
1324.8	75.7715
1326.4	77.0618
1327.99	77.6423
1329.59	78.0323
1331.18	77.1422
1332.77	76.8422
1334.36	76.7392
1335.95	76.6483
1337.54	76.8735
1339.14	76.3377
1340.73	75.4243
1342.32	74.317
1343.91	73.1835
1345.5	71.8717
1347.09	70.4496
1348.67	69.6594
1350.26	68.761
1351.85	67.9697
1353.44	66.6413
1355.03	65.6508
1356.62	64.9382
1358.2	63.8185
1359.79	62.8289
1361.38	60.5181
1362.96	58.7911
1364.55	57.5342
1366.14	56.5548
1367.72	55.0432
1369.31	55.4504
1370.89	54.9851
1372.48	54.8066
1374.06	54.2947
1375.64	54.1946
1377.23	53.8361
1378.81	53.9606
1380.39	53.7958
1381.98	54.4647
1383.56	54.3251
1385.14	53.8602
1386.72	53.4754
1388.3	53.3889
1389.89	52.8556
1391.47	53.1078
1393.05	52.8593
1394.63	51.6984
1396.21	51.1306
1397.79	50.2138
1399.37	49.0467
1400.95	48.9944
1402.52	47.7436
1404.1	48.5938
1405.68	48.8469
1407.26	47.9472
1408.84	48.2111
1410.42	47.4887
1411.99	48.5979
1413.57	49.986
1415.15	52.249
1416.72	53.2144
1418.3	53.9112
1419.87	54.4621
1421.45	55.8738
1423.02	58.0715
1424.6	59.9256
1426.17	62.2555
1427.75	64.605
1429.32	67.9745
1430.89	69.7281
1432.47	71.2352
1434.04	72.768
1435.61	74.8164
1437.18	75.9955
1438.76	77.1304
1440.33	78.4579
1441.9	79.5709
1443.47	80.2669
1445.04	81.9197
1446.61	82.9156
1448.18	84.5034
1449.75	84.1554
1451.32	84.1788
1452.89	83.0897
1454.46	82.5207
1456.03	81.0139
1457.6	80.2692
1459.16	79.1932
1460.73	77.1032
1462.3	74.5753
1463.87	72.4554
1465.43	70.0969
1467	66.9376
1468.56	64.2388
1470.13	61.0131
1471.7	57.8346
1473.26	54.5241
1474.83	51.2911
1476.39	48.4715
1477.96	46.4243
1479.52	44.1146
1481.08	40.5412
1482.65	38.6461
1484.21	35.7381
1485.77	33.258
1487.34	30.7711
1488.9	28.4462
1490.46	27.4679
1492.02	26.5095
1493.58	25.4194
1495.15	23.1618
1496.71	21.5953
1498.27	20.7391
1499.83	20.6375
1501.39	20.2144
1502.95	19.6014
1504.51	19.5443
1506.07	18.806
1507.63	18.2138
1509.18	17.319
1510.74	16.7114
1512.3	16.517
1513.86	16.6083
1515.41	16.0029
1516.97	16.5546
1518.53	17.4646
1520.08	18.1845
1521.64	19.327
1523.2	20.8958
1524.75	21.4956
1526.31	22.8181
1527.86	23.0531
1529.42	24.0403
1530.97	24.2669
1532.52	25.7383
1534.08	27.2113
1535.63	28.7198
1537.19	29.2863
1538.74	29.9948
1540.29	31.6437
1541.84	33.1925
1543.4	34.2745
1544.95	34.4501
1546.5	35.7533
1548.05	37.0974
1549.6	38.4543
1551.15	39.5506
1552.7	41.2011
1554.25	42.938
1555.8	44.1967
1557.35	45.5108
1558.9	46.1483
1560.45	48.3365
1562	49.7893
1563.54	50.8989
1565.09	51.555
1566.64	53.1025
1568.19	54.4144
1569.73	55.9702
1571.28	56.9647
1572.83	56.714
1574.37	57.9206
1575.92	59.2979
1577.47	60.4016
1579.01	59.9666
1580.56	60.6244
1582.1	61.3423
1583.64	61.6139
1585.19	61.9709
1586.73	63.1285
1588.28	63.2113
1589.82	63.686
1591.36	64.1537
1592.9	64.0101
1594.45	64.9337
1595.99	65.2447
1597.53	66.091
1599.07	66.0568
1600.61	65.6694
1602.15	65.8004
1603.69	65.7392
1605.23	64.4134
1606.77	63.9929
1608.31	63.4196
1609.85	63.1795
1611.39	62.8869
1612.93	61.791
1614.47	61.2591
1616.01	61.2327
1617.55	59.9609
1619.08	59.0761
1620.62	58.3688
1622.16	57.5328
1623.7	58.1412
1625.23	58.7971
1626.77	59.2795
1628.3	59.3891
1629.84	59.4406
1631.37	60.4068
1632.91	60.7402
1634.44	61.1632
1635.98	60.9164
1637.51	61.8391
1639.05	62.5377
1640.58	63.0574
1642.11	64.1694
1643.65	65.6795
1645.18	66.3362
1646.71	66.9176
1648.24	67.1932
1649.78	67.1442
1651.31	67.2116
1652.84	68.1695
1654.37	67.5586
1655.9	66.6925
1657.43	66.5796
1658.96	65.697
1660.49	65.1237
1662.02	64.0314
1663.55	63.5025
1665.08	61.7425
1666.61	61.2784
1668.14	59.5501
1669.66	58.4714
1671.19	57.2149
1672.72	55.2493
1674.25	54.5419
1675.77	53.1122
1677.3	51.4858
1678.83	49.8481
1680.35	47.5002
1681.88	45.9078
1683.4	44.1602
1684.93	43.1021
1686.45	40.6493
1687.98	38.5286
1689.5	36.3572
1691.03	34.1831
1692.55	31.9716
1694.07	28.9608
1695.6	27.9003
1697.12	25.9579
1698.64	24.6518
1700.17	24.0908
1701.69	22.8062
1703.21	21.3147
1704.73	19.8328
1706.25	18.796
1707.77	18.0585
1709.29	16.3563
1710.81	15.1284
1712.33	15.2743
1713.85	15.5542
1715.37	14.9851
1716.89	14.018
1718.41	13.1463
1719.93	12.3498
1721.45	11.5382
1722.97	10.9621
1724.49	10.3241
1726	9.59181
1727.52	8.75028
1729.04	8.85779
1730.55	7.6191
1732.07	7.49735
1733.59	7.12928
1735.1	6.87936
1736.62	6.85261
1738.13	6.72775
1739.65	7.03381
1741.16	6.84342
1742.68	7.36758
1744.19	6.91804
1745.7	7.22664
1747.22	7.22467
1748.73	7.85793
1750.24	9.12516
1751.76	9.43128
1753.27	8.59905
1754.78	8.64553
1756.29	8.79496
1757.8	8.55465
1759.31	8.24025
1760.83	8.28528
1762.34	6.9527
1763.85	6.85273
1765.36	6.59738
1766.87	6.56439
1768.38	6.24095
1769.89	5.83633
1771.39	6.67161
1772.9	6.06978
1774.41	6.14454
1775.92	5.89368
1777.43	5.08583
1778.94	4.82598
1780.44	4.64383
1781.95	3.56966
1783.46	3.1202
1784.96	2.75107
1786.47	3.03888
1787.97	3.0535
1789.48	1.91595
1790.99	1.40992
1792.49	1.21697
1794	1.62148
1795.5	2.20037
1797	1.95158
1798.51	1.85557
1800.01	1.88984
1801.51	1.89909
1803.02	1.99215
1804.52	2.38064
1806.02	2.81852
1807.53	2.82747
1809.03	2.80114
1810.53	3.02705
1812.03	3.18994
1813.53	3.23328
1815.03	3.46526
1816.53	3.90501
1818.03	4.12222
1819.53	4.39951
1821.03	4.51882
1822.53	4.70597
1824.03	4.50087
1825.53	4.84415
1827.03	4.1057
1828.53	3.63293
1830.02	3.75508
1831.52	4.2384
1833.02	4.14509
1834.52	4.41249
1836.01	4.19702
1837.51	4.22513
1839.01	3.97147
1840.5	4.29294
1842	4.08283
1843.49	3.19572
1844.99	2.83934
1846.48	2.49167
1847.98	1.8639
1849.47	1.73171
1850.97	1.85311
1852.46	1.35086
1853.95	1.40425
1855.45	1.47477
1856.94	0.847639
1858.43	0.928234
1859.93	0.994194
1861.42	0.817994
1862.91	0.826276
1864.4	0.816477
1865.89	1.05307
1867.38	1.66349
1868.87	1.17494
1870.36	0.994575
1871.85	0.709487
1873.34	1.24197
1874.83	1.07655
1876.32	1.01843
1877.81	1.02096
1879.3	1.21994
1880.79	0.885793
1882.28	0.295591
1882.52	0.285157
1884.02	0.00480899
1885.51	-0.424321
1887.01	-0.282378
1888.5	-0.149637
1889.99	1.04335
1891.49	1.35187
1892.98	1.47989
1894.47	1.29574
1895.97	1.5033
1897.46	1.76996
1898.95	2.04915
1900.44	1.7629
1901.93	2.4014
1903.42	2.52628
1904.91	3.3804
1906.4	2.95132
1907.89	3.37326
1909.38	3.46684
1910.87	3.25635
1912.36	2.97184
1913.85	3.39704
1915.34	3.28319
1916.83	3.82063
1918.32	4.41172
1919.8	4.8164
1921.29	5.18008
1922.78	4.83014
1924.27	4.90607
1925.75	4.65707
1927.24	4.65736
1928.73	4.28912
1930.21	4.19564
1931.7	4.52605
1933.18	4.93058
1934.67	4.6584
1936.15	4.80895
1937.64	4.66274
1939.12	4.74337
1940.61	4.51994
1942.09	3.99698
1943.57	3.5102
1945.06	3.60509
1946.54	3.23486
1948.02	2.50516
1949.51	2.34428
1950.99	1.88624
1952.47	1.39539
1953.95	0.964837
1955.43	0.520048
1956.91	0.541447
1958.4	0.682271
1959.88	0.642318
1961.36	0.991198
1962.84	1.25884
1964.32	1.73043
1965.8	0.677616
1967.27	-0.413618
1968.75	-0.156203
1970.23	0.083308
1971.71	-0.34234
1973.19	-0.525363
1974.67	-0.610467
1976.14	-0.485894
1977.62	-0.636718
1979.1	-0.503297
1980.58	-0.830884
1982.05	-0.515431
1983.53	-0.126437
1985	-0.112185
1986.48	0.435605
1987.95	1.21267
1989.43	1.60851
1990.9	1.98112
1992.38	2.01165
1993.85	1.64199
1995.33	1.67667
1996.8	1.83257
1998.27	2.46089
1999.75	2.84811
2001.22	2.92499
2002.69	3.66075
2004.16	4.27492
2005.64	4.33672
2007.11	4.47437
2008.58	3.95439
2010.05	4.17141
2011.52	4.14857
2012.99	4.01074
2014.46	3.8438
2015.93	3.95553
2017.4	4.02503
2018.87	4.73041
2020.34	4.77733
2021.81	4.24753
2023.28	4.70449
2024.75	4.63066
2026.22	4.19844
2027.69	4.44733
2029.15	4.01281
2030.62	4.29797
2032.09	4.06097
2033.56	3.74121
2035.02	3.63295
2036.49	3.78293
2037.96	3.70554
2039.42	3.07519
2040.89	2.71728
2042.35	3.6354
2043.82	3.35307
2045.28	3.02835
2046.75	3.36337
2048.21	3.37911
2049.67	3.02734
2051.14	3.05818
2052.6	3.84828
2054.07	4.38363
2055.53	4.75147
2056.99	4.69262
2058.45	4.58358
2059.92	5.02999
2061.38	4.85058
2062.84	5.10674
2064.3	5.16724
2065.76	5.05855
2067.22	4.77952
2068.68	4.54591
2070.14	4.92012
2071.6	5.16699
2073.06	5.02507
2074.52	5.13468
2075.98	5.23647
2077.44	4.47363
2078.9	4.09189
2080.36	3.42783
2081.82	3.1054
2083.27	3.25291
2084.73	3.29001
2086.19	3.13694
2087.65	3.60721
2089.1	3.02025
2090.56	3.25341
2092.02	2.74689
2093.47	2.62822
2094.93	2.26214
2096.38	3.10893
2097.84	2.21991
2099.29	1.83427
2100.75	1.76218
2102.2	1.97246
2103.66	2.18002
2105.11	2.41632
2106.56	2.92053
2108.02	2.55718
2109.47	2.46393
2110.92	2.39516
2112.38	2.80676
2113.83	3.09267
2115.28	3.70535
2116.73	2.81466
2118.18	2.96367
2119.63	3.43603
2121.09	3.11238
2122.54	3.08361
2123.99	3.88469
2125.44	4.12844
2126.89	4.24638
2128.34	4.07963
2129.79	4.03678
2131.23	4.19665
2132.68	4.65471
2134.13	3.85526
2135.58	3.76567
2137.03	3.06311
2138.48	2.90571
2139.92	2.70071
2141.37	2.91776
2142.82	3.03792
2144.27	2.2716
2145.71	2.12667
2147.16	1.81388
2148.6	1.1892
2150.05	1.13153
2151.49	1.07531
2152.94	0.432239
2154.38	0.346964
2155.83	0.273101
2157.27	0.653725
2158.72	0.487007
2160.16	0.909055
2161.6	0.402872
2163.05	1.21929
2164.49	1.74423
2165.93	1.56875
2167.38	1.64887
2168.82	2.06767
2170.26	0.945449
2171.7	1.60283
2173.14	1.76221
2174.58	2.32722
2176.03	2.53069
2177.47	2.80337
2178.91	2.33429
2180.35	2.19026
2181.79	2.54536
2183.23	3.14018
2184.67	3.0377
2186.1	3.12646
2187.54	3.51334
2188.98	3.55915
2190.42	4.35276
2191.86	4.77224
2193.3	4.66365
2194.73	5.19755
2196.17	5.57656
2197.61	6.06602
2199.05	6.52259
2200.48	6.37334
2201.92	6.40263
2203.35	6.38227
2204.79	6.39021
2206.22	5.78096
2207.66	6.16728
2209.1	6.16758
2210.53	6.47612
2211.97	6.21611
2213.4	6.41451
2214.83	5.83737
2216.27	6.00951
2217.7	5.92761
2219.13	5.14208
2220.57	5.06327
2222	5.09215
2223.43	4.52093
2224.86	4.27785
2226.29	4.70484
2227.72	5.21642
2229.16	5.08535
2230.59	4.37548
2232.02	4.71962
2233.45	4.40543
2234.88	5.04018
2236.31	4.88981
2237.74	4.63165
2239.17	4.94178
2240.6	4.61996
2242.03	3.54744
2243.45	4.02523
2244.88	3.77867
2246.31	4.12007
2247.74	4.30376
2249.17	3.98197
2250.59	3.11852
2252.02	3.17099
2253.45	2.78557
2254.87	2.90837
2256.3	3.01563
2257.73	3.09071
2259.15	2.90751
2260.58	2.54392
2262	2.31156
2263.43	2.54467
2264.85	2.59384
2266.28	2.77252
2267.7	2.95445
2269.13	3.53164
2270.55	3.15566
2271.97	3.23664
2273.4	3.59536
2274.82	3.77965
2276.24	4.35427
2277.67	4.82069
2279.09	4.62291
2280.51	4.54152
2281.93	4.68747
2283.35	4.33068
2284.77	4.90927
2286.2	4.70457
2287.62	4.65704
2289.04	4.15545
2290.46	4.09819
2291.88	3.32418
2293.3	3.49999
2294.72	3.18168
2296.13	2.97971
2297.55	2.9294
2298.97	2.94977
2300.39	2.81681
2301.81	3.43303
2303.23	4.08193
2304.64	4.45116
2306.06	5.08983
2307.48	4.92146
2308.89	4.69227
2310.31	4.34442
2311.73	4.50075
2313.14	4.40487
2314.56	5.25629
2315.98	5.41438
2317.39	5.50328
2318.81	5.18548
2320.22	4.70165
2321.64	4.62845
2323.05	4.30373
2324.46	4.51212
2325.88	4.27741
2327.29	3.65625
2328.7	3.41271
2330.12	3.84645
2331.53	4.39441
2332.94	4.06861
2334.35	4.53707
2335.77	4.76461
2337.18	5.33535
2338.59	5.41597
2340	5.79877
2341.41	6.17959
2342.82	6.89087
2344.23	7.11625
2345.64	6.93941
2347.05	7.14152
2348.46	6.80487
2349.87	6.35006
2351.28	6.54191
2352.69	6.4598
2354.1	6.06239
2355.51	6.45663
2356.91	5.83071
2358.32	4.72324
2359.73	4.49845
2361.14	4.22987
2362.54	3.87735
2363.95	4.43894
2365.36	4.49639
2366.76	4.85383
2368.17	4.67591
2369.58	4.4242
2370.98	4.18393
2372.39	4.55217
2373.79	4.34205
2375.2	3.82225
2376.6	3.07267
2378	2.84127
2379.41	2.88238
2380.81	3.25646
2382.22	3.20311
2383.62	2.69898
2385.02	1.97153
2386.43	1.67099
2387.83	1.26588
2389.23	0.854872
2390.63	0.709819
2392.03	0.569916
2393.44	-0.118031
2394.84	0.391965
2396.24	0.0160651
2397.64	0.183035
2399.04	0.623984
2400.44	0.414126
2401.84	0.613667
2403.24	0.0673928
2404.64	1.16313
2406.04	1.46659
2407.44	2.14829
2408.84	2.64165
2410.23	3.49211
2411.63	4.26257
2413.03	5.20626
2414.43	5.9508
2415.83	7.10126
2417.22	8.08878
2418.62	8.48868
2420.02	8.84883
2421.41	9.58937
2422.81	10.3361
2424.21	10.4893
2425.6	11.1964
2427	11.6614
2428.39	12.0422
2429.79	13.2137
2431.18	13.1426
2432.58	13.11
2433.97	12.8149
2435.36	12.8625
2436.76	12.0057
2438.15	11.942
2439.54	11.8488
2440.94	12.2216
2442.33	12.1468
2443.72	11.3853
2445.12	10.9887
2446.51	11.0254
2447.9	11.3027
2449.29	10.9416
2450.68	10.3888
2452.07	9.51164
2453.46	8.7999
2454.85	7.70826
2456.24	7.24071
2457.64	6.79915
2459.02	6.29924
2460.41	6.17629
2461.8	6.34144
2463.19	6.06309
2464.58	5.4932
2465.97	5.5074
2467.36	5.06047
2468.75	4.28728
2470.13	4.11097
2471.52	4.19893
2472.91	4.13115
2474.3	3.96526
2475.68	3.93489
2477.07	3.76686
2478.45	3.57945
2479.84	3.36186
2481.23	3.66088
2482.61	3.8092
2484	3.01948
2485.38	3.13238
2486.77	2.60458
2488.15	2.08015
2489.54	2.62492
2490.92	3.30094
2492.3	3.64996
2493.69	3.84984
2495.07	4.43897
2496.45	4.76429
2497.84	4.03827
2499.22	3.95075
2500.6	3.77009
2501.98	3.95642
2503.36	4.22418
2504.75	4.6213
2506.13	5.54797
2507.51	6.74582
2508.89	6.8343
2510.27	7.02233
2511.65	7.16826
2513.03	7.01475
2514.41	6.9695
2515.79	7.09916
2517.17	7.307
2518.55	7.01562
2519.93	6.51751
2521.3	6.31754
2522.68	6.18217
2524.06	6.51595
2525.44	7.57717
2526.82	8.54076
2528.19	8.99609
2529.57	9.88691
2530.95	10.0785
2532.32	9.51277
2533.7	9.11329
2535.08	9.25998
2536.45	8.53067
2537.83	7.91298
2539.2	7.86123
2540.58	8.01395
2541.95	7.96905
2543.33	7.69592
2544.7	7.56195
2546.08	6.82725
2547.45	6.6583
2548.82	6.69713
2550.2	6.63319
2551.57	6.53479
2552.94	6.23588
2554.32	6.40152
2555.69	6.28164
2557.06	6.43128
2558.43	6.46711
2559.8	6.58295
2561.18	6.70958
2562.55	6.29759
2563.92	6.03665
2565.29	6.17341
2566.66	6.31386
2568.03	7.10029
2569.4	7.4328
2570.77	7.6677
2572.14	7.83844
2573.51	7.5938
2574.88	7.63335
2576.25	7.16279
2577.61	6.61235
2578.98	6.13416
2580.35	5.80028
2581.72	5.1872
2583.09	4.89321
2584.45	4.54015
2585.82	4.32273
2587.19	4.02445
2588.55	4.0125
2589.92	4.4988
2591.29	4.10233
2592.65	4.50743
2594.02	4.63016
2595.38	4.91042
2596.75	5.37443
2598.11	5.39596
2599.48	5.42769
2600.84	5.24925
2602.21	5.21273
2603.57	5.48709
2604.93	5.48455
2606.3	5.3652
2607.66	5.97008
2609.02	6.21853
2610.39	6.29126
2611.75	6.46314
2613.11	6.42982
2614.47	6.58871
2615.83	7.12885
2617.19	7.93331
2618.56	8.02513
2619.92	8.75425
2621.28	8.63071
2622.64	9.17169
2624	9.92554
2625.36	10.0218
2626.72	10.268
2628.08	11.0258
2629.44	11.2079
2630.8	11.5203
2632.15	12.0275
2633.51	12.4892
2634.87	12.9632
2636.23	12.808
2637.59	13.0056
2638.94	13.277
2640.3	13.2636
2641.66	12.7274
2643.02	12.2505
2644.37	12.2256
2645.73	12.6827
2647.09	12.9216
2648.44	12.9897
2649.8	12.9846
2651.15	12.6682
2652.51	12.7284
2653.86	12.8332
2655.22	12.7282
2656.57	12.8676
2657.93	12.5886
2659.28	12.1523
2660.63	12.825
2661.99	12.5856
2663.34	12.7722
2664.69	12.5459
2666.05	12.5229
2667.4	12.1552
2668.75	11.5589
2670.1	11.2436
2671.45	11.1297
2672.81	10.3055
2674.16	10.6901
2675.51	11.0873
2676.86	10.9441
2678.21	11.6266
2679.56	11.5697
2680.91	11.5887
2682.26	11.544
2683.61	12.3003
2684.96	12.1368
2686.31	12.0717
2687.66	12.1761
2689	11.9243
2690.35	11.9943
2691.7	11.9229
2693.05	11.8499
2694.4	12.2973
2695.74	12.711
2697.09	12.7712
2698.44	12.8096
2699.79	12.6207
2701.13	13.2763
2702.48	13.6477
2703.83	14.1306
2705.17	14.9774
2706.52	15.5771
2707.86	15.4824
2709.21	15.9542
2710.55	16.437
2711.9	17.2522
2713.24	18.1361
2714.58	17.8589
2715.93	17.9419
2717.27	18.1968
2718.62	18.0059
2719.96	17.8752
2721.3	17.7131
2722.65	16.8568
2723.99	16.5208
2725.33	16.2476
2726.67	16.2329
2728.01	16.782
2729.35	16.7966
2730.7	16.9966
2732.04	16.6327
2733.38	16.1912
2734.72	15.6452
2736.06	15.2642
2737.4	15.3941
2738.74	15.3507
2740.08	15.1216
2741.42	15.5135
2742.76	14.8879
2744.1	14.6227
2745.43	14.8445
2746.77	14.4777
2748.11	14.4264
2749.45	14.4124
2750.79	14.6977
2752.12	13.8177
2753.46	13.8343
2754.8	13.5173
2756.14	13.3803
2757.47	12.6982
2758.81	12.621
2760.14	12.6431
2761.48	12.2068
2762.81	12.018
2764.15	11.8258
2765.49	11.8871
2766.82	11.8994
2768.16	11.8178
2769.49	12.5688
2770.82	12.8917
2772.16	12.4882
2773.49	12.088
2774.82	11.7118
2776.16	11.2736
2777.49	10.104
2778.82	9.55535
2780.16	9.19052
2781.49	8.80516
2782.82	8.02268
2784.15	7.38294
2785.48	6.70952
2786.82	6.19761
2788.15	5.94084
2789.48	5.05507
2790.81	5.10548
2792.14	5.11046
2793.47	4.91327
2794.8	4.52588
2796.13	4.58481
2797.46	3.97866
2798.79	3.63748
2800.12	3.0484
2801.44	2.88896
2802.77	2.89692
2804.1	2.81311
2805.43	1.79189
2806.76	1.79571
2808.08	1.45523
2809.41	0.943401
2810.74	1.13067
2812.07	1.37767
2813.39	1.64866
2814.72	1.4932
2816.05	1.88721
2817.37	2.76703
2818.7	3.81635
2820.02	4.80684
2821.35	6.35753
2822.67	8.12139
2824	9.99082
2825.32	12.2618
2826.65	14.62
2827.97	16.3333
2829.3	18.9422
2830.62	22.1574
2831.94	24.9669
2833.26	27.5045
2834.59	30.7657
2835.91	34.3482
2837.23	36.3316
2838.56	39.9765
2839.88	43.767
2841.2	47.299
2842.52	50.5171
2843.84	55.6938
2845.16	60.8068
2846.48	65.4404
2847.8	71.0268
2849.12	75.9264
2850.45	81.5569
2851.77	87.5455
2853.08	93.2399
2854.4	98.8903
2855.72	104.464
2857.04	109.69
2858.36	115.474
2859.68	121.13
2861	126.159
2862.32	131.537
2863.63	136.072
2864.95	140.569
2866.27	144.87
2867.59	150.512
2868.9	154.953
2870.22	158.985
2871.54	163.121
2872.85	168.162
2874.17	171.962
2875.48	175.727
2876.8	180.236
2878.11	183.784
2879.43	187.484
2880.74	191.08
2882.06	194.828
2883.37	198.251
2884.69	202.576
2886	205.86
2887.31	209.713
2888.63	213.394
2889.94	216.094
2891.25	218.715
2892.57	222.04
2893.88	224.854
2895.19	228.536
2896.5	232.852
2897.82	236.092
2899.13	239.016
2900.44	243.316
2901.75	247.67
2903.06	252.95
2904.37	258.373
2905.68	263.631
2906.99	269.317
2908.3	274.675
2909.61	281.374
2910.92	287.125
2912.23	293.305
2913.54	300.732
2914.85	306.175
2916.16	311.072
2917.46	316.672
2918.77	320.338
2920.08	324.269
2921.39	327.181
2922.7	330.188
2924	332.716
2925.31	334.593
2926.62	335.185
2927.92	336.151
2929.23	335.799
2930.54	335.439
2931.84	334.542
2933.15	333.967
2934.45	331.414
2935.76	329.107
2937.06	325.993
2938.37	322.651
2939.67	317.743
2940.98	313.098
2942.28	308.709
2943.58	303.264
2944.89	297.999
2946.19	292.336
2947.49	286.003
2948.8	280.46
2950.1	275.076
2951.4	268.015
2952.7	261.511
2954.01	255.005
2955.31	247.662
2956.61	241.887
2957.91	236.09
2959.21	230.724
2960.51	225.178
2961.81	220.412
2963.11	214.71
2964.41	209.206
2965.71	205.043
2967.01	200.433
2968.31	195.779
2969.61	190.624
2970.91	186.673
2972.21	182.246
2973.51	178.074
2974.81	174.304
2976.1	170.014
2977.4	165.914
2978.7	161.77
2980	155.329
2981.29	149.762
2982.59	144.667
2983.89	138.587
2985.18	133.79
2986.48	127.928
2987.78	121.976
2989.07	115.605
2990.37	109.9
2991.66	103.807
2992.96	98.4333
2994.25	92.6655
2995.55	87.437
2996.84	81.5054
2998.14	76.6022
2999.43	70.7293
3000.73	65.3366
3002.02	59.8987
3003.31	54.9834
3004.61	49.5021
3005.9	45.0346
3007.19	40.9045
3008.48	36.5877
3009.77	32.7572
3011.07	29.2601
3012.36	25.917
3013.65	23.4578
3014.94	20.2609
3016.23	17.1741
3017.52	14.9379
3018.81	12.7089
3020.1	10.4936
3021.4	9.45982
3022.68	7.4048
3023.97	6.11513
3025.26	4.20161
3026.55	3.06865
3027.84	2.08711
3029.13	1.32923
3030.42	0.683417
3031.71	0.501089
3033	0.295071
3034.28	0.541635
3035.57	0.893316
3036.86	1.55262
3038.15	2.0351
3039.43	2.14851
3040.72	2.74329
3042.01	3.67679
3043.29	4.18283
3044.58	4.37339
3045.87	5.02308
3047.15	5.56109
3048.44	6.48822
3049.72	6.83941
3051.01	6.97868
3052.29	7.63712
3053.58	8.81377
3054.86	8.86446
3056.15	9.51944
3057.43	9.86892
3058.71	10.0342
3060	10.033
3061.28	9.81247
3062.56	9.87297
3063.84	9.44395
3065.13	9.02638
3066.41	9.09273
3067.69	8.69642
3068.97	8.14622
3070.26	8.50777
3071.54	8.57222
3072.82	8.10545
3074.1	7.89113
3075.38	7.63603
3076.66	7.00678
3077.94	6.41076
3079.22	4.87008
3080.5	4.38002
3081.78	3.71993
3083.06	3.03632
3084.34	2.39953
3085.62	1.70951
3086.9	0.683325
3088.18	0.425575
3089.45	0.116813
3090.73	-0.29888
3092.01	-0.149194
3093.29	-0.211205
3094.56	0.215606
3095.84	0.793512
3097.12	0.563979
3098.4	0.905498
3099.67	1.16771
3100.95	1.71702
3102.22	1.17561
3103.5	1.72307
3104.78	2.27164
3106.05	2.28233
3107.33	3.29186
3108.6	3.77488
3109.88	4.33446
3111.15	5.34054
3112.43	6.05704
3113.7	7.02592
3114.97	7.85317
3116.25	8.88574
3117.52	9.38399
3118.79	9.86787
3120.07	11.1158
3121.34	11.628
3122.61	12.5042
3123.88	13.1359
3125.16	13.6716
3126.43	14.825
3127.7	15.8755
3128.97	16.7134
3130.24	18.0049
3131.51	18.3674
3132.79	19.7277
3134.06	20.9743
3135.33	21.5815
3136.6	22.4432
3137.87	23.5885
3139.14	24.274
3140.41	24.6881
3141.67	25.4656
3142.94	26.3074
3144.21	27.2265
3145.48	28.0935
3146.75	28.8338
3148.02	30.2348
3149.29	32.148
