#Acq. time (s)=	45
#Accumulations=	2
#Range (cm-¹)=	200...3150
#Windows=	2
#Auto scanning=	Off
#Autofocus=	Off
#Macrospot=	Off
#AutoExposure=	Off
#Spike filter=	Multiple accum.
#Delay time (s)=	0
#Binning=	1
#Readout mode=	Signal
#DeNoise=	Off
#ICS correction=	On
#Dark correction=	Off
#Inst. Process=	Off
#Detector Gain=	Best Dynamic Range
#Detector ADC=	20 kHz       
#Detector temperature (°C)=	-69.85
#Instrument=	LabRAM HR Evol
#Detector=	Synapse
#Objective=	x100
#Grating=	600 gr/mm
#ND Filter=	100%
#Laser (nm)=	532 
#Hole=	100.021
#Range=	Auto
#Laser Pol.=	No
#Raman. Pol.=	No
#Laser Pol. (°)=	-0.0007625
#Raman Pol. (°)=	89.9995
#Collection=	Microscope
#StageXY=	Marzhauser
#StageZ=	Marzhauser
#X (µm)=	8977
#Y (µm)=	-3072.6
#Z (µm)=	-54.85
#Full time(mm:ss)=	3:19
#Project=	
#Sample=	
#Site=	
#Title=	Thy_00_07_32_2x_45s_532 nm_x100_100%_600 gr_mm
#Remark=	
#Date=	28.06.2022 12:26
#Acquired=	28.06.2022 12:26:42
#Base:Fit=	10.08.2022 10:07:56
#Base:Sub=	10.08.2022 10:08:40
#Filter:Polynom=	16.08.2022 10:26:06
#AxisType[0]=Intens
#AxisUnit[0]=Cnt
#AxisType[1]=Spectr
#AxisUnit[1]=1/cm
200.407	5.90269
202.221	6.33603
204.035	7.09507
205.849	8.55424
207.665	10.0112
209.478	10.8784
211.291	11.3964
213.104	11.4106
214.916	11.9549
216.73	12.482
218.541	12.3084
220.352	11.9425
222.163	11.3415
223.973	11.6042
225.785	10.4171
227.595	10.4411
229.404	10.5
231.213	9.62093
233.022	9.00782
234.83	8.72997
236.638	7.99839
238.448	7.70451
240.255	8.27338
242.062	8.31905
243.868	7.54235
245.675	6.61274
247.48	5.35503
249.286	4.47035
251.091	4.16027
252.896	2.98658
254.702	3.4186
256.506	3.59545
258.31	3.0072
260.113	3.33902
261.916	2.60559
263.719	2.07888
265.521	1.81612
267.323	2.30947
269.125	2.37236
270.926	1.5602
272.727	0.190402
274.527	-0.522296
276.328	-0.0262275
278.127	-0.250032
279.927	-0.371117
281.726	-1.16009
283.525	-0.919147
285.323	-0.0573545
287.121	1.20803
288.919	1.80295
290.716	2.29606
292.513	2.56032
294.31	2.81759
296.104	3.24503
297.9	3.31828
299.696	5.27607
301.491	5.88645
303.286	6.75667
305.081	7.79385
306.875	7.7796
308.669	7.48136
310.463	7.397
312.256	7.29798
314.047	7.67255
315.839	8.47899
317.631	9.85996
319.423	10.3497
321.215	10.0917
323.006	11.117
324.794	11.4665
326.585	11.2524
328.375	12.3515
330.165	12.6724
331.954	12.3515
333.741	12.3583
335.53	12.4158
337.318	12.4454
339.106	13.2482
340.894	13.3666
342.679	13.6625
344.466	13.5811
346.253	13.0686
348.039	12.906
349.823	12.9274
351.608	12.1348
353.393	12.1116
355.176	11.1945
356.961	11.0067
358.745	9.30675
360.529	8.18483
362.31	7.89796
364.093	7.67976
365.876	7.39082
367.657	6.62688
369.439	6.97128
371.221	6.47254
373	7.49235
374.781	7.61427
376.56	6.19156
378.34	5.89746
380.12	5.70859
381.898	5.61628
383.677	7.04851
385.456	7.01676
387.233	6.67467
389.011	7.39157
390.787	6.67716
392.565	6.25362
394.34	5.54563
396.117	5.35587
397.894	5.19093
399.668	5.44655
401.444	6.64772
403.217	7.79251
404.993	8.8134
406.766	8.38275
408.54	8.01626
410.312	8.58107
412.086	9.0684
413.858	8.56711
415.631	9.10442
417.402	9.04195
419.174	8.92987
420.944	9.33889
422.716	9.27925
424.486	9.04543
426.257	9.21207
428.025	9.82738
429.794	8.53714
431.564	9.14725
433.332	8.0229
435.101	7.83857
436.868	7.05653
438.637	7.04466
440.403	6.91636
442.169	6.74487
443.937	6.73808
445.703	7.05051
447.468	6.86773
449.234	7.80167
450.999	7.73835
452.765	7.94009
454.528	7.92149
456.292	8.63136
458.057	9.24352
459.819	9.04445
461.582	9.86208
463.344	8.84054
465.107	8.91991
466.868	10.2549
468.629	10.5869
470.392	11.2336
472.152	12.3559
473.912	12.4135
475.672	13.0638
477.433	15.0091
479.192	14.5895
480.951	15.4503
482.709	17.6792
484.469	18.8789
486.226	19.5611
487.984	21.0655
489.74	21.8731
491.499	21.861
493.255	22.5643
495.011	22.7594
496.767	23.7523
498.522	24.3514
500.277	24.0883
502.033	24.6211
503.788	25.7813
505.541	25.1396
507.295	25.1589
509.048	24.2836
510.801	24.2668
512.553	24.2679
514.308	23.0643
516.06	21.8433
517.811	20.4032
519.562	20.763
521.313	19.0345
523.063	18.5802
524.814	18.1891
526.563	17.8883
528.313	18.0424
530.062	17.2414
531.811	17.4164
533.559	16.9727
535.308	16.8827
537.055	16.7311
538.803	16.836
540.55	16.9296
542.297	15.9584
544.043	15.788
545.789	15.8197
547.535	15.3604
549.281	15.3534
551.026	13.8594
552.771	14.2889
554.515	13.7557
556.259	13.1072
558.003	12.8621
559.747	13.2774
561.49	12.8353
563.233	13.1272
564.975	13.1806
566.717	12.6686
568.459	13.1773
570.2	13.637
571.942	12.5661
573.68	12.1217
575.421	12.1031
577.161	11.2444
578.901	11.3136
580.64	11.3701
582.379	10.6181
584.118	10.611
585.855	9.83525
587.593	9.51358
589.331	8.96344
591.068	7.90611
592.805	6.42607
594.54	6.29283
596.277	5.84248
598.013	5.5384
599.749	4.86324
601.484	4.12665
603.217	3.85527
604.952	3.70509
606.687	3.8179
608.421	3.72626
610.153	3.35937
611.886	4.44061
613.619	4.4044
615.35	5.48202
617.083	5.87659
618.815	6.41378
620.547	7.03514
622.276	7.20843
624.008	7.23931
625.738	7.4396
627.467	7.04487
629.197	6.48411
630.927	6.93068
632.655	6.25429
634.384	5.85298
636.113	5.23975
637.839	5.32755
639.568	4.99825
641.293	5.18441
643.021	5.07193
644.748	5.19494
646.473	5.67453
648.2	5.36676
649.924	5.30041
651.65	4.6253
653.376	4.62083
655.099	4.55989
656.824	5.34745
658.546	4.75834
660.271	4.8499
661.993	5.52406
663.716	5.17905
665.438	5.12245
667.161	5.3116
668.881	5.27611
670.604	5.40185
672.324	5.29195
674.045	5.72989
675.765	5.91571
677.486	6.35503
679.204	8.0537
680.925	8.70434
682.643	9.48483
684.361	10.9956
686.08	12.6367
687.797	13.9292
689.516	14.9894
691.232	16.2396
692.95	17.2743
694.666	18.3391
696.382	19.2929
698.099	20.7637
699.813	21.0745
701.528	22.3171
703.244	22.5155
704.958	22.6373
706.673	23.3248
708.387	23.8125
710.099	24.122
711.814	23.8664
713.526	24.3986
715.238	24.9616
716.949	25.826
718.663	26.3976
720.374	26.8953
722.084	27.0913
723.796	28.1242
725.506	27.909
727.216	29.0182
728.925	28.492
730.636	29.1141
732.345	30.0457
734.053	30.2706
735.761	30.6198
737.471	31.4509
739.178	32.3466
740.885	32.9753
742.592	33.8769
744.298	35.0579
746.006	36.7174
747.712	37.5437
749.417	39.3154
751.122	40.4762
752.827	42.6404
754.532	43.9487
756.236	45.9852
757.942	48.0769
759.645	50.3996
761.348	52.2474
763.051	54.7361
764.753	57.8543
766.456	58.8807
768.158	60.9695
769.859	62.2068
771.56	63.9143
773.261	65.7879
774.964	66.7057
776.664	68.2525
778.364	69.3163
780.064	70.4835
781.763	70.7883
783.462	70.5498
785.16	71.7532
786.859	71.4433
788.557	71.6965
790.255	71.8159
791.952	72.1384
793.649	72.989
795.346	72.62
797.042	72.3348
798.738	74.2015
800.434	75.1718
802.127	74.5132
803.823	73.3767
805.517	72.0599
807.212	71.982
808.906	71.7355
810.6	70.5568
812.293	69.4534
813.987	68.3449
815.68	67.5613
817.372	66.4873
819.064	65.8337
820.754	64.8785
822.446	64.3711
824.137	64.9944
825.828	64.7498
827.519	65.7525
829.209	66.4413
830.897	66.7373
832.587	66.4066
834.276	66.5992
835.966	65.0291
837.654	64.0894
839.341	63.8253
841.029	62.6238
842.717	61.8998
844.404	61.7031
846.091	60.2627
847.776	60.3367
849.463	59.4419
851.149	57.227
852.833	56.3389
854.519	55.3469
856.204	54.8659
857.889	53.5338
859.572	51.766
861.256	50.5139
862.94	48.8448
864.622	47.4261
866.305	46.4487
867.988	45.4496
869.669	44.6392
871.351	43.3179
873.033	42.9701
874.713	41.1812
876.395	40.3964
878.074	39.6242
879.755	38.526
881.435	38.3521
883.114	38.5069
884.794	36.2085
886.471	33.5877
888.15	31.7294
889.829	29.9451
891.506	29.285
893.184	28.529
894.861	26.8848
896.538	27.2134
898.214	27.0074
899.891	27.8156
901.566	29.0033
903.242	29.2413
904.916	29.728
906.592	31.2982
908.266	32.3079
909.941	32.064
911.614	32.7028
913.288	33.9715
914.961	33.5517
916.635	33.8087
918.306	33.9231
919.979	34.0691
921.651	34.5428
923.321	35.2542
924.994	35.137
926.664	35.8881
928.336	35.5255
930.005	35.0654
931.674	36.0179
933.345	35.2526
935.014	34.7493
936.682	34.7212
938.352	34.3506
940.019	33.8226
941.687	33.778
943.356	33.3743
945.022	33.5016
946.689	33.9627
948.357	33.2036
950.022	33.2073
951.688	32.3924
953.355	31.1373
955.02	30.5554
956.684	30.138
958.348	28.2475
960.014	27.4899
961.678	26.1395
963.341	25.803
965.004	25.0574
966.669	24.7361
968.331	25.2527
969.993	26.1214
971.655	27.0394
973.316	27.8982
974.979	30.0842
976.64	30.5504
978.3	30.9808
979.961	32.8773
981.62	33.2149
983.28	34.5749
984.941	34.7147
986.6	34.9845
988.259	35.6418
989.917	36.0717
991.575	36.219
993.233	36.8986
994.89	37.1528
996.547	38.3982
998.204	38.5998
999.86	39.5654
1001.52	39.6172
1003.17	40.2687
1004.83	39.7225
1006.49	39.6453
1008.14	40.1635
1009.79	40.381
1011.45	40.634
1013.1	41.0014
1014.76	40.8683
1016.41	39.8929
1018.06	39.4283
1019.72	38.0076
1021.37	37.9662
1023.02	37.676
1024.67	37.0648
1026.32	34.8355
1027.97	33.7592
1029.62	32.2082
1031.27	30.8522
1032.92	30.1038
1034.57	28.4964
1036.22	26.4956
1037.87	25.8238
1039.52	24.6928
1041.17	22.8069
1042.82	21.9241
1044.47	21.4718
1046.11	22.1579
1047.76	21.8625
1049.41	22.7597
1051.06	21.8609
1052.7	21.3003
1054.35	20.8575
1055.99	20.1758
1057.64	19.6197
1059.28	18.1379
1060.93	17.7929
1062.57	17.271
1064.22	16.4453
1065.86	16.0154
1067.5	16.8866
1069.15	17.4597
1070.79	16.3701
1072.43	16.4684
1074.08	16.846
1075.72	16.9744
1077.36	17.3405
1079	18.5481
1080.64	18.1763
1082.28	17.5757
1083.92	17.9741
1085.56	18.6538
1087.2	18.9854
1088.84	19.2163
1090.48	19.5253
1092.12	20.6206
1093.76	20.0531
1095.39	20.3354
1097.03	20.3687
1098.67	20.7965
1100.31	21.0756
1101.94	19.8046
1103.58	20.9082
1105.22	20.2568
1106.85	19.7912
1108.49	19.3477
1110.12	19.359
1111.76	18.5451
1113.39	19.0719
1115.03	17.8295
1116.66	17.2295
1118.29	16.6409
1119.93	16.4983
1121.56	15.3296
1123.19	13.7147
1124.82	13.1136
1126.46	12.9164
1128.09	12.723
1129.72	11.9439
1131.35	11.8003
1132.98	10.7301
1134.61	11.556
1136.24	10.0426
1137.87	9.50495
1139.5	9.17367
1141.13	9.03032
1142.76	8.8485
1144.39	8.43485
1146.01	7.89938
1147.64	7.9821
1149.27	8.25537
1150.9	6.68717
1152.53	4.83085
1154.15	4.44021
1155.78	3.97611
1157.4	2.99485
1159.03	2.37124
1160.65	2.01675
1162.28	1.11643
1163.9	1.41172
1165.53	1.67663
1167.15	1.34841
1168.78	1.55605
1170.4	1.60445
1172.02	2.94858
1173.65	4.67909
1175.27	4.79285
1176.89	6.43322
1178.51	7.02396
1180.14	8.19468
1181.76	8.75908
1183.38	9.08638
1185	9.54524
1186.62	9.21523
1188.24	9.56625
1189.86	9.98307
1191.48	10.4956
1193.1	11.1014
1194.71	12.7686
1196.33	12.1563
1197.95	13.621
1199.57	14.455
1201.19	14.7186
1202.8	15.0669
1204.42	16.3669
1206.04	17.805
1207.65	19.0305
1209.27	20.9554
1210.88	23.4029
1212.5	25.1406
1214.12	27.2353
1215.73	29.2773
1217.35	30.6811
1218.96	33.584
1220.57	35.5661
1222.19	37.3732
1223.8	38.5934
1225.41	39.4693
1227.03	41.0454
1228.64	42.7714
1230.25	43.8396
1231.86	44.2772
1233.47	45.1059
1235.08	46.2546
1236.69	46.7324
1238.31	46.9961
1239.92	48.4033
1241.52	49.6237
1243.13	49.958
1244.74	51.2391
1246.35	51.5093
1247.96	51.4851
1249.57	51.9424
1251.18	51.9564
1252.78	51.3303
1254.39	51.1516
1256	50.1251
1257.6	49.3834
1259.21	48.3568
1260.82	47.5894
1262.42	47.1595
1264.03	46.6753
1265.63	45.2503
1267.24	45.4563
1268.84	45.1223
1270.45	44.4621
1272.05	43.9444
1273.65	43.0034
1275.26	43.0828
1276.86	42.8333
1278.46	43.6755
1280.06	43.9956
1281.67	45.0069
1283.27	46.617
1284.87	47.9896
1286.47	49.3152
1288.07	51.1006
1289.67	52.2773
1291.27	53.8697
1292.87	54.4987
1294.47	56.7495
1296.07	58.0229
1297.67	59.7537
1299.27	61.2939
1300.87	63.0771
1302.47	64.342
1304.06	65.5387
1305.66	67.0267
1307.26	69.1825
1308.85	69.2584
1310.45	71.028
1312.05	72.5357
1313.64	74.3326
1315.24	75.122
1316.83	76.0939
1318.43	76.8
1320.02	78.5728
1321.62	78.0595
1323.21	78.1537
1324.8	78.5115
1326.4	77.8763
1327.99	77.0191
1329.59	76.6864
1331.18	76.7278
1332.77	76.0218
1334.36	76.0266
1335.95	75.9654
1337.54	76.1221
1339.14	75.4115
1340.73	75.2412
1342.32	74.9937
1343.91	73.8519
1345.5	72.4474
1347.09	71.7523
1348.67	70.7149
1350.26	69.6164
1351.85	69.0223
1353.44	68.4323
1355.03	68.3409
1356.62	66.7993
1358.2	64.7641
1359.79	64.3415
1361.38	63.6348
1362.96	61.944
1364.55	60.5896
1366.14	58.6699
1367.72	57.8203
1369.31	57.3487
1370.89	56.1353
1372.48	55.3581
1374.06	54.4882
1375.64	53.5249
1377.23	52.7737
1378.81	51.6648
1380.39	50.8936
1381.98	50.7183
1383.56	51.0119
1385.14	51.1867
1386.72	50.9066
1388.3	50.6912
1389.89	51.601
1391.47	51.7524
1393.05	51.2765
1394.63	50.7103
1396.21	50.3821
1397.79	49.7807
1399.37	49.8021
1400.95	48.8221
1402.52	48.091
1404.1	48.1425
1405.68	47.3275
1407.26	47.5207
1408.84	48.5714
1410.42	50.4047
1411.99	50.636
1413.57	51.8037
1415.15	52.6128
1416.72	53.6103
1418.3	53.7909
1419.87	55.8076
1421.45	58.1109
1423.02	59.7815
1424.6	61.7206
1426.17	63.9257
1427.75	66.2237
1429.32	68.8368
1430.89	71.7078
1432.47	73.4831
1434.04	76.1492
1435.61	78.0833
1437.18	80.9281
1438.76	82.9454
1440.33	84.3959
1441.9	85.023
1443.47	86.3357
1445.04	87.4062
1446.61	89.3359
1448.18	89.915
1449.75	90.0326
1451.32	91.8374
1452.89	91.9831
1454.46	91.9074
1456.03	91.1417
1457.6	89.9347
1459.16	89.3048
1460.73	87.7791
1462.3	85.4507
1463.87	82.9724
1465.43	80.6565
1467	77.4975
1468.56	74.0717
1470.13	71.1617
1471.7	67.042
1473.26	63.6139
1474.83	59.8056
1476.39	56.2268
1477.96	52.8238
1479.52	49.4565
1481.08	45.7273
1482.65	43.2527
1484.21	40.0173
1485.77	37.3953
1487.34	34.6615
1488.9	31.4884
1490.46	27.2057
1492.02	25.1006
1493.58	22.5708
1495.15	20.9983
1496.71	18.8808
1498.27	17.6509
1499.83	16.0214
1501.39	13.3638
1502.95	13.094
1504.51	12.2056
1506.07	10.696
1507.63	10.5102
1509.18	9.66647
1510.74	9.38667
1512.3	9.79318
1513.86	9.1683
1515.41	8.28063
1516.97	7.07195
1518.53	7.64834
1520.08	8.33659
1521.64	9.05537
1523.2	9.76714
1524.75	11.3451
1526.31	12.5391
1527.86	12.8377
1529.42	13.3792
1530.97	13.6186
1532.52	13.9185
1534.08	13.708
1535.63	14.421
1537.19	14.6446
1538.74	14.8874
1540.29	16.4245
1541.84	19.0772
1543.4	20.4684
1544.95	21.1432
1546.5	23.3619
1548.05	25.8233
1549.6	27.1849
1551.15	29.0568
1552.7	31.1365
1554.25	33.7783
1555.8	35.1681
1557.35	37.363
1558.9	39.3157
1560.45	41.0264
1562	42.7354
1563.54	44.3076
1565.09	45.6494
1566.64	46.402
1568.19	47.1905
1569.73	49.5263
1571.28	50.4314
1572.83	51.7249
1574.37	52.4841
1575.92	53.2795
1577.47	54.5626
1579.01	56.0279
1580.56	58.097
1582.1	58.7953
1583.64	60.118
1585.19	61.9927
1586.73	63.0135
1588.28	64.3824
1589.82	64.6078
1591.36	65.5757
1592.9	65.4143
1594.45	66.0574
1595.99	67.2905
1597.53	68.2946
1599.07	67.7163
1600.61	68.1087
1602.15	68.0986
1603.69	67.491
1605.23	66.0797
1606.77	65.6009
1608.31	65.4086
1609.85	64.7598
1611.39	64.2615
1612.93	64.2885
1614.47	63.85
1616.01	64.4217
1617.55	64.1348
1619.08	64.1923
1620.62	62.8946
1622.16	62.7904
1623.7	62.971
1625.23	62.1932
1626.77	62.5372
1628.3	63.1611
1629.84	64.0383
1631.37	64.7667
1632.91	64.8349
1634.44	66.6126
1635.98	67.5187
1637.51	67.7372
1639.05	68.7508
1640.58	69.6917
1642.11	70.2853
1643.65	71.8253
1645.18	73.865
1646.71	75.901
1648.24	76.722
1649.78	77.4237
1651.31	78.4994
1652.84	79.1327
1654.37	80.7648
1655.9	81.2009
1657.43	82.0362
1658.96	82.2704
1660.49	82.7412
1662.02	83.551
1663.55	83.5741
1665.08	83.0752
1666.61	82.4511
1668.14	82.021
1669.66	80.6506
1671.19	79.7702
1672.72	78.3014
1674.25	76.5981
1675.77	74.3588
1677.3	71.9964
1678.83	70.1344
1680.35	68.1653
1681.88	65.3709
1683.4	63.5032
1684.93	61.4959
1686.45	58.948
1687.98	55.8137
1689.5	52.9438
1691.03	50.2274
1692.55	47.1311
1694.07	43.1103
1695.6	40.0955
1697.12	37.9336
1698.64	35.6134
1700.17	32.9818
1701.69	30.7753
1703.21	30.1498
1704.73	28.2857
1706.25	26.2792
1707.77	25.2072
1709.29	23.7757
1710.81	22.5382
1712.33	20.7074
1713.85	18.5045
1715.37	17.6659
1716.89	16.6446
1718.41	15.8061
1719.93	15.2452
1721.45	14.1636
1722.97	12.9941
1724.49	12.0602
1726	11.0901
1727.52	11.0459
1729.04	10.4526
1730.55	10.8889
1732.07	10.5367
1733.59	10.9821
1735.1	10.5581
1736.62	10.903
1738.13	10.3559
1739.65	9.6629
1741.16	9.24134
1742.68	9.15817
1744.19	8.84391
1745.7	8.51407
1747.22	8.07465
1748.73	7.50194
1750.24	6.91127
1751.76	6.21467
1753.27	5.90112
1754.78	6.08847
1756.29	5.59527
1757.8	5.32115
1759.31	5.12116
1760.83	4.71622
1762.34	3.73923
1763.85	3.32983
1765.36	2.99047
1766.87	2.69432
1768.38	2.25326
1769.89	1.53711
1771.39	2.12094
1772.9	2.47918
1774.41	1.87576
1775.92	1.20925
1777.43	1.25137
1778.94	1.41673
1780.44	0.995594
1781.95	0.219584
1783.46	0.614501
1784.96	0.216457
1786.47	0.190676
1787.97	0.373136
1789.48	0.422944
1790.99	1.36154
1792.49	1.84002
1794	1.86131
1795.5	2.22037
1797	2.54553
1798.51	2.86438
1800.01	2.85951
1801.51	2.80097
1803.02	3.81092
1804.52	3.87726
1806.02	4.41412
1807.53	4.39867
1809.03	4.47699
1810.53	4.38938
1812.03	4.97779
1813.53	5.16142
1815.03	5.49733
1816.53	5.31255
1818.03	5.45844
1819.53	5.34812
1821.03	4.73404
1822.53	4.48032
1824.03	4.25008
1825.53	4.00873
1827.03	4.16874
1828.53	4.22261
1830.02	3.69262
1831.52	3.51767
1833.02	3.77641
1834.52	3.29858
1836.01	2.79946
1837.51	2.43835
1839.01	2.47548
1840.5	2.12031
1842	2.11797
1843.49	2.31101
1844.99	2.2453
1846.48	2.2765
1847.98	2.15293
1849.47	2.04347
1850.97	2.14861
1852.46	2.45199
1853.95	2.71797
1855.45	2.39212
1856.94	2.77271
1858.43	3.66085
1859.93	4.08826
1861.42	3.54924
1862.91	3.67066
1864.4	3.85308
1865.89	4.18435
1867.38	4.0936
1868.87	3.63522
1870.36	3.37993
1871.85	3.44156
1873.34	2.85538
1874.83	2.94757
1876.32	2.8123
1877.81	2.82133
1879.3	2.13859
1880.79	2.64613
1882.28	2.36057
1882.52	2.325
1884.02	2.76336
1885.51	2.59916
1887.01	2.69283
1888.5	2.58427
1889.99	1.96993
1891.49	1.81267
1892.98	1.49115
1894.47	1.45431
1895.97	1.52465
1897.46	1.51645
1898.95	1.5328
1900.44	1.60885
1901.93	1.17621
1903.42	1.21975
1904.91	1.13128
1906.4	1.2342
1907.89	0.277785
1909.38	0.678386
1910.87	0.87425
1912.36	1.24867
1913.85	1.71263
1915.34	2.27598
1916.83	2.67833
1918.32	3.22905
1919.8	3.47088
1921.29	3.87285
1922.78	3.84349
1924.27	3.95921
1925.75	3.70397
1927.24	3.87516
1928.73	3.77624
1930.21	4.0784
1931.7	3.47829
1933.18	3.15223
1934.67	2.95655
1936.15	3.41448
1937.64	3.19715
1939.12	3.51873
1940.61	3.09973
1942.09	2.98707
1943.57	2.44483
1945.06	3.16299
1946.54	2.75519
1948.02	3.07606
1949.51	3.49478
1950.99	3.92129
1952.47	4.08818
1953.95	4.39085
1955.43	3.65115
1956.91	3.68269
1958.4	3.96233
1959.88	3.67294
1961.36	3.64021
1962.84	3.25881
1964.32	2.63274
1965.8	3.65751
1967.27	3.72717
1968.75	3.63511
1970.23	3.39296
1971.71	3.33957
1973.19	3.16087
1974.67	3.44985
1976.14	3.30703
1977.62	3.8157
1979.1	4.00586
1980.58	4.02235
1982.05	3.81082
1983.53	4.42099
1985	5.03192
1986.48	5.42242
1987.95	5.27786
1989.43	5.46179
1990.9	5.54019
1992.38	5.69463
1993.85	5.12961
1995.33	4.54709
1996.8	3.93397
1998.27	3.5633
1999.75	3.66203
2001.22	3.32481
2002.69	3.48869
2004.16	3.65215
2005.64	3.24684
2007.11	3.52671
2008.58	3.44232
2010.05	3.25455
2011.52	3.21774
2012.99	3.30412
2014.46	2.80753
2015.93	3.8557
2017.4	3.77147
2018.87	4.35623
2020.34	4.72609
2021.81	4.80385
2023.28	4.98459
2024.75	4.15085
2026.22	3.79557
2027.69	3.78844
2029.15	3.73713
2030.62	4.88179
2032.09	5.04676
2033.56	4.73492
2035.02	4.63434
2036.49	4.86361
2037.96	5.35405
2039.42	5.72262
2040.89	5.02282
2042.35	5.19202
2043.82	5.34915
2045.28	5.48523
2046.75	6.12126
2048.21	6.29989
2049.67	6.28197
2051.14	7.02095
2052.6	6.64837
2054.07	6.42625
2055.53	6.93064
2056.99	7.59895
2058.45	8.37338
2059.92	8.85076
2061.38	8.85742
2062.84	8.77973
2064.3	9.04789
2065.76	9.01937
2067.22	8.80072
2068.68	8.52045
2070.14	8.78304
2071.6	9.06473
2073.06	9.08397
2074.52	8.78861
2075.98	9.34798
2077.44	8.80967
2078.9	7.83143
2080.36	8.03282
2081.82	7.84775
2083.27	7.5804
2084.73	7.51395
2086.19	7.85824
2087.65	8.09675
2089.1	8.41163
2090.56	7.44741
2092.02	7.38055
2093.47	7.70046
2094.93	6.97123
2096.38	6.8445
2097.84	6.25205
2099.29	6.45679
2100.75	6.31362
2102.2	5.84369
2103.66	5.79111
2105.11	5.04212
2106.56	4.67448
2108.02	4.38853
2109.47	4.25708
2110.92	3.78307
2112.38	3.73914
2113.83	3.96587
2115.28	4.08216
2116.73	4.3166
2118.18	4.12722
2119.63	4.6425
2121.09	4.94752
2122.54	5.4204
2123.99	5.44814
2125.44	5.42597
2126.89	6.00012
2128.34	6.12018
2129.79	6.26424
2131.23	6.24756
2132.68	6.49603
2134.13	5.84055
2135.58	6.00582
2137.03	6.76955
2138.48	6.98235
2139.92	6.76532
2141.37	6.91459
2142.82	7.50835
2144.27	7.4106
2145.71	7.22923
2147.16	7.35625
2148.6	7.61293
2150.05	7.34775
2151.49	6.95387
2152.94	7.31064
2154.38	7.19298
2155.83	7.26636
2157.27	8.20334
2158.72	8.39283
2160.16	8.26776
2161.6	8.35017
2163.05	8.27442
2164.49	8.21057
2165.93	8.23433
2167.38	7.61045
2168.82	7.14592
2170.26	6.63442
2171.7	6.85511
2173.14	6.35726
2174.58	6.24766
2176.03	6.21409
2177.47	6.06742
2178.91	5.65254
2180.35	5.42523
2181.79	5.36565
2183.23	5.68686
2184.67	6.02025
2186.1	5.49416
2187.54	5.00888
2188.98	5.19038
2190.42	4.53377
2191.86	4.84293
2193.3	4.98269
2194.73	4.62147
2196.17	4.0348
2197.61	4.4742
2199.05	4.09201
2200.48	4.26432
2201.92	4.66444
2203.35	5.08417
2204.79	6.1622
2206.22	6.56348
2207.66	7.36557
2209.1	7.75949
2210.53	7.97196
2211.97	8.07649
2213.4	9.16668
2214.83	9.70928
2216.27	9.26435
2217.7	10.1064
2219.13	10.479
2220.57	10.4384
2222	10.8251
2223.43	10.557
2224.86	11.0429
2226.29	11.5582
2227.72	12.2605
2229.16	13.2612
2230.59	12.9027
2232.02	13.0446
2233.45	13.2106
2234.88	12.9928
2236.31	13.2226
2237.74	12.9784
2239.17	12.197
2240.6	11.7846
2242.03	11.3503
2243.45	11.4582
2244.88	10.8894
2246.31	10.9269
2247.74	10.1463
2249.17	9.67855
2250.59	9.03028
2252.02	8.89792
2253.45	9.00562
2254.87	8.82765
2256.3	7.94104
2257.73	7.92569
2259.15	7.44595
2260.58	7.74666
2262	7.15872
2263.43	7.22131
2264.85	7.37225
2266.28	6.89361
2267.7	6.73367
2269.13	6.75457
2270.55	6.09796
2271.97	6.10605
2273.4	5.89234
2274.82	5.70445
2276.24	5.39279
2277.67	5.18011
2279.09	5.0922
2280.51	4.94669
2281.93	4.99748
2283.35	5.42514
2284.77	5.61438
2286.2	5.24372
2287.62	4.66984
2289.04	4.64575
2290.46	4.20821
2291.88	3.79135
2293.3	3.8978
2294.72	3.37786
2296.13	3.97436
2297.55	4.55162
2298.97	5.02349
2300.39	5.47809
2301.81	5.25078
2303.23	5.78605
2304.64	5.97524
2306.06	5.89832
2307.48	5.65381
2308.89	4.77167
2310.31	4.73023
2311.73	4.7538
2313.14	4.97963
2314.56	5.24459
2315.98	5.84171
2317.39	6.57644
2318.81	6.52974
2320.22	7.35585
2321.64	7.9859
2323.05	8.70246
2324.46	8.69825
2325.88	8.88237
2327.29	8.97491
2328.7	9.13138
2330.12	9.19072
2331.53	9.22773
2332.94	8.84438
2334.35	8.38476
2335.77	8.19099
2337.18	6.83832
2338.59	6.81005
2340	6.11612
2341.41	5.91379
2342.82	6.04691
2344.23	5.62753
2345.64	5.30352
2347.05	4.92662
2348.46	4.76124
2349.87	4.79289
2351.28	4.68803
2352.69	4.49717
2354.1	4.15631
2355.51	3.32635
2356.91	2.69793
2358.32	2.19728
2359.73	1.94312
2361.14	2.06584
2362.54	1.35192
2363.95	1.24601
2365.36	1.98167
2366.76	2.13641
2368.17	2.18406
2369.58	1.76613
2370.98	1.45865
2372.39	1.66623
2373.79	1.94467
2375.2	1.65536
2376.6	2.21931
2378	2.4003
2379.41	2.5762
2380.81	2.88399
2382.22	3.31797
2383.62	4.13627
2385.02	4.64182
2386.43	5.58581
2387.83	5.45807
2389.23	4.96285
2390.63	5.06871
2392.03	4.92806
2393.44	4.79467
2394.84	4.72584
2396.24	5.30361
2397.64	4.66953
2399.04	4.60372
2400.44	4.85415
2401.84	4.25035
2403.24	4.23581
2404.64	3.99627
2406.04	4.42233
2407.44	4.62692
2408.84	5.48046
2410.23	5.40781
2411.63	5.85036
2413.03	5.84263
2414.43	6.10203
2415.83	6.23009
2417.22	6.47524
2418.62	7.29961
2420.02	7.42664
2421.41	6.99633
2422.81	7.10798
2424.21	7.0995
2425.6	7.35693
2427	7.46108
2428.39	7.46366
2429.79	7.56367
2431.18	7.29683
2432.58	7.12358
2433.97	7.52953
2435.36	7.63373
2436.76	7.02946
2438.15	7.4494
2439.54	7.67904
2440.94	8.47605
2442.33	8.6542
2443.72	8.32618
2445.12	8.06165
2446.51	7.89223
2447.9	7.0843
2449.29	6.95805
2450.68	7.05885
2452.07	6.72003
2453.46	6.20065
2454.85	5.84859
2456.24	6.01077
2457.64	5.44689
2459.02	5.42171
2460.41	5.6094
2461.8	5.31733
2463.19	4.74625
2464.58	5.05715
2465.97	5.25334
2467.36	4.80398
2468.75	4.57114
2470.13	4.32968
2471.52	3.88455
2472.91	4.08725
2474.3	4.25907
2475.68	4.27544
2477.07	4.30059
2478.45	4.54027
2479.84	4.36011
2481.23	4.23726
2482.61	4.24525
2484	4.09987
2485.38	3.58958
2486.77	3.02732
2488.15	2.7113
2489.54	2.19318
2490.92	2.27118
2492.3	2.56441
2493.69	2.35373
2495.07	2.26539
2496.45	2.43402
2497.84	2.47015
2499.22	2.32888
2500.6	2.00771
2501.98	2.00548
2503.36	1.61107
2504.75	1.94267
2506.13	2.30056
2507.51	2.4564
2508.89	2.29902
2510.27	2.0267
2511.65	1.64062
2513.03	1.77109
2514.41	2.37059
2515.79	2.63297
2517.17	3.20725
2518.55	3.58859
2519.93	3.4439
2521.3	3.50441
2522.68	3.96369
2524.06	5.38131
2525.44	5.84018
2526.82	5.8012
2528.19	5.90316
2529.57	6.09274
2530.95	6.00259
2532.32	6.15167
2533.7	7.07344
2535.08	6.77737
2536.45	6.3728
2537.83	5.99182
2539.2	6.69998
2540.58	6.97741
2541.95	7.17463
2543.33	7.40381
2544.7	7.39297
2546.08	7.24017
2547.45	7.03474
2548.82	6.44407
2550.2	6.28627
2551.57	6.13839
2552.94	6.03284
2554.32	6.16941
2555.69	6.076
2557.06	6.33597
2558.43	6.32389
2559.8	5.57471
2561.18	5.68043
2562.55	5.25513
2563.92	4.97298
2565.29	4.47055
2566.66	3.59262
2568.03	3.14672
2569.4	2.6297
2570.77	2.25201
2572.14	2.53221
2573.51	2.95505
2574.88	2.48998
2576.25	2.29176
2577.61	2.16825
2578.98	2.0281
2580.35	2.29636
2581.72	2.36028
2583.09	2.70181
2584.45	2.38069
2585.82	2.8757
2587.19	2.7467
2588.55	3.06257
2589.92	3.19958
2591.29	3.36551
2592.65	3.45582
2594.02	2.68395
2595.38	2.68066
2596.75	2.69812
2598.11	3.06323
2599.48	2.97019
2600.84	2.65102
2602.21	2.5637
2603.57	2.50636
2604.93	2.88676
2606.3	3.08883
2607.66	3.59429
2609.02	3.48406
2610.39	3.43285
2611.75	3.45049
2613.11	3.28384
2614.47	3.52455
2615.83	3.94774
2617.19	4.188
2618.56	4.57235
2619.92	4.45699
2621.28	4.46581
2622.64	4.48937
2624	3.94442
2625.36	3.63055
2626.72	3.19143
2628.08	2.61816
2629.44	2.83277
2630.8	2.62705
2632.15	2.67643
2633.51	2.64339
2634.87	2.70975
2636.23	2.92977
2637.59	3.20277
2638.94	3.90623
2640.3	4.12836
2641.66	4.16538
2643.02	4.10704
2644.37	4.07163
2645.73	4.56675
2647.09	5.07401
2648.44	5.52094
2649.8	5.44641
2651.15	5.61127
2652.51	5.96424
2653.86	6.41084
2655.22	5.96975
2656.57	5.95798
2657.93	5.9233
2659.28	5.88882
2660.63	5.82402
2661.99	6.06693
2663.34	6.56668
2664.69	6.83843
2666.05	6.56795
2667.4	6.28994
2668.75	6.17148
2670.1	6.39834
2671.45	6.49163
2672.81	6.34712
2674.16	6.05111
2675.51	5.82227
2676.86	5.66466
2678.21	5.71411
2679.56	5.58695
2680.91	5.61614
2682.26	5.8536
2683.61	6.02741
2684.96	6.4604
2686.31	6.799
2687.66	6.5317
2689	7.06284
2690.35	7.28825
2691.7	6.95637
2693.05	7.42023
2694.4	7.31974
2695.74	7.88962
2697.09	7.95304
2698.44	8.42741
2699.79	8.40666
2701.13	8.68402
2702.48	8.81209
2703.83	9.46739
2705.17	10.1642
2706.52	10.2477
2707.86	10.6794
2709.21	11.1757
2710.55	11.0485
2711.9	11.3335
2713.24	12.0001
2714.58	11.6445
2715.93	11.7779
2717.27	11.8463
2718.62	12.2401
2719.96	12.7006
2721.3	12.6639
2722.65	12.96
2723.99	12.8674
2725.33	12.9541
2726.67	13.2282
2728.01	13.5383
2729.35	13.6565
2730.7	13.9134
2732.04	13.3961
2733.38	12.7964
2734.72	12.8616
2736.06	13.0944
2737.4	12.4824
2738.74	12.262
2740.08	12.5048
2741.42	11.871
2742.76	11.6145
2744.1	11.4089
2745.43	11.0695
2746.77	10.5796
2748.11	10.764
2749.45	10.819
2750.79	10.9068
2752.12	10.7804
2753.46	9.8152
2754.8	9.25518
2756.14	9.22068
2757.47	8.64056
2758.81	8.35803
2760.14	7.69967
2761.48	7.66449
2762.81	7.40993
2764.15	6.79254
2765.49	7.08541
2766.82	6.68056
2768.16	6.80327
2769.49	7.05691
2770.82	7.1176
2772.16	6.54842
2773.49	6.23256
2774.82	6.0071
2776.16	5.46988
2777.49	4.79421
2778.82	4.4972
2780.16	4.31082
2781.49	3.93489
2782.82	3.60004
2784.15	3.55712
2785.48	3.28441
2786.82	3.31004
2788.15	3.3976
2789.48	3.56947
2790.81	3.03026
2792.14	3.63253
2793.47	3.73561
2794.8	3.77659
2796.13	3.77857
2797.46	3.93819
2798.79	3.61662
2800.12	4.11925
2801.44	4.17265
2802.77	4.24282
2804.1	3.6678
2805.43	3.59751
2806.76	3.06324
2808.08	2.30069
2809.41	2.54437
2810.74	2.04081
2812.07	1.96566
2813.39	1.76475
2814.72	1.93985
2816.05	2.23647
2817.37	2.31415
2818.7	2.37122
2820.02	2.30556
2821.35	3.36003
2822.67	4.02527
2824	4.27667
2825.32	6.2222
2826.65	6.87919
2827.97	8.14456
2829.3	8.86409
2830.62	9.93492
2831.94	11.0805
2833.26	12.3167
2834.59	14.0689
2835.91	15.7476
2837.23	17.5744
2838.56	19.7214
2839.88	22.1481
2841.2	24.3357
2842.52	27.5633
2843.84	30.5618
2845.16	33.6362
2846.48	37.0022
2847.8	40.6998
2849.12	45.2441
2850.45	49.8909
2851.77	53.9959
2853.08	59.1957
2854.4	64.2149
2855.72	68.9964
2857.04	73.707
2858.36	79.0975
2859.68	84.0364
2861	89.353
2862.32	94.1002
2863.63	99.4363
2864.95	104.31
2866.27	109.564
2867.59	113.737
2868.9	118.394
2870.22	122.728
2871.54	126.429
2872.85	130.048
2874.17	134.288
2875.48	138.417
2876.8	141.373
2878.11	144.682
2879.43	147.217
2880.74	150.037
2882.06	153.103
2883.37	154.915
2884.69	157.011
2886	159.625
2887.31	162.635
2888.63	164.465
2889.94	166.974
2891.25	169.808
2892.57	171.279
2893.88	174.242
2895.19	177.533
2896.5	180.462
2897.82	183.311
2899.13	186.709
2900.44	190.31
2901.75	194.036
2903.06	198.312
2904.37	202.758
2905.68	207.586
2906.99	212.444
2908.3	217.1
2909.61	222.088
2910.92	227.311
2912.23	233.239
2913.54	239.022
2914.85	244.184
2916.16	249.449
2917.46	254.576
2918.77	259.759
2920.08	263.851
2921.39	267.758
2922.7	271.318
2924	274.831
2925.31	277.356
2926.62	278.944
2927.92	280.393
2929.23	281.141
2930.54	281.566
2931.84	281.842
2933.15	280.687
2934.45	280.057
2935.76	277.927
2937.06	275.392
2938.37	273.116
2939.67	270.182
2940.98	266.752
2942.28	262.513
2943.58	258.312
2944.89	253.508
2946.19	249.699
2947.49	245.156
2948.8	239.815
2950.1	235.226
2951.4	230.755
2952.7	225.805
2954.01	220.862
2955.31	216.605
2956.61	211.639
2957.91	207.322
2959.21	202.726
2960.51	197.616
2961.81	192.744
2963.11	187.86
2964.41	183.727
2965.71	179.657
2967.01	175.997
2968.31	172.954
2969.61	169.362
2970.91	165.351
2972.21	161.609
2973.51	158.239
2974.81	155.125
2976.1	151.503
2977.4	147.709
2978.7	143.073
2980	139.208
2981.29	135.468
2982.59	130.382
2983.89	125.639
2985.18	121.135
2986.48	116.146
2987.78	111.265
2989.07	106.252
2990.37	100.75
2991.66	95.6601
2992.96	90.7185
2994.25	85.6432
2995.55	81.467
2996.84	76.9375
2998.14	72.0284
2999.43	67.2666
3000.73	62.5768
3002.02	58.3473
3003.31	53.8921
3004.61	49.7281
3005.9	46.1673
3007.19	42.2517
3008.48	38.7439
3009.77	35.6878
3011.07	32.7457
3012.36	29.2203
3013.65	26.3264
3014.94	23.8661
3016.23	21.4014
3017.52	18.8574
3018.81	16.9297
3020.1	14.9285
3021.4	12.9332
3022.68	11.8233
3023.97	10.1183
3025.26	8.76794
3026.55	7.92768
3027.84	6.17763
3029.13	5.27065
3030.42	4.60209
3031.71	4.05934
3033	3.35138
3034.28	2.65037
3035.57	2.26656
3036.86	2.29716
3038.15	2.24345
3039.43	2.37913
3040.72	2.7143
3042.01	3.01624
3043.29	3.08412
3044.58	3.97371
3045.87	4.27905
3047.15	4.87643
3048.44	5.71138
3049.72	6.50823
3051.01	6.92361
3052.29	7.78705
3053.58	7.9463
3054.86	8.16012
3056.15	9.20471
3057.43	9.57447
3058.71	10.245
3060	10.9536
3061.28	11.0946
3062.56	11.1945
3063.84	10.9332
3065.13	11.1803
3066.41	10.9307
3067.69	11.2112
3068.97	11.6185
3070.26	11.6345
3071.54	11.8045
3072.82	12.0707
3074.1	11.7015
3075.38	11.3649
3076.66	11.0488
3077.94	10.2924
3079.22	9.8386
3080.5	9.07347
3081.78	8.60377
3083.06	8.16296
3084.34	7.26484
3085.62	6.45132
3086.9	6.15067
3088.18	5.31651
3089.45	4.30633
3090.73	3.60992
3092.01	2.8593
3093.29	2.35741
3094.56	1.8593
3095.84	1.31275
3097.12	0.917951
3098.4	0.790083
3099.67	0.34535
3100.95	0.0259091
3102.22	0.309437
3103.5	0.0625572
3104.78	0.0606654
3106.05	-0.188373
3107.33	-0.298502
3108.6	-0.0955554
3109.88	-0.123653
3111.15	0.0646426
3112.43	-0.0397131
3113.7	0.714413
3114.97	1.54163
3116.25	1.80837
3117.52	1.73869
3118.79	2.41582
3120.07	3.06899
3121.34	3.04601
3122.61	3.43335
3123.88	3.84792
3125.16	4.15667
3126.43	4.78548
3127.7	5.00777
3128.97	5.93905
3130.24	6.99585
3131.51	8.11632
3132.79	8.9277
3134.06	9.70389
3135.33	10.7978
3136.6	11.5424
3137.87	12.0723
3139.14	13.0647
3140.41	13.6144
3141.67	14.4023
3142.94	15.3176
3144.21	16.0789
3145.48	16.7874
3146.75	17.6813
3148.02	18.392
3149.29	18.3068
