#Acq. time (s)=	45
#Accumulations=	2
#Range (cm-¹)=	200...3150
#Windows=	2
#Auto scanning=	Off
#Autofocus=	Off
#Macrospot=	Off
#AutoExposure=	Off
#Spike filter=	Multiple accum.
#Delay time (s)=	0
#Binning=	1
#Readout mode=	Signal
#DeNoise=	Off
#ICS correction=	On
#Dark correction=	Off
#Inst. Process=	Off
#Detector Gain=	Best Dynamic Range
#Detector ADC=	20 kHz       
#Detector temperature (°C)=	-69.85
#Instrument=	LabRAM HR Evol
#Detector=	Synapse
#Objective=	x100
#Grating=	600 gr/mm
#ND Filter=	100%
#Laser (nm)=	532 
#Hole=	100.021
#Range=	Auto
#Laser Pol.=	No
#Raman. Pol.=	No
#Laser Pol. (°)=	-0.0007625
#Raman Pol. (°)=	89.9995
#Collection=	Microscope
#StageXY=	Marzhauser
#StageZ=	Marzhauser
#X (µm)=	8998.2
#Y (µm)=	-3098.2
#Z (µm)=	-55.6
#Full time(mm:ss)=	3:19
#Project=	
#Sample=	
#Site=	
#Title=	Thy_00_07_5_2x_45s_532 nm_x100_100%_600 gr_mm
#Remark=	
#Date=	28.06.2022 10:25
#Acquired=	28.06.2022 10:25:50
#Base:Fit=	10.08.2022 10:07:56
#Base:Sub=	10.08.2022 10:08:40
#Filter:Polynom=	16.08.2022 10:26:06
#AxisType[0]=Intens
#AxisUnit[0]=Cnt
#AxisType[1]=Spectr
#AxisUnit[1]=1/cm
200.407	3.01869
202.221	6.19103
204.035	6.97476
205.849	6.71017
207.665	7.38536
209.478	7.55128
211.291	8.10024
213.104	8.06683
214.916	9.1182
216.73	8.78278
218.541	10.4676
220.352	9.69178
222.163	8.94001
223.973	8.70179
225.785	8.79321
227.595	10.273
229.404	10.8533
231.213	11.7195
233.022	10.1883
234.83	9.14112
236.638	8.01406
238.448	7.44727
240.255	7.54926
242.062	7.09072
243.868	7.37721
245.675	7.09866
247.48	7.34884
249.286	6.65386
251.091	6.25854
252.896	5.36252
254.702	3.92397
256.506	4.4999
258.31	4.14773
260.113	5.04138
261.916	4.1262
263.719	3.66653
265.521	3.80458
267.323	2.9579
269.125	2.67723
270.926	1.85845
272.727	1.6309
274.527	1.94531
276.328	0.865567
278.127	0.757591
279.927	1.07717
281.726	2.10199
283.525	2.36934
285.323	3.88857
287.121	5.1029
288.919	6.65421
290.716	7.98144
292.513	8.38117
294.31	10.7328
296.104	11.7165
297.9	11.117
299.696	11.9427
301.491	14.2211
303.286	15.8633
305.081	17.5086
306.875	17.9614
308.669	18.9531
310.463	19.4534
312.256	22.1532
314.047	23.2042
315.839	25.1749
317.631	27.3153
319.423	27.712
321.215	27.9981
323.006	27.7827
324.794	29.6341
326.585	30.6969
328.375	31.9694
330.165	33.939
331.954	34.0248
333.741	33.9455
335.53	32.9464
337.318	32.4501
339.106	31.8316
340.894	30.566
342.679	30.6683
344.466	30.2146
346.253	30.2709
348.039	29.0929
349.823	29.1939
351.608	28.2241
353.393	28.4706
355.176	28.588
356.961	30.0951
358.745	31.4756
360.529	31.7309
362.31	33.409
364.093	34.5173
365.876	35.7366
367.657	37.4363
369.439	39.3802
371.221	40.4569
373	40.6168
374.781	41.5825
376.56	41.1382
378.34	40.5636
380.12	39.9948
381.898	39.6266
383.677	38.7851
385.456	36.5989
387.233	35.5421
389.011	36.4952
390.787	36.3883
392.565	36.5332
394.34	35.9394
396.117	35.9566
397.894	35.2607
399.668	35.3436
401.444	33.8869
403.217	32.4322
404.993	32.4662
406.766	31.4637
408.54	30.4521
410.312	30.4223
412.086	29.5504
413.858	28.7419
415.631	26.8146
417.402	25.0815
419.174	24.3734
420.944	21.6129
422.716	19.243
424.486	17.6256
426.257	16.3985
428.025	15.0922
429.794	13.4641
431.564	12.8679
433.332	10.9781
435.101	9.57224
436.868	9.8432
438.637	10.3619
440.403	12.0602
442.169	12.941
443.937	14.5169
445.703	17.2951
447.468	17.3126
449.234	19.3758
450.999	21.8161
452.765	24.6553
454.528	25.8666
456.292	27.0702
458.057	28.5529
459.819	29.2366
461.582	29.8387
463.344	31.0563
465.107	31.7963
466.868	32.9841
468.629	33.389
470.392	34.1881
472.152	33.8308
473.912	34.5579
475.672	36.8309
477.433	39.228
479.192	40.6566
480.951	42.7576
482.709	44.9518
484.469	45.2636
486.226	46.6097
487.984	47.9961
489.74	49.9332
491.499	52.7366
493.255	54.7196
495.011	56.9456
496.767	60.0514
498.522	60.8816
500.277	61.1431
502.033	62.159
503.788	61.2024
505.541	61.6307
507.295	61.6866
509.048	61.2894
510.801	59.4921
512.553	58.3532
514.308	57.2252
516.06	55.2584
517.811	53.3721
519.562	51.1001
521.313	49.4695
523.063	48.5245
524.814	48.5385
526.563	47.7196
528.313	45.2966
530.062	43.436
531.811	43.188
533.559	42.2466
535.308	40.4315
537.055	39.6319
538.803	37.9022
540.55	35.1817
542.297	33.0818
544.043	31.6673
545.789	29.4399
547.535	27.011
549.281	24.9061
551.026	23.2595
552.771	21.7623
554.515	19.9135
556.259	18.7576
558.003	18.3737
559.747	18.3682
561.49	18.5601
563.233	19.3424
564.975	19.6774
566.717	19.8357
568.459	20.5973
570.2	21.5776
571.942	21.5836
573.68	23.3103
575.421	24.0066
577.161	24.5445
578.901	26.1395
580.64	26.8501
582.379	27.7076
584.118	28.2152
585.855	27.4182
587.593	27.5233
589.331	28.0158
591.068	27.5565
592.805	27.236
594.54	26.6461
596.277	26.2763
598.013	25.2033
599.749	24.1724
601.484	23.3496
603.217	22.3449
604.952	21.9449
606.687	20.9647
608.421	20.1066
610.153	19.2994
611.886	18.0542
613.619	16.8759
615.35	15.7205
617.083	15.2818
618.815	14.0219
620.547	12.8411
622.276	11.7137
624.008	10.801
625.738	9.71904
627.467	8.40344
629.197	7.34611
630.927	5.93374
632.655	4.52141
634.384	4.03379
636.113	3.3658
637.839	4.10017
639.568	4.79453
641.293	4.5123
643.021	4.79831
644.748	4.59714
646.473	4.37407
648.2	4.5699
649.924	5.61314
651.65	5.36751
653.376	5.82824
655.099	6.93832
656.824	7.77561
658.546	7.84299
660.271	8.09479
661.993	8.51202
663.716	8.09347
665.438	8.81879
667.161	9.09137
668.881	9.48023
670.604	9.02211
672.324	9.9974
674.045	10.3223
675.765	11.919
677.486	11.2402
679.204	12.1425
680.925	13.7999
682.643	14.5044
684.361	15.5213
686.08	14.7694
687.797	16.3479
689.516	16.7005
691.232	16.6334
692.95	16.6712
694.666	17.3047
696.382	17.1033
698.099	17.8685
699.813	18.1968
701.528	18.0339
703.244	17.3143
704.958	17.659
706.673	17.8702
708.387	18.5404
710.099	19.7982
711.814	18.8845
713.526	18.9662
715.238	20.0388
716.949	21.9972
718.663	22.4758
720.374	25.3778
722.084	26.4991
723.796	28.3566
725.506	28.4166
727.216	28.6409
728.925	30.0598
730.636	32.7247
732.345	35.2703
734.053	39.1047
735.761	42.1716
737.471	45.7493
739.178	49.8919
740.885	53.9711
742.592	59.5398
744.298	63.0282
746.006	66.5944
747.712	70.8639
749.417	74.9065
751.122	79.4008
752.827	84.5289
754.532	87.4675
756.236	91.2399
757.942	94.9738
759.645	97.6231
761.348	100.773
763.051	102.528
764.753	104.77
766.456	105.704
768.158	106.893
769.859	108.488
771.56	108.837
773.261	109.159
774.964	108.911
776.664	108.092
778.364	107.614
780.064	106.429
781.763	104.344
783.462	102.368
785.16	99.3553
786.859	97.205
788.557	95.3774
790.255	93.9611
791.952	92.2825
793.649	89.5251
795.346	86.9002
797.042	83.4198
798.738	81.6347
800.434	78.9309
802.127	74.8817
803.823	70.3816
805.517	68.1185
807.212	64.778
808.906	61.7349
810.6	59.5105
812.293	58.8244
813.987	57.7042
815.68	57.3375
817.372	55.997
819.064	55.5903
820.754	56.7075
822.446	57.8789
824.137	58.2651
825.828	60.0651
827.519	61.1948
829.209	60.6597
830.897	61.4044
832.587	63.094
834.276	64.0879
835.966	64.2926
837.654	64.4934
839.341	63.9778
841.029	63.9932
842.717	63.5139
844.404	63.7696
846.091	63.3052
847.776	63.4384
849.463	63.5542
851.149	62.9958
852.833	61.9499
854.519	60.6098
856.204	59.1139
857.889	57.2925
859.572	56.7215
861.256	54.8164
862.94	54.0977
864.622	52.2801
866.305	50.1811
867.988	48.9649
869.669	47.6358
871.351	46.7543
873.033	45.4654
874.713	44.0322
876.395	42.79
878.074	40.3924
879.755	40.0592
881.435	38.1008
883.114	35.7272
884.794	33.5931
886.471	32.1111
888.15	32.0586
889.829	31.5894
891.506	30.9919
893.184	28.9596
894.861	28.1475
896.538	27.942
898.214	27.6664
899.891	28.8499
901.566	29.5709
903.242	31.6869
904.916	34.4179
906.592	36.0442
908.266	38.4484
909.941	40.3253
911.614	41.777
913.288	43.5331
914.961	44.7525
916.635	45.6325
918.306	46.0258
919.979	46.5473
921.651	47.4403
923.321	48.6646
924.994	49.2448
926.664	49.3084
928.336	49.7386
930.005	49.8709
931.674	50.7019
933.345	49.0369
935.014	47.6684
936.682	46.9265
938.352	46.4031
940.019	46.0776
941.687	45.162
943.356	44.5623
945.022	43.4069
946.689	41.7747
948.357	39.5667
950.022	37.89
951.688	36.9357
953.355	35.0914
955.02	33.2575
956.684	31.4873
958.348	28.943
960.014	25.7195
961.678	23.8748
963.341	23.3145
965.004	20.4623
966.669	19.9132
968.331	19.4593
969.993	21.3285
971.655	21.3802
973.316	20.4291
974.979	19.6936
976.64	18.1391
978.3	18.7248
979.961	19.7598
981.62	19.5883
983.28	20.4313
984.941	20.3372
986.6	19.8678
988.259	19.3196
989.917	19.4311
991.575	20.0075
993.233	20.3592
994.89	22.1742
996.547	24.3422
998.204	25.9534
999.86	28.871
1001.52	33.394
1003.17	36.8702
1004.83	40.8487
1006.49	44.73
1008.14	46.9691
1009.79	50.0558
1011.45	53.7068
1013.1	56.5387
1014.76	58.909
1016.41	60.5231
1018.06	64.0436
1019.72	65.7398
1021.37	67.4252
1023.02	68.8395
1024.67	70.1113
1026.32	70.3325
1027.97	70.9075
1029.62	70.3594
1031.27	69.9733
1032.92	68.7674
1034.57	67.2511
1036.22	64.531
1037.87	62.5727
1039.52	60.8184
1041.17	59.2011
1042.82	58.2448
1044.47	58.3534
1046.11	56.6214
1047.76	56.8539
1049.41	57.8592
1051.06	57.0735
1052.7	56.1381
1054.35	52.8311
1055.99	49.9577
1057.64	47.7551
1059.28	45.7317
1060.93	45.3065
1062.57	45.0233
1064.22	44.4036
1065.86	43.0618
1067.5	42.1326
1069.15	41.9482
1070.79	42.6477
1072.43	44.5936
1074.08	47.2315
1075.72	48.9809
1077.36	51.7416
1079	54.7844
1080.64	56.6742
1082.28	60.414
1083.92	62.2558
1085.56	63.484
1087.2	65.0728
1088.84	65.7215
1090.48	66.8516
1092.12	69.5018
1093.76	70.9656
1095.39	72.0645
1097.03	72.7445
1098.67	73.2567
1100.31	73.5566
1101.94	73.3515
1103.58	72.2462
1105.22	71.7836
1106.85	70.7973
1108.49	69.2688
1110.12	66.3749
1111.76	63.598
1113.39	61.7096
1115.03	59.335
1116.66	58.0919
1118.29	55.9479
1119.93	53.767
1121.56	51.3505
1123.19	49.9179
1124.82	47.0389
1126.46	45.8242
1128.09	45.2187
1129.72	45.0686
1131.35	41.0824
1132.98	37.8207
1134.61	35.6129
1136.24	35.8929
1137.87	35.7532
1139.5	35.9104
1141.13	35.3508
1142.76	35.2096
1144.39	33.8951
1146.01	32.6421
1147.64	30.5697
1149.27	30.7706
1150.9	29.1433
1152.53	27.3433
1154.15	26.067
1155.78	25.4795
1157.4	23.2923
1159.03	22.4327
1160.65	20.4075
1162.28	18.3166
1163.9	17.9675
1165.53	15.5087
1167.15	14.8938
1168.78	13.8631
1170.4	14.1769
1172.02	15.3183
1173.65	15.9583
1175.27	15.4591
1176.89	15.0957
1178.51	14.839
1180.14	14.4936
1181.76	14.0092
1183.38	13.3976
1185	11.4295
1186.62	11.816
1188.24	11.7807
1189.86	11.6264
1191.48	10.8067
1193.1	12.6299
1194.71	12.5121
1196.33	13.1294
1197.95	13.0603
1199.57	12.2027
1201.19	12.9027
1202.8	14.5974
1204.42	15.7713
1206.04	16.2557
1207.65	18.465
1209.27	20.8096
1210.88	22.0845
1212.5	23.5912
1214.12	27.4927
1215.73	32.1348
1217.35	36.0102
1218.96	38.3549
1220.57	40.8725
1222.19	43.0858
1223.8	46.4896
1225.41	49.2624
1227.03	52.2477
1228.64	54.3728
1230.25	56.547
1231.86	57.343
1233.47	58.7312
1235.08	60.0503
1236.69	62.2498
1238.31	62.6858
1239.92	63.5767
1241.52	64.3184
1243.13	64.9706
1244.74	66.4378
1246.35	66.4565
1247.96	66.4762
1249.57	67.95
1251.18	68.9906
1252.78	68.6832
1254.39	69.221
1256	67.5874
1257.6	66.6669
1259.21	65.3751
1260.82	63.9942
1262.42	62.4058
1264.03	61.7461
1265.63	61.7814
1267.24	61.3681
1268.84	60.3682
1270.45	58.2978
1272.05	56.9014
1273.65	56.7291
1275.26	55.8586
1276.86	56.5344
1278.46	56.164
1280.06	56.1453
1281.67	57.359
1283.27	58.2639
1284.87	58.6152
1286.47	60.429
1288.07	61.9357
1289.67	63.5197
1291.27	64.5762
1292.87	66.6952
1294.47	69.9895
1296.07	72.9482
1297.67	75.1154
1299.27	78.1946
1300.87	81.0149
1302.47	83.7303
1304.06	87.0147
1305.66	89.5239
1307.26	93.687
1308.85	96.8266
1310.45	99.0453
1312.05	102.938
1313.64	106.755
1315.24	109.347
1316.83	112.076
1318.43	113.09
1320.02	115.75
1321.62	117.159
1323.21	118.968
1324.8	121.013
1326.4	122.07
1327.99	123.329
1329.59	124.39
1331.18	124.094
1332.77	124.612
1334.36	124.908
1335.95	124.478
1337.54	125.159
1339.14	125.376
1340.73	126.276
1342.32	126.465
1343.91	126.092
1345.5	125.728
1347.09	123.391
1348.67	122.023
1350.26	120.912
1351.85	120.979
1353.44	119.631
1355.03	117.925
1356.62	116.585
1358.2	115.324
1359.79	113.515
1361.38	113.723
1362.96	113.334
1364.55	111.163
1366.14	108.977
1367.72	106.053
1369.31	104.693
1370.89	103.325
1372.48	102.147
1374.06	101.44
1375.64	100.285
1377.23	99.1011
1378.81	98.5541
1380.39	97.1095
1381.98	96.2227
1383.56	95.2044
1385.14	94.365
1386.72	93.1686
1388.3	90.7092
1389.89	87.886
1391.47	86.382
1393.05	84.301
1394.63	81.8597
1396.21	80.2544
1397.79	78.3938
1399.37	77.3713
1400.95	75.2773
1402.52	74.7439
1404.1	73.9395
1405.68	73.0794
1407.26	71.7083
1408.84	71.4176
1410.42	73.1559
1411.99	74.0735
1413.57	75.3114
1415.15	77.9974
1416.72	79.6866
1418.3	81.772
1419.87	85.3518
1421.45	86.1812
1423.02	88.0987
1424.6	91.7504
1426.17	94.5217
1427.75	99.3632
1429.32	103.091
1430.89	105.962
1432.47	108.893
1434.04	112.468
1435.61	116.212
1437.18	119.581
1438.76	122.26
1440.33	126.267
1441.9	127.931
1443.47	129.168
1445.04	130.217
1446.61	131.033
1448.18	132.21
1449.75	132.503
1451.32	132.956
1452.89	132.343
1454.46	131.883
1456.03	129.882
1457.6	127.204
1459.16	123.209
1460.73	119.684
1462.3	116.416
1463.87	112.72
1465.43	107.879
1467	103.257
1468.56	98.4104
1470.13	94.81
1471.7	89.9708
1473.26	84.167
1474.83	78.4202
1476.39	73.5319
1477.96	68.4526
1479.52	63.7856
1481.08	58.3746
1482.65	53.3879
1484.21	48.4864
1485.77	44.3389
1487.34	41.5601
1488.9	39.0964
1490.46	35.9702
1492.02	33.3944
1493.58	31.8548
1495.15	29.7497
1496.71	27.4398
1498.27	26.4357
1499.83	24.1405
1501.39	23.6929
1502.95	23.4124
1504.51	23.062
1506.07	22.7526
1507.63	22.9629
1509.18	23.0433
1510.74	23.7967
1512.3	23.416
1513.86	24.5753
1515.41	25.2878
1516.97	26.004
1518.53	27.3785
1520.08	28.5078
1521.64	30.0587
1523.2	30.634
1524.75	31.9092
1526.31	34.2152
1527.86	35.2612
1529.42	36.9249
1530.97	38.4403
1532.52	40.2323
1534.08	41.835
1535.63	42.6612
1537.19	44.5051
1538.74	47.2168
1540.29	49.0377
1541.84	50.39
1543.4	52.4112
1544.95	54.2065
1546.5	55.772
1548.05	57.9133
1549.6	59.7112
1551.15	61.7757
1552.7	64.3434
1554.25	67.5244
1555.8	69.0951
1557.35	71.8241
1558.9	74.1044
1560.45	77.5788
1562	80.7348
1563.54	83.4448
1565.09	86.6282
1566.64	88.5233
1568.19	90.2702
1569.73	92.4654
1571.28	94.4769
1572.83	95.6984
1574.37	96.6295
1575.92	98.244
1577.47	99.4172
1579.01	101.474
1580.56	103.48
1582.1	105.446
1583.64	107.713
1585.19	109.107
1586.73	107.605
1588.28	107.948
1589.82	108.362
1591.36	109.513
1592.9	109.084
1594.45	108.425
1595.99	108.336
1597.53	107.797
1599.07	106.335
1600.61	105.599
1602.15	104.25
1603.69	103.371
1605.23	102.62
1606.77	102.474
1608.31	101.449
1609.85	101.098
1611.39	100.636
1612.93	98.6551
1614.47	99.0529
1616.01	98.5061
1617.55	97.0623
1619.08	96.5782
1620.62	95.7429
1622.16	94.6194
1623.7	94.3749
1625.23	93.7709
1626.77	93.2593
1628.3	92.9738
1629.84	92.7832
1631.37	93.0587
1632.91	92.6823
1634.44	94.3553
1635.98	93.4993
1637.51	93.4182
1639.05	93.9109
1640.58	93.0257
1642.11	93.3414
1643.65	92.6237
1645.18	93.1721
1646.71	93.3454
1648.24	93.0053
1649.78	92.7472
1651.31	92.7465
1652.84	92.5454
1654.37	93.4469
1655.9	93.6974
1657.43	92.4923
1658.96	91.0353
1660.49	90.3609
1662.02	87.4989
1663.55	85.3871
1665.08	84.3994
1666.61	82.859
1668.14	80.996
1669.66	78.2432
1671.19	76.4183
1672.72	74.3637
1674.25	72.1533
1675.77	70.3376
1677.3	68.6472
1678.83	65.5849
1680.35	62.9983
1681.88	60.618
1683.4	57.5531
1684.93	54.7788
1686.45	52.4636
1687.98	49.1869
1689.5	46.2103
1691.03	43.0324
1692.55	38.2777
1694.07	35.1853
1695.6	32.1857
1697.12	29.3087
1698.64	26.9953
1700.17	24.7613
1701.69	22.2606
1703.21	20.5872
1704.73	18.2558
1706.25	16.3117
1707.77	15.234
1709.29	13.6519
1710.81	12.6428
1712.33	10.3653
1713.85	9.63714
1715.37	8.69443
1716.89	7.59977
1718.41	7.44736
1719.93	6.82578
1721.45	6.39423
1722.97	6.7292
1724.49	6.41741
1726	6.08757
1727.52	6.56073
1729.04	6.89552
1730.55	7.59303
1732.07	7.17368
1733.59	7.57862
1735.1	7.56716
1736.62	8.10074
1738.13	7.46016
1739.65	8.23386
1741.16	8.17361
1742.68	8.78851
1744.19	8.43582
1745.7	7.95859
1747.22	8.09482
1748.73	7.16775
1750.24	6.94483
1751.76	6.02951
1753.27	5.85228
1754.78	4.98713
1756.29	4.8383
1757.8	4.73667
1759.31	4.37803
1760.83	4.41856
1762.34	4.05902
1763.85	3.56238
1765.36	2.67871
1766.87	1.56936
1768.38	1.46111
1769.89	2.29363
1771.39	1.89005
1772.9	2.716
1774.41	2.6898
1775.92	2.75279
1777.43	2.69115
1778.94	2.63403
1780.44	2.15611
1781.95	2.80951
1783.46	2.49938
1784.96	2.01094
1786.47	1.8516
1787.97	1.55178
1789.48	2.11149
1790.99	2.25422
1792.49	2.34485
1794	2.08172
1795.5	1.76113
1797	1.91488
1798.51	2.47856
1800.01	2.26428
1801.51	2.68098
1803.02	3.11108
1804.52	3.84435
1806.02	3.29688
1807.53	3.18555
1809.03	3.52216
1810.53	2.6966
1812.03	2.53135
1813.53	2.67183
1815.03	2.81613
1816.53	2.27673
1818.03	2.45243
1819.53	2.2772
1821.03	2.34928
1822.53	2.74818
1824.03	2.8198
1825.53	2.70352
1827.03	2.31944
1828.53	2.90203
1830.02	2.59403
1831.52	2.17307
1833.02	2.22754
1834.52	2.71986
1836.01	2.9049
1837.51	2.68545
1839.01	2.49686
1840.5	2.23063
1842	2.24221
1843.49	2.93668
1844.99	3.24005
1846.48	3.58376
1847.98	3.48644
1849.47	2.60397
1850.97	2.4713
1852.46	1.52846
1853.95	0.976639
1855.45	0.419353
1856.94	0.215008
1858.43	-0.103595
1859.93	0.146019
1861.42	-0.11742
1862.91	-0.0317976
1864.4	0.381519
1865.89	-0.282046
1867.38	-0.859392
1868.87	-0.708622
1870.36	-0.898067
1871.85	-0.852586
1873.34	-0.815182
1874.83	-0.817092
1876.32	-0.815572
1877.81	-0.505257
1879.3	-0.0313419
1880.79	-0.0209342
1882.28	0.72739
1882.52	0.902903
1884.02	0.808802
1885.51	1.00265
1887.01	1.73448
1888.5	3.16028
1889.99	4.20258
1891.49	5.05853
1892.98	5.86417
1894.47	6.13028
1895.97	6.32883
1897.46	6.38085
1898.95	6.812
1900.44	8.09071
1901.93	9.02503
1903.42	8.89448
1904.91	8.72015
1906.4	9.24048
1907.89	10.0697
1909.38	9.21956
1910.87	9.06311
1912.36	8.54771
1913.85	9.04235
1915.34	8.81826
1916.83	8.55299
1918.32	8.13555
1919.8	7.4289
1921.29	6.75161
1922.78	6.82699
1924.27	6.67149
1925.75	5.89048
1927.24	6.19939
1928.73	6.15844
1930.21	5.78426
1931.7	5.81851
1933.18	5.311
1934.67	4.64983
1936.15	4.86132
1937.64	4.11477
1939.12	3.90232
1940.61	3.1822
1942.09	3.44194
1943.57	3.12411
1945.06	3.02257
1946.54	3.3864
1948.02	2.71769
1949.51	3.33313
1950.99	3.65282
1952.47	4.05231
1953.95	4.01985
1955.43	4.08501
1956.91	4.07056
1958.4	3.82806
1959.88	4.82658
1961.36	5.72218
1962.84	6.08644
1964.32	6.74207
1965.8	6.46123
1967.27	6.64114
1968.75	6.98605
1970.23	7.17896
1971.71	7.51789
1973.19	8.27076
1974.67	8.64861
1976.14	8.09152
1977.62	7.78532
1979.1	8.0142
1980.58	8.0267
1982.05	8.42217
1983.53	6.9576
1985	7.56158
1986.48	7.59609
1987.95	7.90963
1989.43	7.307
1990.9	7.55599
1992.38	7.49121
1993.85	7.13087
1995.33	6.6505
1996.8	6.32872
1998.27	5.49799
1999.75	5.1519
2001.22	5.6189
2002.69	5.42734
2004.16	5.14824
2005.64	4.93453
2007.11	5.12133
2008.58	4.93995
2010.05	5.39062
2011.52	4.4824
2012.99	4.62396
2014.46	3.87982
2015.93	3.56727
2017.4	2.89785
2018.87	2.79514
2020.34	3.15827
2021.81	3.26463
2023.28	4.12963
2024.75	4.30208
2026.22	4.62572
2027.69	4.19451
2029.15	4.46245
2030.62	4.56382
2032.09	4.80309
2033.56	5.18156
2035.02	5.49184
2036.49	5.80258
2037.96	6.2382
2039.42	6.40713
2040.89	6.8191
2042.35	7.43737
2043.82	6.86733
2045.28	7.21943
2046.75	7.48193
2048.21	7.40686
2049.67	7.57233
2051.14	7.11656
2052.6	6.68579
2054.07	7.05044
2055.53	7.06524
2056.99	6.36554
2058.45	6.56186
2059.92	6.17112
2061.38	5.83544
2062.84	5.94029
2064.3	5.3643
2065.76	4.70297
2067.22	4.91632
2068.68	4.9066
2070.14	5.05119
2071.6	5.43142
2073.06	5.30763
2074.52	6.19733
2075.98	5.92337
2077.44	4.98188
2078.9	4.96115
2080.36	5.36854
2081.82	4.98378
2083.27	5.30776
2084.73	4.60524
2086.19	4.91838
2087.65	5.22469
2089.1	5.09755
2090.56	5.08495
2092.02	5.61459
2093.47	6.66371
2094.93	6.91534
2096.38	6.41547
2097.84	6.4123
2099.29	6.21419
2100.75	5.92085
2102.2	5.97282
2103.66	6.13329
2105.11	6.34437
2106.56	5.75556
2108.02	6.10852
2109.47	5.74171
2110.92	5.54631
2112.38	5.82232
2113.83	5.37054
2115.28	4.87395
2116.73	4.08373
2118.18	5.4106
2119.63	5.35614
2121.09	5.33605
2122.54	5.39438
2123.99	5.21482
2125.44	5.38871
2126.89	5.9579
2128.34	5.17633
2129.79	4.97204
2131.23	4.82586
2132.68	4.8976
2134.13	5.07054
2135.58	5.08927
2137.03	5.06126
2138.48	5.07474
2139.92	5.07546
2141.37	4.97712
2142.82	4.89062
2144.27	4.55864
2145.71	3.82816
2147.16	4.30105
2148.6	3.30031
2150.05	3.587
2151.49	4.32651
2152.94	4.32034
2154.38	5.05896
2155.83	5.28287
2157.27	4.97035
2158.72	5.12884
2160.16	4.72973
2161.6	4.58742
2163.05	4.4458
2164.49	4.92597
2165.93	6.08802
2167.38	4.77713
2168.82	4.44148
2170.26	5.00179
2171.7	5.0534
2173.14	4.62076
2174.58	4.83362
2176.03	4.8769
2177.47	4.36696
2178.91	3.8873
2180.35	4.19097
2181.79	4.10924
2183.23	4.86303
2184.67	5.27912
2186.1	5.57906
2187.54	5.66963
2188.98	6.49787
2190.42	6.44759
2191.86	6.84657
2193.3	7.55064
2194.73	7.67315
2196.17	7.13508
2197.61	7.09918
2199.05	7.0933
2200.48	6.56213
2201.92	6.76878
2203.35	6.54959
2204.79	6.54507
2206.22	6.4338
2207.66	6.7989
2209.1	6.49833
2210.53	6.5553
2211.97	6.37248
2213.4	6.37821
2214.83	6.16241
2216.27	6.00572
2217.7	6.83174
2219.13	7.51957
2220.57	7.83286
2222	8.87403
2223.43	8.29395
2224.86	8.36187
2226.29	8.84913
2227.72	7.87266
2229.16	8.01308
2230.59	7.49584
2232.02	7.3189
2233.45	7.80939
2234.88	7.76441
2236.31	8.40061
2237.74	8.86566
2239.17	8.57712
2240.6	9.02946
2242.03	9.17711
2243.45	9.16303
2244.88	8.93794
2246.31	9.36927
2247.74	9.47591
2249.17	9.44847
2250.59	9.59509
2252.02	9.83446
2253.45	10.2842
2254.87	10.4943
2256.3	9.66562
2257.73	9.56047
2259.15	9.41277
2260.58	9.27928
2262	9.53813
2263.43	10.4267
2264.85	9.578
2266.28	8.87707
2267.7	8.55715
2269.13	9.12347
2270.55	8.43941
2271.97	8.71838
2273.4	9.21926
2274.82	8.71966
2276.24	8.343
2277.67	7.99291
2279.09	7.62312
2280.51	6.78251
2281.93	6.58821
2283.35	6.21963
2284.77	5.92462
2286.2	5.54168
2287.62	5.05954
2289.04	4.76525
2290.46	3.84901
2291.88	3.13567
2293.3	2.09087
2294.72	1.57815
2296.13	1.71386
2297.55	2.08277
2298.97	1.84735
2300.39	2.14916
2301.81	2.08289
2303.23	2.53924
2304.64	2.85865
2306.06	3.32208
2307.48	3.95003
2308.89	3.66982
2310.31	3.96847
2311.73	3.92719
2313.14	4.56695
2314.56	5.15593
2315.98	5.54055
2317.39	6.18835
2318.81	7.10801
2320.22	7.39177
2321.64	8.56647
2323.05	8.63268
2324.46	8.91628
2325.88	8.76601
2327.29	9.07808
2328.7	9.4194
2330.12	10.1
2331.53	10.5973
2332.94	11.4198
2334.35	11.6821
2335.77	12.2535
2337.18	12.5004
2338.59	12.2609
2340	12.5635
2341.41	12.7006
2342.82	12.7861
2344.23	12.0478
2345.64	11.0466
2347.05	10.5292
2348.46	10.1287
2349.87	9.56038
2351.28	9.31476
2352.69	8.94951
2354.1	8.4042
2355.51	6.94193
2356.91	6.51629
2358.32	5.75846
2359.73	4.85861
2361.14	4.0025
2362.54	3.99426
2363.95	3.79889
2365.36	4.19038
2366.76	3.81227
2368.17	3.20248
2369.58	2.44566
2370.98	2.0627
2372.39	2.22022
2373.79	1.38659
2375.2	1.32256
2376.6	1.11037
2378	0.946321
2379.41	0.571289
2380.81	1.00014
2382.22	1.46011
2383.62	1.97152
2385.02	1.34782
2386.43	1.12131
2387.83	1.58176
2389.23	1.7806
2390.63	1.87996
2392.03	2.48091
2393.44	1.71846
2394.84	2.31875
2396.24	2.73634
2397.64	3.05868
2399.04	3.26882
2400.44	3.34783
2401.84	3.4297
2403.24	4.06937
2404.64	4.09734
2406.04	4.24846
2407.44	4.48307
2408.84	4.89469
2410.23	5.52415
2411.63	6.38676
2413.03	7.05231
2414.43	7.41548
2415.83	8.14322
2417.22	9.44923
2418.62	10.3247
2420.02	10.4126
2421.41	10.6108
2422.81	10.6537
2424.21	10.3108
2425.6	10.0968
2427	10.2025
2428.39	9.59589
2429.79	9.54176
2431.18	9.95218
2432.58	9.32165
2433.97	8.85315
2435.36	8.63924
2436.76	8.4545
2438.15	8.33235
2439.54	8.25416
2440.94	8.38485
2442.33	7.85018
2443.72	7.25884
2445.12	7.50794
2446.51	7.43803
2447.9	7.63969
2449.29	6.62932
2450.68	6.32438
2452.07	5.72461
2453.46	4.78678
2454.85	3.67862
2456.24	3.93971
2457.64	4.11836
2459.02	3.74875
2460.41	3.49331
2461.8	2.52329
2463.19	1.65023
2464.58	1.48732
2465.97	1.1923
2467.36	1.11438
2468.75	1.19749
2470.13	1.36163
2471.52	1.80345
2472.91	2.08831
2474.3	2.89642
2475.68	3.53939
2477.07	4.58769
2478.45	5.02849
2479.84	5.01463
2481.23	5.81477
2482.61	5.7023
2484	5.51478
2485.38	6.24484
2486.77	6.40139
2488.15	5.50947
2489.54	4.77666
2490.92	4.65496
2492.3	4.34162
2493.69	4.10976
2495.07	3.73357
2496.45	4.33729
2497.84	4.48659
2499.22	4.65922
2500.6	4.52019
2501.98	3.84782
2503.36	4.21227
2504.75	4.8812
2506.13	5.04885
2507.51	4.58056
2508.89	4.47535
2510.27	4.44327
2511.65	4.29601
2513.03	4.69528
2514.41	4.63038
2515.79	4.22272
2517.17	4.22153
2518.55	3.13193
2519.93	3.21617
2521.3	3.11846
2522.68	3.09532
2524.06	3.67379
2525.44	3.90438
2526.82	4.30219
2528.19	4.24114
2529.57	4.71392
2530.95	4.57742
2532.32	4.87849
2533.7	5.54065
2535.08	5.71732
2536.45	5.61771
2537.83	5.80902
2539.2	6.13238
2540.58	6.34835
2541.95	6.82273
2543.33	6.98739
2544.7	6.65655
2546.08	6.58559
2547.45	6.31505
2548.82	6.0965
2550.2	6.71573
2551.57	6.0976
2552.94	6.29405
2554.32	5.90158
2555.69	5.40096
2557.06	5.63425
2558.43	6.14182
2559.8	5.81653
2561.18	5.7714
2562.55	5.97605
2563.92	5.95062
2565.29	6.30633
2566.66	6.09834
2568.03	5.86185
2569.4	5.2384
2570.77	5.06517
2572.14	5.45195
2573.51	5.94035
2574.88	5.14721
2576.25	5.30051
2577.61	5.07051
2578.98	4.66782
2580.35	4.79277
2581.72	5.04529
2583.09	5.48198
2584.45	5.53185
2585.82	5.85006
2587.19	5.83365
2588.55	6.44046
2589.92	6.16382
2591.29	5.99239
2592.65	5.92774
2594.02	6.0418
2595.38	6.29604
2596.75	5.60841
2598.11	5.52627
2599.48	5.33655
2600.84	4.95655
2602.21	4.57546
2603.57	3.93088
2604.93	3.58406
2606.3	3.90549
2607.66	3.54208
2609.02	3.14564
2610.39	3.19021
2611.75	3.04937
2613.11	3.07603
2614.47	3.06525
2615.83	3.47205
2617.19	4.47762
2618.56	4.5043
2619.92	4.75896
2621.28	4.64788
2622.64	4.56614
2624	4.76705
2625.36	5.51522
2626.72	4.96956
2628.08	5.02593
2629.44	4.79217
2630.8	4.86179
2632.15	4.25046
2633.51	4.63003
2634.87	5.1414
2636.23	5.18565
2637.59	4.76155
2638.94	5.21655
2640.3	5.20137
2641.66	4.71048
2643.02	4.22045
2644.37	4.39263
2645.73	3.67876
2647.09	4.29804
2648.44	4.68681
2649.8	4.64392
2651.15	4.68389
2652.51	4.34504
2653.86	3.97977
2655.22	3.91047
2656.57	3.78293
2657.93	3.04796
2659.28	3.55356
2660.63	3.78587
2661.99	4.87386
2663.34	4.34078
2664.69	4.08378
2666.05	4.4608
2667.4	5.11639
2668.75	3.99707
2670.1	3.89179
2671.45	3.51304
2672.81	3.02992
2674.16	3.40301
2675.51	3.49749
2676.86	3.91062
2678.21	4.57631
2679.56	4.92239
2680.91	4.98819
2682.26	5.6923
2683.61	6.29769
2684.96	6.46955
2686.31	5.73692
2687.66	5.65093
2689	5.23927
2690.35	5.65441
2691.7	5.72274
2693.05	6.7601
2694.4	6.76572
2695.74	7.32165
2697.09	7.24918
2698.44	8.10325
2699.79	8.70344
2701.13	10.3195
2702.48	10.7439
2703.83	11.2134
2705.17	11.5151
2706.52	12.2646
2707.86	12.5886
2709.21	13.2028
2710.55	14.1124
2711.9	15.2223
2713.24	16.2105
2714.58	17.3807
2715.93	18.2906
2717.27	19.4317
2718.62	20.595
2719.96	21.3518
2721.3	21.4335
2722.65	21.8247
2723.99	22.1753
2725.33	22.3528
2726.67	22.7714
2728.01	22.2538
2729.35	22.3778
2730.7	22.0082
2732.04	22.2367
2733.38	21.9509
2734.72	21.9727
2736.06	20.7447
2737.4	20.549
2738.74	19.5547
2740.08	18.8034
2741.42	18.5704
2742.76	18.0495
2744.1	17.4611
2745.43	17.1079
2746.77	16.5195
2748.11	15.4724
2749.45	15.0328
2750.79	13.7947
2752.12	13.0232
2753.46	12.4481
2754.8	11.9173
2756.14	11.837
2757.47	11.6504
2758.81	11.0444
2760.14	10.5222
2761.48	9.6229
2762.81	9.18837
2764.15	8.53971
2765.49	7.69216
2766.82	7.05543
2768.16	7.54906
2769.49	7.56201
2770.82	7.98832
2772.16	7.4627
2773.49	7.34907
2774.82	7.46768
2776.16	7.61772
2777.49	7.63847
2778.82	7.81122
2780.16	7.7849
2781.49	7.63691
2782.82	7.44548
2784.15	6.65515
2785.48	6.20407
2786.82	5.48401
2788.15	4.14098
2789.48	3.90144
2790.81	4.04323
2792.14	3.66329
2793.47	3.23556
2794.8	2.89403
2796.13	3.3089
2797.46	3.22841
2798.79	3.27157
2800.12	3.1668
2801.44	2.9485
2802.77	2.14351
2804.1	1.72702
2805.43	1.00581
2806.76	0.299387
2808.08	0.214508
2809.41	0.211653
2810.74	-0.0548162
2812.07	-0.15765
2813.39	-0.571643
2814.72	-0.958759
2816.05	-0.453508
2817.37	0.124435
2818.7	1.70826
2820.02	3.40071
2821.35	4.68982
2822.67	6.87549
2824	9.73056
2825.32	11.5059
2826.65	13.8927
2827.97	16.9022
2829.3	20.4926
2830.62	24.3138
2831.94	27.6668
2833.26	31.8166
2834.59	37.0619
2835.91	40.5434
2837.23	44.912
2838.56	49.0381
2839.88	54.027
2841.2	59.4805
2842.52	65.1192
2843.84	70.3222
2845.16	76.1549
2846.48	81.6548
2847.8	87.8225
2849.12	94.0127
2850.45	100.688
2851.77	108.056
2853.08	114.841
2854.4	122.294
2855.72	130.073
2857.04	138.126
2858.36	145.293
2859.68	152.668
2861	160.279
2862.32	167.536
2863.63	174.892
2864.95	182.071
2866.27	189.162
2867.59	195.299
2868.9	202.462
2870.22	209.267
2871.54	215.305
2872.85	221.533
2874.17	228.063
2875.48	234.591
2876.8	240.837
2878.11	247.095
2879.43	253.199
2880.74	259.684
2882.06	265.857
2883.37	272.526
2884.69	278.97
2886	285.724
2887.31	291.072
2888.63	297.493
2889.94	302.207
2891.25	307.39
2892.57	312.076
2893.88	318.385
2895.19	324.043
2896.5	329.286
2897.82	334.291
2899.13	340.394
2900.44	346.364
2901.75	350.928
2903.06	357.274
2904.37	362.99
2905.68	369.233
2906.99	376.411
2908.3	382.628
2909.61	389.245
2910.92	396.438
2912.23	402.793
2913.54	410.266
2914.85	417.673
2916.16	423.488
2917.46	429.642
2918.77	435.336
2920.08	440.401
2921.39	444.469
2922.7	447.999
2924	449.741
2925.31	452.559
2926.62	454.042
2927.92	454.147
2929.23	454.453
2930.54	453.254
2931.84	452.282
2933.15	449.337
2934.45	447.727
2935.76	444.347
2937.06	439.955
2938.37	435.298
2939.67	429.721
2940.98	424.538
2942.28	418.505
2943.58	412.374
2944.89	405.723
2946.19	398.732
2947.49	391.389
2948.8	384.809
2950.1	377.368
2951.4	370.141
2952.7	361.345
2954.01	353.613
2955.31	345.623
2956.61	338.6
2957.91	329.658
2959.21	322.527
2960.51	314.502
2961.81	307.493
2963.11	300.768
2964.41	294.115
2965.71	286.485
2967.01	280.439
2968.31	274.483
2969.61	268.336
2970.91	261.999
2972.21	256.567
2973.51	249.786
2974.81	244.382
2976.1	237.732
2977.4	231.069
2978.7	224.903
2980	217.927
2981.29	210.045
2982.59	203.609
2983.89	195.915
2985.18	187.984
2986.48	179.9
2987.78	171.756
2989.07	163.656
2990.37	155.972
2991.66	147.337
2992.96	139.278
2994.25	131.581
2995.55	124.196
2996.84	117.169
2998.14	109.157
2999.43	102.601
3000.73	94.9606
3002.02	87.2365
3003.31	80.1304
3004.61	73.4316
3005.9	67.7613
3007.19	61.8025
3008.48	55.934
3009.77	50.3928
3011.07	44.9895
3012.36	40.5399
3013.65	36.7521
3014.94	32.319
3016.23	28.0657
3017.52	23.8271
3018.81	20.8088
3020.1	18.0611
3021.4	15.2044
3022.68	12.6
3023.97	11.2824
3025.26	9.26011
3026.55	7.98031
3027.84	6.64695
3029.13	5.01369
3030.42	3.26168
3031.71	3.33453
3033	2.02984
3034.28	2.24179
3035.57	2.27006
3036.86	3.32683
3038.15	3.40163
3039.43	4.14821
3040.72	4.70893
3042.01	5.8311
3043.29	7.00013
3044.58	7.74175
3045.87	8.60414
3047.15	9.96391
3048.44	10.7526
3049.72	11.6873
3051.01	12.7003
3052.29	13.3042
3053.58	13.7493
3054.86	14.4116
3056.15	14.5702
3057.43	14.9489
3058.71	15.3446
3060	15.9519
3061.28	15.7661
3062.56	15.7175
3063.84	15.9999
3065.13	15.9065
3066.41	15.4529
3067.69	14.9382
3068.97	14.8765
3070.26	14.4171
3071.54	13.537
3072.82	12.9333
3074.1	11.9176
3075.38	11.1961
3076.66	11.0874
3077.94	10.3909
3079.22	9.12974
3080.5	8.33179
3081.78	7.45961
3083.06	7.3665
3084.34	6.86684
3085.62	5.76287
3086.9	5.31465
3088.18	5.40512
3089.45	4.79487
3090.73	5.10915
3092.01	5.15204
3093.29	4.99541
3094.56	5.32147
3095.84	5.81791
3097.12	5.95114
3098.4	6.84347
3099.67	7.46478
3100.95	7.94741
3102.22	8.70084
3103.5	9.62877
3104.78	11.169
3106.05	12.0336
3107.33	12.6908
3108.6	13.4274
3109.88	14.684
3111.15	16.1494
3112.43	17.0459
3113.7	17.4998
3114.97	18.3987
3116.25	19.2472
3117.52	19.9773
3118.79	21.1961
3120.07	22.2791
3121.34	24.2215
3122.61	25.9982
3123.88	27.7476
3125.16	29.2035
3126.43	30.7106
3127.7	31.9893
3128.97	33.1679
3130.24	33.9048
3131.51	34.8485
3132.79	36.2128
3134.06	36.9124
3135.33	38.2348
3136.6	39.7917
3137.87	40.9539
3139.14	42.8578
3140.41	44.2941
3141.67	45.588
3142.94	47.1444
3144.21	48.7946
3145.48	50.3877
3146.75	51.465
3148.02	52.9557
3149.29	54.8343
